=~=~=~=~=~=~=~=~=~=~=~= PuTTY log 2021.04.22 10:47:23 =~=~=~=~=~=~=~=~=~=~=~=
,284,551,696,
0,780,882,281,545,686,
0,769,863,828,806,239,5690,319,414,720,
0,502,888,316,409,711,
0,493,
0,522,815,327,427,751,
0,517,803,324,423,740,
0,512,788,322,417,730,
0,506,777,319,414,720,
0,502,888,316,409,711,
0,496,871,313,406,701,
0,492,856,312,401,691,
0,486,843,308,398,681,
0,481,831,306,423,757,
0,476,817,304,419,745,
0,472,804,bbbj
0,467,792,299,411,725,
0,463,779,295,407,715StartUp!
127,692,814,225,521,737,
0,685,804,224,517,729,
0,679,796,223,513,722,
0,671,840,222,509,715,
0,665,900,238,505,707,
0,659,902,236,502,700,
0,653,888,235,497,694,
0,647,876,233,495,687,
0,639,864,231,489,679,
0,635,854,231,487,743,
0,630,840,228,517,759,
0,719,827,227,511,747,
0,707,814,224,505,736,
0,696,802,222,500,723,
0,688,790,221,495,713,
0,679,894,220,489,704,
0,670,896,217,485,695,
0,661,873,216,479,685,
0,653,860,215,475,676,
0,645,846,213,510,762,
0,689,831,211,504,750,
0,741,819,209,497,739,
0,728,807,207,492,728,
0,717,795,207,487,716,
0,707,783,205,483,707,
0,698,898,268,478,696,
0,689,890,265,472,687,
0,679,870,263,467,678,
0,671,856,260,462,670,
0,663,842,259,502,758,
0,704,833,258,499,751,
0,698,821,255,493,739,
0,686,808,254,487,727,
0,677,797,252,483,716,
0,668,806,249,479,707,
0,659,902,254,473,697,
0,652,903,252,468,688,
0,643,880,249,463,679,
0,636,865,248,458,671,
0,629,851,246,525,767,
0,747,838,243,519,754,
0,735,825,241,513,743,
0,722,812,239,507,731,
0,711,799,237,502,720,
0,703,860,281,496,711,
0,694,903,278,492,701,
0,684,905,275,487,691,
0,675,883,273,480,683,
0,667,867,270,476,696,
0,659,854,268,552,775,
0,771,839,265,545,764,
0,759,827,263,540,752,
0,745,814,261,534,739,
0,735,802,259,527,728,
0,725,888,287,523,719,
0,715,904,284,517,709,
1,705,899,281,511,700,
1,696,874,279,505,691,
1,688,860,276,512,764,
1,679,847,274,565,779,
1,742,833,271,558,768,
2,731,820,270,551,756,
1,719,807,267,545,743,
2,709,796,264,540,733,
2,700,896,298,534,723,
2,691,907,295,528,713,
3,681,903,292,523,704,
3,673,879,289,516,695,
3,664,865,287,572,798,
3,730,850,285,570,784,
3,759,836,283,563,772,
3,748,824,280,557,761,
3,734,812,277,551,748,
3,723,799,275,545,738,
3,715,898,287,539,728,
3,704,891,284,533,718,
4,696,873,281,527,708,
4,687,856,280,521,699,
4,678,843,278,572,798,
4,783,828,275,565,785,
4,769,816,272,559,774,
4,755,803,271,551,763,
4,744,792,268,546,749,
4,735,797,275,540,739,
4,724,901,295,535,728,
4,715,900,292,529,719,
4,705,880,289,523,710,
4,696,862,287,516,700,
4,688,848,285,563,792,
4,798,835,283,556,780,
4,785,822,280,550,768,
4,771,809,278,543,758,
4,760,797,275,537,743,
4,749,862,305,532,734,
4,739,904,304,526,723,
4,728,908,300,520,714,
4,719,893,297,515,704,
4,710,871,295,510,715,
4,701,858,293,557,793,
4,828,844,290,550,782,
4,815,830,287,543,770,
4,799,817,286,537,760,
4,787,806,283,531,745,
4,776,889,327,526,736,
3,766,905,323,520,726,
3,755,905,319,515,716,
4,744,885,316,510,706,
3,735,866,313,506,780,
3,748,852,312,549,798,
3,847,838,308,543,785,
3,834,825,305,536,774,
3,817,813,303,531,763,
3,806,800,300,525,750,
3,795,896,319,519,739,
3,783,907,316,514,729,
3,772,903,313,508,719,
3,761,881,310,504,710,
3,751,864,307,555,803,
3,822,849,304,550,791,
3,846,835,302,543,779,
3,832,823,300,537,768,
3,817,810,297,531,756,
3,806,799,294,526,743,
3,793,899,318,519,733,
3,782,907,315,515,723,
3,771,896,312,509,713,
3,760,872,309,504,704,
3,750,860,307,558,796,
3,857,845,304,551,783,
3,843,831,301,543,772,
3,829,819,299,539,761,
3,814,807,295,532,750,
3,801,798,294,527,737,
3,790,901,303,521,728,
3,779,897,300,515,717,
3,768,878,297,510,707,
3,758,860,295,505,699,
2,748,846,292,559,785,
2,865,833,289,551,772,
2,851,819,287,545,761,
2,837,807,285,540,751,
2,821,796,283,534,740,
2,809,876,322,527,728,
2,798,904,319,522,718,
2,786,910,316,516,708,
2,775,903,312,511,699,
2,764,876,310,506,707,
2,755,862,307,561,783,
2,846,847,304,555,771,
1,831,835,302,548,760,
1,819,822,300,543,750,
1,804,809,297,536,739,
1,793,889,340,531,727,
1,781,905,336,525,716,
1,770,903,333,519,707,
1,760,883,330,514,697,
1,750,864,327,508,769,
1,751,851,324,568,786,
1,836,836,321,561,775,
1,824,824,319,555,763,
1,811,812,316,548,752,
1,796,799,312,543,742,
1,784,896,319,536,729,
1,773,905,316,531,719,
1,763,898,313,526,710,
1,752,878,311,519,700,
1,742,860,308,515,791,
1,803,847,305,563,777,
1,820,833,303,556,766,
1,807,820,300,550,755,
1,796,807,297,543,744,
1,782,796,295,537,735,
1,771,900,319,531,721,
1,760,907,317,526,711,
1,749,899,313,520,702,
1,739,879,312,515,694,
0,729,861,308,548,793,
1,851,847,306,560,780,
1,841,833,303,553,769,
1,828,820,300,547,758,
0,815,807,298,541,747,
1,799,799,295,536,737,
1,788,900,318,529,724,
0,777,894,315,524,714,
0,766,876,312,518,705,
1,755,862,308,512,696,
1,746,844,306,567,792,
0,845,831,304,558,778,
0,831,818,301,551,768,
1,818,806,299,544,756,
0,806,793,295,539,745,
0,792,856,312,532,736,
1,780,903,311,527,722,
0,769,907,308,521,712,
0,759,891,305,516,704,
0,748,873,303,511,704,
0,739,856,300,560,787,
0,857,843,297,553,775,
0,843,829,295,547,764,
0,830,816,292,540,752,
0,817,804,290,535,742,
0,802,888,307,529,732,
0,791,905,304,524,719,
0,779,905,302,518,710,
0,768,885,299,512,700,
0,758,870,295,508,767,
0,753,852,294,557,780,
0,826,839,291,550,768,
0,814,825,289,543,758,
0,801,813,287,537,747,
0,790,801,284,532,737,
0,775,896,351,526,727,
0,764,908,347,520,714,
0,753,910,344,515,704,
0,743,896,340,510,696,
0,734,876,337,505,792,
0,782,858,335,548,780,
0,782,844,332,543,768,
0,770,831,327,536,757,
0,760,819,326,530,747,
0,748,807,323,524,736,
0,736,900,319,519,726,
0,726,908,318,513,713,
0,716,900,315,508,704,
0,707,880,312,503,696,
0,699,865,310,538,788,
0,799,847,307,541,775,
0,786,833,304,535,764,
0,775,821,302,529,753,
0,764,808,300,524,743,
0,752,812,297,518,733,
0,739,902,300,512,719,
0,729,906,297,507,711,
0,719,889,295,502,701,
0,710,873,293,496,692,
0,702,860,291,554,785,
0,758,841,287,545,772,
0,747,828,286,539,761,
0,736,816,284,533,751,
0,726,803,281,527,739,
0,716,853,280,521,730,
0,704,900,290,515,718,
0,695,886,287,511,707,
0,686,870,284,505,699,
0,678,856,283,500,715,
0,670,843,280,551,779,
0,664,825,278,543,768,
0,655,813,275,537,755,
0,647,801,273,531,745,
0,639,790,271,526,735,
0,633,892,286,519,724,
0,624,906,294,515,711,
0,617,909,291,510,703,
0,611,895,288,504,694,
0,604,876,286,499,774,
0,598,862,284,549,766,
0,591,844,281,541,754,
0,585,831,279,535,743,
0,579,818,276,529,733,
0,573,806,274,523,723,
0,568,896,283,518,713,
0,560,907,280,512,702,
0,555,906,276,507,692,
0,550,885,275,502,684,
0,543,870,272,497,768,
0,600,856,270,539,756,
0,600,839,268,531,745,
0,593,825,265,524,735,
0,585,814,263,519,724,
0,579,801,262,513,715,
0,572,900,270,508,705,
0,563,908,266,503,694,
0,557,904,263,497,685,
0,551,883,262,492,675,
0,545,868,260,540,768,
0,679,854,258,543,756,
0,672,837,255,535,745,
0,664,824,254,529,735,
0,655,812,252,523,724,
0,647,817,251,518,715,
0,636,902,292,512,705,
0,628,906,288,507,694,
0,621,891,286,501,684,
0,614,873,283,496,675,
0,607,860,281,547,772,
0,736,846,279,540,760,
0,724,829,276,532,749,
0,714,816,273,526,738,
0,704,804,271,520,728,
0,696,861,270,515,718,
0,684,903,288,510,708,
0,675,903,285,504,696,
0,666,884,283,499,688,
0,658,868,280,494,686,
0,651,856,278,547,771,
0,790,841,275,540,760,
0,776,824,273,532,748,
0,766,812,271,526,737,
0,755,799,268,520,728,
0,743,884,276,515,718,
0,731,904,274,509,707,
0,721,897,271,504,696,
0,711,878,269,499,687,
0,703,864,267,494,739,
0,711,850,263,551,770,
0,833,836,263,544,759,
0,819,819,260,536,748,
0,807,807,258,531,737,
0,796,796,255,525,728,
0,784,894,291,519,717,
0,770,903,287,513,707,
0,760,888,284,508,696,
0,749,871,281,504,687,
0,739,857,280,499,780,
0,807,844,277,553,766,
0,862,830,275,547,755,
0,847,814,271,539,743,
0,834,802,270,533,734,
0,821,790,268,527,723,
0,810,898,283,521,713,
0,795,900,280,515,704,
0,783,881,278,511,692,
0,772,866,275,505,684,
0,763,852,273,540,780,
0,856,839,270,556,768,
0,842,823,268,549,756,
0,829,810,265,541,745,
0,816,798,263,536,735,
0,803,786,262,529,726,
0,792,888,288,524,716,
0,778,872,286,518,705,
0,768,858,283,513,694,
0,757,844,280,508,685,
0,748,831,278,563,779,
0,816,817,275,556,768,
0,803,802,273,550,755,
0,792,791,271,543,745,
0,780,779,268,536,735,
0,769,838,267,531,724,
0,758,903,281,525,715,
0,744,905,279,519,705,
0,735,887,275,514,694,
0,726,871,273,508,702,
0,716,857,271,566,775,
0,752,843,268,559,763,
0,741,827,267,552,752,
0,731,814,263,545,742,
0,720,802,262,539,731,
0,711,887,271,533,721,
0,702,905,275,527,711,
0,691,902,273,521,702,
0,683,881,271,516,691,
0,675,866,268,511,763,
0,671,852,265,567,773,
0,730,839,263,560,761,
0,719,822,262,553,751,
0,710,810,259,545,740,
0,700,798,257,540,729,
0,691,895,284,534,719,
0,681,905,281,527,710,
0,671,898,278,523,700,
0,664,878,275,517,689,
0,655,864,273,512,783,
0,719,850,271,569,769,
0,739,835,269,563,759,
0,729,820,266,556,748,
0,719,807,263,548,737,
0,709,796,262,543,728,
0,700,899,284,536,717,
0,691,903,280,531,707,
0,679,887,278,525,698,
0,671,871,275,519,687,
0,663,857,273,561,780,
0,755,843,271,566,768,
0,743,830,268,559,756,
0,732,814,267,551,745,
0,722,801,263,545,736,
0,711,799,262,539,726,
0,703,901,282,533,716,
0,693,902,280,527,705,
0,682,883,276,521,696,
0,673,868,274,516,686,
0,665,855,271,572,777,
0,807,840,270,563,766,
0,793,827,267,557,754,
0,782,812,265,551,743,
0,771,799,263,543,733,
0,760,857,260,537,723,
0,749,903,286,531,713,
0,739,905,284,526,704,
0,727,887,280,519,695,
0,717,871,278,515,687,
0,708,857,275,566,771,
0,809,843,273,559,760,
0,796,830,271,551,749,
0,784,815,268,544,738,
0,773,802,267,539,728,
0,762,888,271,532,718,
0,752,905,278,527,708,
0,742,903,275,521,700,
0,728,881,271,516,690,
0,719,867,270,511,748,
0,717,853,268,563,771,
0,828,839,265,556,760,
0,815,826,263,549,749,
0,803,810,260,542,739,
0,792,798,259,536,729,
0,780,896,280,529,719,
0,768,906,277,524,709,
0,758,902,275,519,700,
0,745,880,271,513,691,
0,735,865,270,508,783,
0,783,852,267,553,770,
0,808,838,264,547,760,
0,796,825,263,540,748,
0,784,809,260,532,737,
0,774,798,258,527,728,
0,763,899,319,521,718,
0,752,907,317,515,707,
0,742,897,313,511,698,
0,729,877,310,505,687,
0,719,863,307,543,778,
0,813,849,305,555,766,
0,799,835,302,548,755,
0,787,823,300,542,743,
0,776,807,297,535,734,
0,765,798,295,529,723,
0,755,901,292,523,713,
0,743,897,290,518,704,
0,734,878,287,512,695,
0,721,864,286,507,684,
0,712,851,283,560,776,
0,815,836,280,551,764,
0,801,824,279,545,753,
0,790,811,275,540,743,
0,777,796,274,532,732,
0,768,856,271,527,723,
0,756,903,274,520,711,
0,745,907,271,515,703,
0,736,888,270,510,694,
0,723,872,267,504,699,
0,714,859,265,561,775,
0,809,844,263,555,763,
0,796,831,260,548,752,
0,784,819,259,542,741,
0,773,803,257,535,731,
0,762,889,268,528,721,
0,752,906,274,523,711,
0,741,911,271,518,702,
0,732,907,269,512,692,
0,719,884,267,507,760,
0,711,870,263,557,772,
0,800,855,262,550,761,
0,788,841,259,543,750,
0,776,828,257,537,739,
0,765,812,255,531,729,
0,755,896,265,525,719,
0,743,906,263,519,710,
0,734,900,260,513,700,
0,724,879,258,508,691,
0,711,864,255,504,784,
0,768,851,254,553,771,
0,791,837,252,547,760,
0,779,824,249,541,750,
0,768,812,248,535,739,
0,756,797,246,527,728,
0,746,899,270,521,719,
0,736,906,267,516,709,
0,726,892,264,511,700,
0,716,875,263,505,691,
0,704,860,260,545,783,
0,816,847,257,553,771,
0,802,833,255,547,760,
0,790,820,253,541,749,
0,779,807,251,536,739,
0,768,809,249,528,729,
0,756,902,274,523,719,
0,746,908,271,516,709,
0,736,898,269,511,700,
0,723,878,267,506,691,
0,715,864,263,571,783,
0,821,849,262,563,771,
0,807,836,259,556,760,
0,796,824,257,550,748,
0,783,811,255,543,737,
0,772,865,253,536,728,
0,761,904,265,530,718,
0,751,908,263,524,708,
0,740,896,261,519,699,
0,728,876,259,514,690,
0,719,863,255,580,779,
0,823,848,254,572,767,
0,809,835,252,566,755,
0,798,822,249,560,745,
0,785,809,248,553,735,
0,775,889,259,545,724,
0,764,906,263,540,715,
0,752,910,262,5270,
0,515,843,291,456,662,
0,510,827,289,503,754,476,699,
0,532,888,300,471,687,
0,527,871,297,466,678,
0,520,856,295,462,670,
0,515,843,291,456,662,
0,510,827,289,503,754,
0,608,813,287,500,743,
0,600,801,284,495,732,
0,591,789,281,489,721,
0,585,777,280,484,711,
0,575,768,278,480,703,
0,569,896,289,475,691,
0,563,881,286,470,681,
0,556,866,284,464,672,
0,551,852,281,460,664,
0,544,835,279,515,755,
0,641,822,276,506,743,
0,632,809,274,500,732,
0,624,798,271,495,723,
0,616,786,270,489,712,
0,608,825,268,484,703,
0,600,894,304,480,691,
0,593,877,301,475,682,
0,585,862,298,470,673,
0,579,848,295,465,684,
0,573,831,294,515,753,
0,643,819,291,508,742,
0,635,806,287,502,732,
0,627,794,286,496,721,
0,619,783,284,491,711,
0,610,873,307,486,702,
0,603,902,304,481,690,
0,595,888,302,476,681,
0,588,871,300,472,672,
0,582,857,296,467,743,
0,575,840,294,516,748,
0,590,827,291,508,737,
0,583,814,289,503,728,
0,575,802,287,497,717,
0,569,791,284,492,707,
0,562,889,292,487,697,
0,556,881,290,481,686,
0,550,866,287,477,677,
0,543,851,285,472,668,
0,538,838,283,468,760,
0,626,821,280,520,748,
0,637,808,278,515,737,
0,629,796,275,509,727,
0,621,785,273,504,716,
0,613,774,271,498,707,
0,604,896,295,492,697,
0,596,900,291,487,686,
0,590,882,289,483,676,
0,583,867,287,478,668,
0,575,854,284,521,760,
0,641,836,281,524,748,
0,632,824,280,516,737,
0,624,811,277,511,728,
0,615,799,275,505,717,
0,608,787,272,500,708,
0,600,893,333,495,698,
0,591,876,329,489,687,
0,585,862,327,484,678,
0,579,847,323,480,669,
0,572,835,321,529,763,
0,637,818,318,519,751,
0,628,806,315,515,739,
0,620,793,312,508,729,
0,612,782,310,504,719,
0,605,824,307,498,710,
0,596,897,304,492,700,
0,588,881,302,487,688,
0,582,866,300,483,679,
0,575,851,296,478,687,
0,569,839,295,528,757,
0,632,822,291,520,745,
0,624,809,289,515,735,
0,615,798,287,509,724,
0,608,785,285,504,715,
0,601,876,284,498,705,
0,591,902,283,493,696,
0,585,885,280,487,684,
0,578,870,279,483,675,
0,572,856,276,478,748,
0,577,843,274,525,757,
0,615,825,271,518,745,
0,607,812,270,512,735,
0,600,801,268,507,724,
0,591,789,265,500,715,
0,585,890,311,496,705,
0,576,899,306,491,694,
0,570,880,304,485,684,
0,563,865,300,480,675,
0,558,851,299,476,770,
0,632,838,295,526,758,
0,633,822,293,519,747,
0,625,809,291,513,736,
0,617,796,287,507,726,
0,609,785,286,502,716,
0,603,897,292,496,705,
0,593,903,289,491,694,
0,585,885,287,486,685,
0,579,870,284,481,676,
0,572,856,282,528,764,
0,624,841,280,531,752,
0,615,825,277,523,740,
0,608,813,275,517,730,
0,600,800,272,511,719,
0,592,789,271,506,711,
0,586,901,336,500,700,
0,577,902,332,495,689,
0,571,882,327,490,679,
0,564,867,326,485,671,
0,559,855,323,534,755,
0,552,839,319,527,743,
0,546,824,317,519,734,
0,540,811,315,513,723,
0,535,799,312,508,713,
0,529,835,310,503,704,
0,524,899,307,497,694,
0,518,885,304,492,683,
0,512,870,301,487,674,
0,507,856,299,482,688,
0,502,841,295,513,744,
0,534,828,294,507,733,
0,527,812,291,500,723,
0,521,799,289,495,712,
0,515,788,287,489,704,
0,510,869,312,484,694,
0,504,883,319,479,684,
0,497,867,316,474,673,
0,492,853,313,470,665,
0,487,839,311,465,741,
0,494,826,307,488,736,
0,507,813,305,483,724,
0,502,798,303,476,715,
0,496,786,300,472,705,
0,491,775,297,467,696,
0,486,886,297,462,687,
0,480,876,295,457,677,
0,475,861,291,453,667,
0,471,847,289,449,658,
0,466,833,287,445,740,
0,547,822,284,483,728,
0,542,807,283,478,718,
0,535,792,280,472,708,
0,528,781,278,467,699,
0,523,770,275,462,689,
0,517,894,291,457,679,
0,510,883,289,452,671,
0,504,868,286,448,660,
0,499,854,284,444,652,
0,494,840,281,484,739,
0,566,827,278,478,728,
0,558,814,276,472,718,
0,551,799,273,466,707,
0,544,787,271,461,697,
0,539,775,270,456,689,
0,532,895,322,451,679,
0,525,879,319,448,671,
0,519,864,315,443,660,
0,513,850,312,439,652,
0,508,836,310,478,748,
0,529,823,307,472,737,
0,523,811,304,467,727,
0,516,795,302,461,716,
0,511,783,299,455,707,
0,505,851,296,451,697,
0,499,902,350,447,688,
0,493,895,347,443,679,
0,487,876,343,438,668,
0,483,861,339,434,684,
0,479,847,336,463,745,
0,572,834,333,458,735,
0,564,822,330,454,724,
0,558,806,327,448,713,
0,551,794,324,443,704,
0,545,872,326,439,695,
0,539,896,326,434,686,
0,531,878,323,430,676,
0,526,863,319,427,666,
0,519,849,316,423,742,
0,539,836,313,465,736,
0,549,822,312,460,724,
0,542,810,308,455,714,
0,536,795,306,449,704,
0,529,783,304,445,696,
0,524,889,332,440,686,
0,518,896,327,435,676,
0,511,877,326,432,668,
0,505,863,321,428,657,
0,500,848,319,425,743,
0,537,835,316,463,731,
0,530,822,313,457,720,
0,524,807,311,452,710,
0,518,795,308,447,700,
0,512,783,305,442,691,
0,507,895,339,438,682,
0,500,886,335,433,673,
0,494,870,332,428,664,
0,489,856,327,424,654,
0,484,843,326,452,734,
0,481,828,323,447,723,
0,476,816,319,441,711,
0,472,800,317,437,702,
0,467,788,315,432,693,
0,463,777,312,428,684,
0,458,896,313,423,675,
0,454,881,311,419,665,
0,449,866,307,415,657,
0,446,852,304,412,647,
0,442,839,302,457,737,
0,549,825,300,451,726,
0,542,812,297,447,716,
0,536,798,295,441,705,
0,529,785,292,436,696,
0,523,818,291,432,688,
0,518,888,359,428,678,
0,512,871,356,423,668,
0,504,857,353,419,660,
0,499,843,349,415,662,
0,495,831,346,468,740,
0,628,817,343,463,729,
0,620,804,339,457,719,
0,611,790,337,452,709,
0,604,778,334,447,700,
0,596,864,332,443,690,
0,590,899,329,438,681,
0,583,881,327,433,671,
0,575,867,323,429,664,
0,568,852,319,425,728,
0,593,839,318,483,752,
0,662,825,315,478,740,
0,653,813,312,472,729,
0,644,798,310,467,719,
0,636,786,307,461,710,
0,628,892,310,455,700,
0,620,906,307,451,691,
0,613,903,304,448,681,
0,604,882,301,443,673,
0,597,867,299,439,768,
0,681,854,296,496,755,
0,691,839,295,489,743,
0,681,827,291,484,734,
0,671,811,289,479,723,
0,664,799,287,472,713,
0,655,897,295,467,704,
0,647,901,292,463,695,
0,639,883,290,458,686,
0,630,867,287,454,676,
0,622,854,285,487,769,
0,688,839,283,494,756,
0,679,827,280,488,745,
0,669,814,279,483,736,
0,660,799,276,478,725,
0,652,787,274,472,716,
0,644,899,323,467,705,
0,636,888,319,462,696,
0,628,871,318,457,687,
0,619,857,313,453,678,
0,611,844,312,496,765,
0,642,830,308,489,753,
0,633,817,305,484,743,
0,625,806,303,480,732,
0,618,791,300,473,722,
0,611,826,298,468,712,
0,603,900,329,StartUp!
127,647,785,295,474,710,
0,639,883,303,471,703,
0,635,872,300,467,696,
0,628,861,299,463,688,
0,623,851,295,460,681,
0,617,840,295,455,675,
0,611,830,292,453,669,
0,607,821,291,481,758,
0,676,811,289,480,748,
0,668,801,287,476,740,
0,662,790,285,471,729,
0,653,778,283,465,719,
0,643,768,280,460,710,
0,635,881,280,455,697,
0,627,905,278,451,688,
0,619,897,275,447,679,
0,611,878,273,443,671,
0,604,860,271,460,759,
0,616,846,270,472,745,
0,620,832,268,465,734,
0,612,819,265,461,724,
0,604,807,263,455,713,
0,595,795,262,451,702,
0,588,894,259,447,692,
0,582,894,257,443,684,
0,575,876,255,438,675,
0,569,862,254,434,665,
0,563,844,253,475,747,
0,625,831,251,470,736,
0,615,817,249,463,724,
0,608,811,249,463,719,
0,605,799,248,458,710,
0,595,787,246,454,699,
0,589,897,304,448,688,
0,582,887,301,444,679,
0,575,871,299,440,671,
0,568,856,295,435,663,
0,563,839,294,492,753,
0,680,826,291,486,742,
0,671,814,287,480,731,
0,662,801,286,475,720,
0,653,789,284,470,711,
0,643,795,295,465,699,
0,635,900,332,460,689,
0,627,894,327,455,679,
0,620,876,326,451,671,
0,612,862,323,448,664,
0,605,845,319,507,757,
0,680,831,317,500,745,
0,671,818,313,496,735,
1,662,806,312,489,724,
1,654,793,309,484,715,
2,643,870,344,480,702,
2,635,904,339,475,693,
3,627,904,335,470,684,
3,620,884,333,465,675,
3,612,869,330,460,709,
4,607,852,327,519,762,
4,684,838,324,512,751,
4,675,824,321,507,739,
4,666,812,319,502,729,
4,657,800,316,496,719,
4,647,887,313,491,707,
4,639,905,310,486,697,
5,632,902,307,480,688,
5,624,881,305,476,679,
5,615,866,303,472,772,
5,660,849,300,521,760,
5,675,835,297,515,750,
6,665,823,295,509,739,
6,656,809,292,504,728,
6,647,798,291,498,719,
6,638,896,348,493,706,
6,631,906,344,487,696,
6,623,901,340,483,688,
6,615,880,337,478,679,
6,608,865,335,487,779,
5,702,847,332,522,766,
5,691,835,327,516,755,
5,681,822,326,511,743,
5,672,809,323,504,733,
5,662,797,319,499,723,
6,653,899,351,494,711,
5,645,908,348,489,702,
5,637,910,344,483,692,
5,630,893,340,480,684,
5,622,875,338,534,783,
4,744,857,335,524,770,
5,733,844,332,519,759,
5,722,830,329,513,748,
5,712,817,326,507,737,
4,700,822,323,502,728,
4,691,903,340,496,715,
4,683,905,337,492,705,
4,673,888,335,486,696,
4,665,871,332,481,687,
4,657,859,327,533,782,
4,790,840,326,524,770,
4,776,828,323,519,759,
4,765,815,319,513,748,
4,755,803,317,508,737,
4,742,875,315,502,728,
4,732,904,328,496,715,
4,721,910,326,492,705,
3,711,903,323,487,696,
3,703,880,319,481,711,
3,694,866,318,532,784,
3,815,848,315,524,772,
3,801,835,312,518,761,
3,790,822,310,512,751,
3,778,809,307,507,740,
3,764,885,332,502,730,
3,753,903,336,496,718,
3,743,889,333,492,707,
3,733,872,331,486,699,
3,723,858,327,481,777,
3,764,845,324,536,787,
3,833,828,321,527,775,
3,819,815,319,521,764,
3,807,803,316,516,752,
3,796,792,313,511,742,
3,782,894,350,505,732,
3,771,904,344,499,719,
3,760,890,342,495,710,
3,750,873,339,489,700,
3,739,859,335,486,799,
3,825,842,332,534,785,
3,813,828,329,527,774,
3,801,816,327,520,762,
3,790,804,324,515,752,
3,778,792,321,510,742,
3,764,898,359,504,731,
3,753,903,355,499,718,
3,743,888,352,494,708,
2,733,871,349,488,700,
3,723,857,346,538,792,
3,828,839,343,536,780,
2,814,827,339,527,768,
2,801,814,336,521,757,
2,790,802,334,516,747,
2,778,799,331,511,736,
2,764,902,367,505,726,
2,753,903,363,499,713,
2,743,884,359,495,704,
2,733,868,355,489,696,
2,724,856,352,539,787,
2,799,838,350,531,775,
2,787,824,346,524,763,
2,775,812,344,519,752,
2,765,799,340,512,742,
2,755,854,337,508,732,
2,742,903,355,502,721,
2,731,908,352,496,710,
2,721,894,348,492,700,
1,711,876,344,487,719,
2,704,861,342,531,783,
2,758,844,339,526,771,
1,747,831,335,518,760,
1,736,818,333,512,749,
1,727,806,330,507,738,
1,717,884,353,502,728,
1,704,902,352,496,718,
1,696,888,348,491,706,
1,687,871,345,486,697,
1,679,857,342,481,775,
1,696,844,339,543,780,
1,732,827,335,536,768,
1,720,814,334,528,758,
1,711,802,331,523,747,
1,702,790,327,517,736,
1,692,894,377,512,727,
1,680,903,371,506,716,
1,671,886,368,500,704,
1,664,870,364,496,696,
1,655,856,361,493,793,
1,754,842,358,540,780,
1,752,825,355,534,769,
1,741,813,352,526,758,
1,731,801,349,519,747,
1,720,789,345,515,737,
1,711,897,344,509,727,
1,699,896,339,504,716,
1,690,877,337,499,704,
1,681,862,334,494,696,
1,673,849,332,537,787,
1,777,835,328,535,774,
1,765,819,326,528,763,
1,754,807,323,521,752,
1,743,794,320,515,741,
1,733,789,318,510,731,
1,723,901,316,504,720,
1,711,902,312,499,711,
1,701,882,310,494,700,
0,692,867,307,488,690,
0,684,854,305,537,785,
1,749,839,303,530,772,
1,738,823,300,523,761,
0,728,811,298,517,750,
0,718,799,295,511,739,
0,707,851,294,505,729,
0,699,902,310,500,719,
0,687,892,306,495,710,
0,679,875,304,491,698,
0,670,860,300,486,709,
1,662,847,298,527,776,
0,732,833,295,521,765,
0,722,817,293,514,753,
0,711,805,291,508,743,
0,702,793,288,504,733,
0,693,881,325,497,723,
0,684,903,326,492,713,
0,672,895,321,487,703,
0,664,876,319,483,691,
0,655,862,316,478,765,
0,663,847,313,519,772,
0,707,834,311,513,760,
0,696,818,307,507,750,
0,687,806,305,501,739,
0,678,794,303,496,729,
0,670,892,326,491,719,
0,661,896,323,486,709,
0,651,878,319,480,700,
0,643,864,316,476,689,
0,636,849,313,472,785,
0,728,836,311,521,772,
0,739,823,307,515,760,
0,729,807,305,508,750,
0,719,795,303,503,739,
0,709,783,300,497,729,
0,700,898,311,492,719,
0,690,907,307,487,710,
0,679,898,304,482,697,
0,670,878,302,477,688,
0,662,864,300,518,785,
0,729,849,295,515,772,
0,718,835,294,510,761,
0,708,819,291,503,750,
0,699,807,289,497,739,
0,689,796,287,492,730,
0,680,897,301,487,719,
0,671,883,298,482,710,
0,661,867,295,477,698,
0,652,854,292,472,689,
0,646,840,290,526,788,
0,719,827,287,519,775,
0,708,814,285,513,764,
0,699,799,283,506,753,
0,689,787,280,500,743,
0,680,834,279,496,732,
0,671,900,316,490,723,
0,664,888,313,485,712,
0,652,871,310,480,701,
0,644,857,307,475,710,
0,637,844,304,530,780,
0,734,830,302,524,769,
0,723,817,300,518,758,
0,712,802,296,511,747,
0,703,790,294,504,736,
0,694,875,307,499,727,
0,684,889,310,494,716,
0,675,873,307,489,707,
0,665,859,304,484,696,
0,656,845,301,480,768,
0,673,831,299,531,780,
0,732,818,295,524,768,
0,720,806,293,519,757,
0,711,792,291,511,746,
0,701,780,287,506,736,
0,692,891,307,500,726,
0,683,903,304,496,716,
0,673,886,300,491,706,
0,664,871,297,486,695,
0,655,856,295,480,787,
0,738,843,292,535,774,
0,743,829,289,528,763,
0,732,816,287,522,752,
0,723,801,285,515,740,
0,711,790,283,510,731,
0,704,896,345,504,720,
0,694,894,342,499,711,
0,683,876,338,494,701,
0,673,861,334,488,690,
0,665,847,332,528,769,
0,760,834,327,535,757,
0,748,821,326,528,747,
0,737,808,323,523,736,
0,728,793,319,515,726,
0,717,785,318,510,716,
0,707,899,315,504,705,
0,698,890,312,499,696,
0,687,873,310,495,688,
0,678,859,307,489,676,
0,670,846,304,536,768,
0,750,831,301,528,756,
0,739,819,299,522,745,
0,728,807,295,516,735,
0,718,792,294,510,724,
0,708,830,291,504,715,
0,699,889,295,499,705,
0,690,873,291,494,696,
0,679,858,289,488,687,
0,670,845,287,483,691,
0,663,831,284,539,771,
0,753,818,282,531,760,
0,743,806,280,526,748,
0,732,793,278,519,738,
0,722,780,275,512,728,
0,711,866,300,507,718,
0,703,886,301,502,708,
0,694,870,298,496,699,
0,682,856,295,492,689,
0,673,841,292,487,755,
0,691,828,290,539,770,
0,759,816,287,532,759,
0,748,803,285,526,748,
0,736,791,283,520,737,
0,727,776,280,513,727,
0,717,889,295,508,717,
0,707,888,292,503,707,
0,697,871,289,497,697,
0,686,857,287,492,689,
0,678,844,284,487,779,
0,749,830,281,537,766,
0,744,817,280,531,755,
0,734,805,277,526,744,
0,723,791,275,519,734,
0,714,779,272,513,724,
0,705,884,325,508,713,
0,696,868,321,502,704,
0,686,854,318,496,696,
0,675,839,315,492,686,
0,667,827,312,529,787,
0,764,814,309,537,775,
0,752,801,307,531,763,
0,741,790,304,526,752,
0,731,775,301,519,742,
0,720,764,299,513,732,
0,711,888,304,507,721,
0,701,871,302,502,711,
0,691,856,300,496,702,
0,681,842,296,492,692,
0,672,829,294,541,780,
0,747,816,291,534,768,
0,736,803,289,527,756,
0,726,792,287,521,745,
0,716,777,284,516,735,
0,705,819,282,510,726,
0,696,896,338,504,715,
0,687,878,335,499,705,
0,678,863,332,493,696,
0,667,849,327,487,687,
0,659,836,325,531,772,
0,774,823,322,525,760,
0,762,810,319,519,750,
0,751,798,316,513,739,
0,740,783,313,508,728,
0,731,845,312,501,719,
0,720,830,308,496,709,
0,711,817,306,491,700,
0,701,804,304,486,691,
0,690,792,300,481,681,
0,753,780,298,544,775,
0,900,769,295,537,764,
0,903,758,293,531,752,
0,884,748,291,526,742,
0,870,736,288,519,732,
0,857,839,287,512,721,
0,844,824,284,508,711,
0,831,811,281,502,702,
0,819,798,280,497,693,
0,804,786,276,492,743,
0,883,775,275,546,775,
0,908,764,272,540,764,
0,913,752,271,534,752,
0,915,742,268,527,742,
0,903,729,267,522,732,
0,881,879,264,515,721,
0,867,863,263,509,711,
0,854,848,260,504,702,
0,841,835,259,499,693,
0,826,822,257,526,796,
0,897,809,255,544,779,
0,910,797,253,538,768,
0,915,785,252,531,756,
0,915,774,249,526,745,
0,902,767,248,520,736,
0,881,896,246,513,725,
0,867,880,244,508,716,
0,854,865,243,503,705,
0,841,851,241,497,696,
0,826,838,239,552,787,
0,902,824,238,545,772,
0,911,812,236,539,761,
0,915,799,235,532,750,
0,915,788,232,527,739,
0,897,812,231,519,729,
0,879,843,230,514,719,
0,865,828,228,508,710,
0,852,816,227,504,700,
0,839,803,225,498,691,
0,825,792,224,547,781,
0,903,779,222,541,766,
0,911,768,220,535,755,
0,915,757,219,529,744,
0,911,747,217,523,734,
0,888,859,234,515,723,
0,872,850,231,510,714,
0,859,836,230,505,705,
0,846,823,227,499,696,
0,834,809,225,495,687,
0,850,798,224,550,783,
0,906,785,222,543,769,
0,912,774,220,536,758,
0,913,763,218,531,747,
0,896,752,216,525,736,
0,879,880,216,518,726,
0,864,864,214,512,716,
0,851,849,212,507,707,
0,839,835,211,502,697,
0,827,823,209,496,737,
0,883,809,207,551,780,
0,908,797,207,543,766,
0,913,785,205,539,754,
0,911,775,204,532,743,
0,888,764,203,527,734,
0,875,895,201,519,723,
0,860,881,199,513,713,
0,847,865,199,508,704,
0,835,851,198,503,695,
0,823,838,196,527,793,
0,895,825,195,550,775,
0,909,812,194,543,764,
0,911,799,192,536,753,
0,902,788,192,531,743,
0,881,777,191,525,733,
0,867,888,189,518,723,
0,854,871,188,512,712,
0,841,856,187,507,704,
0,828,843,185,502,694,
0,816,829,184,553,789,
0,899,816,184,546,773,
0,910,803,182,540,761,
0,911,792,180,534,751,
0,896,780,179,527,740,
0,878,769,179,523,730,
0,864,895,177,515,719,
0,851,877,176,510,710,
0,838,862,176,504,700,
0,825,848,175,499,691,
0,815,835,174,545,792,
0,903,822,172,539,775,
0,909,809,171,532,765,
0,897,798,171,526,754,
0,880,785,169,520,743,
0,865,814,178,515,733,
0,852,867,176,508,723,
0,839,852,175,503,713,
0,827,839,173,497,704,
0,815,825,172,492,695,
0,804,813,171,543,786,
0,905,800,169,537,771,
0,910,789,167,531,760,
0,899,777,167,525,749,
0,880,766,166,519,739,
0,867,846,167,514,728,
0,853,833,166,507,719,
0,839,820,165,502,709,
0,828,807,163,496,700,
0,816,796,163,492,743,
0,822,783,162,540,787,
0,908,772,161,535,773,
0,911,761,159,528,761,
0,903,750,159,523,751,
0,882,740,158,517,740,
0,868,842,158,511,729,
0,855,824,156,504,719,
0,841,811,156,499,711,
0,829,799,155,494,701,
0,817,787,153,519,796,
0,894,775,153,539,782,
0,909,764,152,532,768,
0,911,752,151,527,756,
0,903,743,150,520,745,
0,881,732,150,515,736,
0,867,877,183,510,724,
0,854,857,181,503,715,
0,841,844,179,497,705,
0,829,830,178,492,696,
0,816,817,176,541,788,
0,899,804,175,534,775,
0,910,792,174,527,761,
0,912,781,172,522,750,
0,899,770,171,516,739,
0,880,760,171,511,729,
0,865,860,223,505,719,
0,852,842,220,499,710,
0,839,828,219,494,700,
0,827,816,216,488,691,
0,816,803,215,537,785,
0,903,791,213,531,774,
0,911,780,211,524,760,
0,907,768,209,518,748,
0,886,757,207,513,737,
0,871,781,206,508,728,
0,857,857,204,502,717,
0,844,839,203,496,707,
0,831,825,201,490,698,
0,820,813,199,486,689,
0,808,801,198,536,787,
0,904,788,196,529,775,
0,908,776,195,524,760,
0,890,766,193,518,750,
0,875,755,192,512,739,
0,861,824,191,507,728,
0,847,834,189,501,719,
0,835,817,188,495,709,
0,823,804,186,489,700,
0,811,792,184,485,739,
0,799,781,184,529,785,
0,906,769,182,524,774,
0,900,758,180,518,760,
0,881,748,179,512,749,
0,867,737,185,507,739,
0,855,867,232,501,728,
0,840,847,230,496,718,
0,828,833,228,489,708,
0,816,820,226,484,700,
0,804,807,224,500,790,
0,851,796,223,523,775,
0,907,783,220,516,764,
0,898,771,218,511,751,
0,880,761,216,505,740,
0,866,751,215,500,731,
0,853,867,214,495,719,
0,839,847,211,489,711,
0,827,833,210,483,701,
0,816,820,208,479,691,
0,803,808,207,527,782,
0,878,796,205,519,769,
0,884,783,204,513,758,
0,870,772,201,508,744,
0,856,761,199,502,734,
0,843,751,199,497,724,
0,830,875,216,492,714,
0,818,856,215,487,704,
0,806,843,212,480,696,
0,795,829,211,476,686,
0,783,816,209,524,782,
0,893,803,207,518,769,
0,899,792,206,512,758,
0,881,780,204,506,744,
0,867,768,202,500,734,
0,854,795,207,496,724,
0,839,868,204,490,713,
0,827,851,203,485,704,
0,815,837,201,480,696,
0,803,824,199,475,686,
0,792,811,198,524,781,
0,875,798,196,518,769,
0,856,787,195,512,758,
0,843,775,193,507,744,
0,830,764,192,501,735,
0,818,860,239,496,724,
0,806,892,236,491,714,
0,794,871,233,486,704,
0,783,856,231,480,696,
0,772,843,230,475,727,
0,763,830,227,520,774,
0,835,816,225,515,761,
0,818,804,224,509,751,
0,806,792,222,504,737,
0,793,781,220,498,728,
0,783,888,236,492,717,
0,771,885,234,487,707,
0,760,865,231,483,697,
0,750,851,231,476,689,
0,740,838,228,497,780,
0,738,824,227,512,766,
0,755,812,225,505,755,
0,742,799,223,500,743,
0,732,788,220,495,731,
0,723,777,219,489,720,
0,713,896,263,484,711,
0,704,895,260,480,701,
0,696,872,258,475,692,
0,688,858,255,468,683,
0,679,845,254,516,771,
0,671,831,252,509,760,
0,664,818,249,504,748,
0,654,806,247,498,737,
0,647,794,245,493,725,
0,639,792,243,487,716,
0,632,902,275,483,705,
0,625,908,272,478,696,
0,619,892,270,472,687,
0,612,875,268,467,678,
0,606,860,265,515,775,
0,720,846,263,508,763,
0,710,832,260,503,752,
0,697,820,258,497,740,
0,688,807,255,492,728,
0,679,831,255,487,718,
0,670,901,254,481,708,
0,662,889,252,476,699,
0,653,870,249,471,689,
0,644,856,248,465,680,
0,638,843,246,515,773,
0,764,828,243,508,760,
0,752,816,242,503,750,
0,738,803,240,497,739,
0,728,792,238,492,726,
0,719,873,255,487,716,
0,708,899,252,481,707,
0,699,881,249,476,697,
0,690,863,248,471,688,
0,681,849,246,467,714,
0,672,836,243,518,771,
0,801,823,241,511,760,
0,787,810,240,505,748,
0,774,798,237,499,737,
0,763,787,236,495,726,
0,752,888,257,489,715,
0,742,878,255,484,705,
0,732,863,253,480,696,
0,721,845,251,473,687,
0,711,831,248,484,771,
0,745,819,247,524,775,
0,842,807,244,519,763,
0,828,795,242,512,752,
0,812,783,240,507,739,
0,800,771,238,502,729,
0,789,896,248,496,719,
0,777,890,244,491,708,
0,767,873,243,486,700,
0,756,856,241,480,690,
0,746,842,239,534,785,
0,829,828,237,526,773,
0,851,816,235,519,761,
0,839,803,233,514,750,
0,822,792,231,508,737,
0,810,780,230,504,728,
0,798,889,270,497,717,
0,787,873,268,492,707,
0,775,859,265,487,697,
0,764,841,263,481,689,
0,755,829,260,529,782,
0,857,816,259,523,769,
0,843,803,255,516,758,
0,829,791,254,511,747,
0,814,780,252,505,734,
0,802,808,249,499,723,
0,790,894,248,495,713,
0,779,876,246,489,704,
0,768,862,243,484,696,
0,757,844,242,479,686,
0,748,831,240,525,775,
0,840,817,238,519,764,
0,828,806,236,512,753,
0,815,793,235,508,742,
0,799,782,231,502,729,
0,788,872,248,496,719,
0,776,903,245,491,710,
0,766,892,243,487,700,
0,755,875,241,481,691,
0,745,857,239,476,715,
0,736,844,237,526,777,
0,825,830,235,519,766,
0,812,817,233,514,755,
0,799,804,231,508,743,
0,785,793,229,504,731,
0,774,890,307,497,720,
0,763,894,303,492,711,
0,752,877,300,487,702,
0,742,862,296,483,692,
0,732,844,294,491,781,
0,755,831,291,519,778,
0,816,818,289,513,767,
0,803,806,287,508,755,
0,787,793,284,502,744,
0,776,782,281,497,732,
0,765,897,280,492,721,
0,755,898,277,486,711,
0,743,879,275,481,702,
0,734,864,272,476,694,
0,724,847,271,518,791,
0,799,833,268,511,778,
0,785,820,267,505,767,
0,774,807,263,499,755,
0,760,796,262,494,744,
0,749,784,259,489,732,
0,739,880,259,484,721,
0,728,864,255,479,711,
0,719,849,255,473,702,
0,710,836,252,470,694,
0,700,820,251,515,788,
0,803,807,248,508,775,
0,790,795,247,502,764,
0,778,783,245,496,753,
0,764,772,243,492,742,
0,753,791,249,487,729,
0,743,861,249,481,719,
0,732,847,248,476,710,
0,723,833,246,472,700,
0,713,820,243,467,691,
0,704,804,241,500,780,
0,798,792,240,494,769,
0,785,780,238,488,758,
0,774,769,236,483,747,
0,760,759,234,479,736,
0,749,860,243,473,723,
0,739,903,242,468,713,
0,728,899,240,463,704,
0,719,879,239,460,695,
0,710,864,236,455,718,
0,700,847,235,487,782,
0,752,833,232,483,770,
0,740,821,231,477,760,
0,730,807,229,472,748,
0,718,796,227,467,737,
0,708,888,335,463,726,
0,698,886,331,457,716,
0,689,870,327,453,705,
0,681,856,324,449,696,
0,673,839,321,445,777,
0,689,825,319,473,784,
0,771,812,316,468,772,
0,759,800,313,463,761,
0,748,788,311,459,750,
0,735,777,307,454,740,
0,724,897,310,449,728,
0,715,904,307,444,717,
0,705,889,304,440,707,
0,696,872,302,436,698,
0,688,856,300,432,792,
0,761,841,297,470,778,
0,776,828,295,464,767,
0,766,816,292,460,755,
0,754,803,290,455,744,
0,741,792,287,450,735,
0,731,881,285,446,721,
0,721,865,283,441,711,
0,711,851,280,437,703,
0,702,838,278,432,694,
0,693,822,276,471,783,
0,798,808,274,470,771,
0,785,796,271,464,760,
0,774,784,270,460,748,
0,762,774,268,455,737,
0,748,763,265,450,728,
0,738,833,263,446,715,
0,728,820,262,441,705,
0,719,807,259,437,696,
0,708,795,257,433,688,
0,700,780,255,472,778,
0,774,768,254,465,766,
0,761,758,252,460,755,
0,751,747,250,455,744,
0,740,737,248,451,734,
0,728,815,262,446,724,
0,717,864,259,441,711,
0,707,849,257,436,702,
0,699,835,254,433,693,
0,689,823,252,428,711,
0,681,807,251,455,778,
0,755,794,248,449,766,
0,743,783,247,444,755,
0,733,771,244,440,743,
0,723,760,243,435,734,
0,711,889,240,431,723,
0,701,904,239,427,711,
0,692,894,237,423,702,
0,683,876,236,419,692,
0,675,861,233,415,768,
0,686,844,231,444,772,
0,759,831,231,438,760,
0,748,818,229,433,750,
0,737,806,227,429,739,
0,727,793,225,424,729,
0,715,897,224,420,719,
0,704,905,223,416,707,
0,696,894,221,413,697,
0,687,875,219,409,688,
0,678,861,217,406,784,
0,737,844,216,408,771,
0,728,830,215,403,760,
0,717,817,214,399,749,
0,707,806,211,396,738,
0,697,793,211,393,729,
0,686,899,264,390,719,
0,677,892,262,387,706,
0,668,875,259,384,696,
0,660,860,257,380,688,
0,652,847,255,382,786,
0,707,830,253,377,773,
0,696,817,251,375,761,
0,686,804,249,371,751,
0,677,792,247,368,740,
0,668,854,248,366,731,
0,657,903,339,363,719,
0,649,910,335,360,707,
0,641,913,332,358,699,
0,634,911,329,355,689,
0,627,888,326,364,790,
0,792,868,323,359,777,
0,779,855,319,356,766,
0,768,841,318,353,755,
0,756,828,315,351,744,
0,746,869,331,348,734,
0,732,879,374,345,724,
0,723,864,370,344,711,
0,713,850,367,341,702,
0,704,836,363,339,713,
0,696,824,359,336,780,
0,840,807,356,334,768,
0,827,796,353,331,757,
0,815,784,351,329,747,
0,803,774,415,327,736,
0,791,763,408,324,726,
0,776,752,403,323,713,
0,766,743,399,319,704,
0,755,733,396,318,696,
0,745,723,391,316,764,
0,777,715,388,314,777,
0,862,703,385,312,766,
0,847,694,382,309,755,
0,835,686,379,307,743,
0,822,677,375,305,734,
0,810,850,380,303,723,
0,795,887,376,301,711,
0,783,870,372,299,702,
0,772,856,369,297,692,
0,762,842,366,295,783,
0,857,829,363,294,771,
0,892,813,359,291,760,
0,875,800,356,289,748,
0,861,789,353,287,738,
0,847,777,351,286,728,
0,835,899,348,284,718,
0,819,909,345,281,706,
0,807,912,343,280,696,
0,796,911,340,279,688,
0,785,891,337,277,780,
0,892,873,335,275,768,
0,901,856,332,273,756,
0,883,843,329,271,745,
0,869,830,327,270,735,
0,856,822,334,268,726,
0,843,903,415,267,715,
0,827,910,411,264,703,
0,815,911,407,263,694,
0,803,899,403,262,685,
0,792,878,399,260,772,
0,900,863,395,259,760,
0,908,846,391,255,750,
0,900,831,388,255,739,
0,881,820,384,254,728,
0,867,884,382,252,719,
0,854,904,379,251,708,
0,837,902,375,248,697,
0,824,880,371,248,688,
0,813,866,368,246,693,
0,801,852,365,244,766,
0,904,839,362,243,754,
0,911,822,359,241,743,
0,909,809,355,240,732,
0,888,798,366,239,723,
0,873,889,390,237,713,
0,860,884,503,236,703,
0,844,868,494,234,691,
0,831,855,488,233,683,
0,819,840,483,231,749,
0,842,828,479,231,760,
0,904,815,473,229,749,
0,899,799,469,227,739,
0,880,787,464,226,728,
0,867,776,460,225,719,
0,853,893,455,224,708,
0,837,883,451,223,699,
0,824,868,447,221,688,
0,812,854,442,220,679,
0,801,839,439,219,762,
0,879,827,434,217,750,
0,907,814,430,216,739,
0,901,799,427,215,728,
0,881,787,423,214,718,
0,867,775,419,212,709,
0,855,896,454,211,699,
0,838,899,448,209,689,
0,825,880,443,208,679,
0,814,865,439,207,670,
0,802,851,435,209,753,
0,896,838,430,207,741,
0,909,824,426,206,730,
0,909,808,422,204,719,
0,889,796,419,203,710,
0,876,785,476,202,701,
0,862,774,639,201,691,
0,844,763,629,199,682,
0,831,752,619,199,671,
0,820,743,611,198,664,
0,808,733,604,207,755,
0,797,723,598,204,743,
0,785,713,591,203,733,
0,775,703,584,201,723,
0,764,694,578,199,713,
0,755,686,663,198,704,
0,745,677,671,196,694,
0,732,669,662,195,685,
0,723,661,652,194,673,
0,715,654,643,193,680,
0,705,646,636,204,760,
0,697,639,629,203,749,
0,688,632,622,201,738,
0,679,623,615,199,728,
0,671,615,608,198,718,
0,664,614,601,196,707,
0,657,607,595,195,699,
0,647,600,588,193,689,
0,639,594,580,192,678,
0,633,588,575,191,742,
0,626,582,568,199,753,
0,620,575,563,198,742,
0,612,568,557,196,732,
0,606,563,551,195,721,
0,600,556,546,193,711,
0,593,671,633,192,702,
0,587,682,822,190,692,
0,579,671,807,189,684,
0,574,664,792,188,671,
0,568,655,782,188,760,
0,562,646,771,187,747,
0,556,638,760,185,736,
0,551,628,750,184,726,
0,545,620,740,184,716,
0,540,647,732,183,707,
0,536,839,888,182,696,
0,530,824,908,180,688,
0,524,811,913,179,679,
0,519,799,915,179,668,
0,515,787,903,179,766,
0,510,775,880,183,754,
0,505,764,867,180,743,
0,500,751,855,179,732,
0,496,740,887,178,723,
0,492,731,908,177,712,
0,487,720,912,176,703,
0,483,711,916,175,694,
0,478,702,916,174,684,
0,473,693,898,173,673,
0,470,684,879,188,769,
0,465,675,865,187,758,
0,461,668,853,185,746,
0,457,657,840,184,736,
0,454,649,828,182,726,
0,449,642,817,180,716,
0,446,634,903,179,705,
0,443,627,910,177,696,
0,438,620,905,176,688,
0,434,613,884,175,683,
0,431,606,871,195,764,
0,428,600,857,193,752,
0,423,592,845,192,742,
0,420,584,831,190,732,
0,417,579,879,188,721,
0,414,572,906,187,711,
0,411,567,912,184,702,
0,408,560,916,184,692,
0,403,555,920,182,684,
0,400,549,920,180,745,
0,438,543,915,209,760,
0,514,539,888,207,749,
0,508,534,873,206,738,
0,502,527,860,204,728,
0,496,521,847,201,718,
0,492,517,900,199,707,
0,486,512,904,199,699,
0,481,507,888,196,689,
0,475,503,870,195,680,
0,470,498,857,194,768,
0,553,494,844,217,755,
0,611,489,831,216,743,
0,604,485,819,214,734,
0,596,480,809,211,723,
0,590,476,882,209,714,
0,583,711,907,207,704,
0,575,719,912,206,695,
0,568,710,916,204,686,
0,560,699,920,203,676,
0,555,689,921,211,767,
0,548,680,916,216,755,
0,543,671,889,214,743,
0,536,663,875,212,733,
0,531,652,862,210,723,
0,526,644,850,208,713,
0,519,756,870,207,704,
0,515,743,902,205,694,
0,509,733,911,204,684,
0,504,723,915,201,676,
0,499,713,918,209,775,
0,588,704,915,207,764,
0,580,694,894,205,752,
0,574,684,878,203,742,
0,567,674,880,201,732,
0,560,665,904,199,721,
0,553,657,893,198,711,
0,547,648,877,196,702,
0,541,641,864,195,693,
0,534,633,847,193,684,
0,528,627,836,212,768,
0,648,619,824,211,757,
0,639,611,812,209,746,
0,632,604,802,207,736,
0,623,595,903,205,726,
0,615,710,911,204,716,
0,608,751,915,201,705,
0,601,740,918,199,696,
0,593,729,920,199,687,
0,585,719,921,197,679,
0,620,710,923,201,760,
0,712,700,924,199,748,
0,702,691,924,198,737,
0,692,681,924,196,728,
0,684,671,923,194,718,
0,675,796,924,193,707,
0,665,783,924,192,698,
0,657,771,925,190,689,
0,649,760,924,188,679,
0,639,748,903,187,775,
0,703,739,879,214,763,
0,758,728,865,211,751,
0,746,718,852,209,740,
0,736,708,840,207,729,
0,726,697,828,206,719,
0,716,730,883,204,710,
0,706,719,907,202,700,
0,697,708,913,200,691,
0,688,699,916,199,683,
0,678,689,920,199,775,
0,720,680,915,206,763,
0,710,671,903,204,751,
0,700,664,911,202,740,
0,691,655,914,200,730,
0,681,647,912,199,720,
0,673,804,889,197,710,
0,664,792,875,195,700,
0,656,780,862,194,691,
0,648,768,849,192,683,
0,639,757,835,208,761,
0,760,746,823,206,750,
0,748,736,811,204,739,
0,737,726,800,203,728,
0,728,716,790,201,719,
0,718,704,780,199,708,
0,707,695,769,198,699,
0,699,686,826,195,690,
0,689,677,813,194,680,
0,680,669,801,193,671,
0,670,661,787,200,777,
0,662,652,775,199,765,
0,654,644,765,197,754,
0,646,637,755,195,743,
0,639,630,745,194,733,
0,632,621,737,192,723,
0,624,614,728,191,713,
0,617,607,880,189,704,
0,609,600,868,188,695,
0,604,593,854,187,685,
0,624,588,839,199,771,
0,791,580,825,197,760,
0,778,574,889,195,749,
0,767,568,876,193,739,
0,755,563,862,192,728,
0,745,556,848,190,718,
0,735,550,835,188,708,
0,724,543,824,187,699,
0,716,539,812,185,690,
0,704,533,799,184,727,
0,785,527,787,190,761,
0,772,523,775,188,750,
0,761,517,766,187,739,
0,750,512,755,185,729,
0,740,508,899,184,719,
0,729,632,907,183,708,
0,719,623,898,181,700,
0,711,614,880,179,690,
0,701,607,866,178,681,
0,690,600,853,184,780,
0,743,591,837,193,764,
0,732,584,824,191,752,
0,721,578,884,190,742,
0,711,571,884,188,732,
0,702,564,870,187,721,
0,692,600,856,184,711,
0,684,591,844,184,702,
0,675,584,831,182,692,
0,667,577,819,180,684,
0,657,571,808,192,769,
0,698,563,793,190,754,
0,688,558,783,188,743,
0,679,551,773,187,733,
0,670,545,763,185,723,
0,661,595,753,184,713,
0,652,670,743,182,704,
0,646,660,896,180,694,
0,638,652,907,179,685,
0,631,643,898,177,676,
0,622,636,880,191,748,
0,738,627,863,188,734,
0,728,619,850,187,723,
0,717,611,837,185,713,
0,707,604,897,184,704,
0,699,684,888,183,695,
0,689,803,871,180,686,
0,679,791,859,179,676,
0,671,779,846,178,668,
0,664,768,833,176,660,
0,653,756,822,201,760,
0,651,745,807,199,745,
0,643,735,805,198,735,
0,636,725,903,195,724,
0,628,715,907,195,714,
0,621,704,891,192,704,
0,614,695,875,191,696,
0,607,686,862,189,686,
0,600,677,849,188,677,
0,593,668,836,187,718,
0,674,661,824,198,761,
0,731,652,809,196,747,
0,720,644,799,195,736,
0,711,637,902,193,726,
0,701,630,911,192,716,
0,691,620,913,190,706,
0,682,614,908,188,696,
0,673,607,885,186,688,
0,665,600,871,185,679,
0,657,593,858,185,775,
0,671,587,846,204,763,
0,663,580,830,201,748,
0,654,574,847,199,738,
0,646,568,905,198,728,
0,638,562,911,196,718,
0,631,555,915,195,708,
0,623,549,918,193,699,
0,615,543,915,192,689,
0,609,537,893,190,679,
0,602,532,877,224,786,
0,743,527,863,221,774,
0,732,521,847,219,759,
0,721,517,888,217,748,
0,711,512,906,216,737,
0,702,545,897,214,728,
0,692,652,879,211,717,
0,684,643,865,209,707,
0,675,634,851,207,698,
0,666,626,839,207,689,
0,658,619,828,214,789,
0,816,611,812,211,775,
0,802,603,801,209,762,
0,790,595,791,207,751,
0,779,588,780,206,740,
0,768,633,771,204,731,
0,757,703,760,203,719,
0,747,692,751,200,711,
0,736,683,742,199,701,
0,727,673,732,198,692,
0,718,665,723,214,784,
0,878,656,712,211,772,
0,863,647,704,209,758,
0,849,639,696,207,748,
0,836,632,688,206,737,
0,824,624,680,204,727,
0,812,615,673,203,716,
0,799,608,665,200,707,
0,788,601,659,199,698,
0,777,594,652,198,725,
0,768,588,644,227,777,
0,754,580,636,225,765,
0,743,574,629,224,752,
0,734,568,625,222,742,
0,726,562,828,220,731,
0,716,556,815,218,720,
0,707,548,803,216,711,
0,698,543,792,214,701,
0,689,537,780,212,692,
0,681,531,769,215,780,
0,729,526,760,237,774,
0,776,519,746,235,762,
0,766,515,736,233,748,
0,755,510,728,231,737,
0,743,505,719,230,728,
0,734,637,894,227,718,
0,723,625,908,225,707,
0,714,617,911,223,699,
0,704,609,899,222,689,
0,696,602,880,246,769,
0,796,595,866,243,756,
0,780,587,849,240,745,
0,768,580,837,238,732,
0,758,574,825,236,722,
0,747,568,814,234,712,
0,736,681,803,231,703,
0,727,669,792,230,694,
0,717,660,781,228,684,
0,707,652,771,227,675,
0,699,643,761,236,772,
0,727,635,752,233,760,
0,718,627,739,231,749,
0,707,620,731,230,736,
0,699,612,826,228,726,
0,688,604,812,226,716,
0,679,614,799,225,705,
0,671,604,788,222,696,
0,664,596,777,220,688,
0,655,590,767,219,679,
0,649,583,757,244,778,
0,745,575,746,241,766,
0,732,569,734,240,755,
0,721,563,724,237,741,
0,711,556,716,236,732,
0,702,679,880,233,721,
0,692,775,907,231,711,
0,684,760,912,229,701,
0,675,749,916,227,692,
0,665,738,915,225,719,
0,668,728,903,245,775,
0,831,718,880,243,764,
0,815,708,864,240,750,
0,803,699,851,239,739,
0,792,689,839,237,729,
0,780,736,827,235,719,
0,768,798,815,232,709,
0,758,782,803,231,700,
0,748,771,793,228,691,
0,737,760,783,227,783,
0,739,748,772,240,779,
0,764,737,762,238,768,
0,751,728,882,236,753,
0,740,718,879,234,743,
0,729,708,864,231,733,
0,719,699,851,231,723,
0,711,690,901,228,712,
0,702,679,889,226,704,
0,692,671,874,224,694,
0,684,663,861,263,782,
0,805,654,847,259,769,
0,822,647,835,257,758,
0,806,639,831,254,743,
0,795,632,820,252,734,
0,783,638,809,250,723,
0,771,828,797,248,714,
0,761,814,787,246,704,
0,751,798,776,243,696,
0,740,786,766,241,686,
0,731,775,756,264,767,
0,747,764,747,262,755,
0,736,752,737,259,743,
0,723,742,726,257,731,
0,713,732,717,255,720,
0,704,722,708,253,711,
0,696,764,700,251,701,
0,687,752,692,248,691,
0,678,739,684,247,683,
0,670,728,676,244,674,
0,663,719,669,265,737,
0,835,709,696,263,727,
0,821,700,892,261,716,
0,805,691,875,259,704,
0,793,682,861,255,694,
0,782,673,847,254,685,
0,771,665,835,252,676,
0,760,657,824,250,668,
0,750,647,811,248,659,
0,739,639,799,246,684,
0,729,632,789,259,752,
0,719,625,778,257,742,
0,708,617,768,255,731,
0,700,611,903,252,718,
0,691,604,911,251,708,
0,683,598,915,248,699,
0,674,591,918,247,689,
0,665,584,919,244,679,
0,658,577,911,241,671,
0,650,571,886,240,751,
0,694,565,871,252,758,
0,753,559,859,251,747,
0,739,553,846,248,736,
0,729,547,831,247,723,
0,719,542,820,244,713,
0,710,786,808,242,704,
0,700,787,798,240,694,
0,691,775,860,239,685,
0,682,761,847,236,676,
0,673,750,834,265,761,
0,665,739,821,263,750,
0,656,728,809,260,739,
0,647,719,798,257,728,
0,639,710,784,255,716,
0,632,700,844,254,706,
0,625,711,852,251,696,
0,618,700,839,249,688,
0,611,691,826,248,679,
0,605,679,814,244,670,
0,599,671,802,246,761,
0,652,664,791,243,750,
0,643,655,780,241,739,
0,632,647,769,239,728,
0,624,639,757,238,716,
0,616,632,748,236,705,
0,609,752,739,233,696,
0,601,740,729,231,687,
0,595,730,720,231,679,
0,588,717,711,228,670,
0,583,707,704,243,735,
0,671,697,696,241,723,
0,664,688,687,239,713,
0,652,679,679,237,704,
0,644,671,670,235,692,
0,636,755,696,233,684,
0,628,812,827,231,674,
0,620,799,814,230,665,
0,612,783,801,227,657,
0,606,772,790,226,683,
0,599,761,779,258,730,
0,707,750,768,255,719,
0,697,739,758,253,710,
0,685,729,748,251,700,
0,676,719,736,249,688,
0,668,780,727,247,679,
0,659,768,717,244,670,
0,651,755,708,243,662,
0,643,742,700,241,654,
0,635,732,691,247,740,
0,684,721,683,271,731,
0,892,711,675,268,719,
0,879,703,733,266,710,
0,861,693,729,263,700,
0,847,684,716,262,689,
0,835,675,707,259,679,
0,822,668,697,257,671,
0,810,659,689,255,662,
0,799,649,679,253,654,
0,787,642,671,271,738,
0,776,634,664,268,727,
0,766,627,694,265,716,
0,755,620,894,263,706,
0,743,612,908,261,696,
0,733,606,911,259,684,
0,723,708,892,256,675,
0,715,698,876,254,667,
0,705,688,863,252,659,
0,696,676,850,250,650,
0,688,668,881,275,728,
0,679,659,866,271,717,
0,671,651,852,270,707,
0,664,643,839,267,696,
0,654,635,824,264,688,
0,647,660,814,263,676,
0,639,835,801,260,668,
0,632,820,791,258,659,
0,625,807,780,255,651,
0,618,792,770,254,643,
0,611,782,760,259,743,
0,790,769,751,257,732,
0,776,759,741,255,721,
0,766,748,732,252,711,
0,752,738,824,251,702,
0,742,792,819,248,689,
0,731,824,807,247,680,
0,721,811,796,244,671,
0,711,799,783,243,664,
0,703,783,774,240,691,
0,694,772,763,259,757,
0,684,761,752,257,745,
0,675,751,742,255,735,
0,668,740,733,253,724,
0,657,730,721,251,715,
0,651,867,713,248,703,
0,643,872,704,247,694,
0,635,857,696,245,684,
0,627,844,688,243,675,
0,620,828,679,241,752,
0,614,815,671,259,748,
0,607,803,664,257,737,
0,600,791,657,255,727,
0,594,780,809,252,716,
0,586,768,797,251,707,
0,579,758,785,248,695,
0,574,748,774,247,686,
0,568,737,764,244,677,
0,563,728,753,243,668,
0,557,716,743,275,759,
0,657,707,733,271,747,
0,647,697,723,270,736,
0,639,689,714,268,725,
0,631,679,705,265,715,
0,621,671,887,263,705,
0,613,751,907,260,694,
0,606,739,911,259,684,
0,599,728,902,255,675,
0,591,719,881,254,667,
0,585,707,868,280,775,
0,578,696,855,276,762,
0,572,688,841,273,751,
0,566,679,829,271,740,
0,560,670,817,269,730,
0,551,662,804,267,720,
0,546,736,793,263,707,
0,541,725,782,262,698,
0,536,715,771,260,689,
0,530,704,761,258,679,
0,526,694,752,284,763,
0,613,684,743,281,751,
0,605,675,733,280,740,
0,598,665,724,276,729,
0,590,657,716,274,719,
0,582,716,704,271,707,
0,575,801,696,270,698,
0,568,788,688,268,689,
0,561,775,679,265,679,
0,556,765,671,263,697,
0,569,752,664,291,760,
0,686,740,657,287,749,
0,676,731,649,285,738,
0,667,720,643,283,728,
0,658,711,694,280,718,
0,647,702,822,278,705,
0,639,692,809,275,696,
0,632,683,798,273,687,
0,624,675,786,271,678,
0,617,666,775,269,748,
0,659,656,765,289,751,
0,742,647,754,287,739,
0,730,639,743,284,729,
0,720,633,735,281,719,
0,711,626,725,280,710,
0,698,696,713,276,697,
0,689,686,704,275,688,
0,679,676,696,272,679,
0,671,667,688,270,671,
0,664,658,679,268,756,
0,655,647,671,284,744,
0,647,639,664,281,734,
0,639,632,655,279,723,
0,632,624,647,276,713,
0,625,616,641,274,704,
0,615,779,799,271,692,
0,608,765,897,270,683,
0,601,753,881,268,674,
0,595,743,867,265,665,
0,588,732,855,287,757,
0,664,719,840,287,745,
0,655,710,828,284,734,
0,646,700,816,281,724,
0,638,691,805,280,714,
0,630,699,794,277,704,
0,620,792,880,275,692,
0,612,780,873,272,684,
0,606,768,859,270,675,
0,598,756,846,268,666,
0,591,746,834,291,760,
0,704,732,821,287,748,
0,694,722,809,284,736,
0,685,713,884,281,727,
0,675,704,879,280,716,
0,667,782,865,277,707,
0,655,811,848,275,695,
0,647,798,835,272,686,
0,639,785,824,270,676,
0,632,774,812,268,681,
0,625,764,801,300,742,
0,745,749,789,295,731,
0,734,738,778,294,720,
0,723,728,768,291,711,
0,713,719,758,288,701,
0,702,792,748,286,691,
0,692,783,736,284,679,
0,684,772,728,281,671,
0,675,761,719,279,663,
0,667,750,710,277,736,
0,695,739,701,305,748,
0,752,727,692,301,737,
0,740,716,684,298,727,
0,730,707,676,295,716,
0,719,697,669,294,707,
0,708,772,782,291,697,
0,699,760,843,287,686,
0,689,748,830,286,676,
0,680,737,817,284,668,
0,671,728,806,281,768,
0,664,717,793,308,755,
0,655,704,783,304,743,
0,647,696,772,302,734,
0,639,687,895,299,723,
0,632,678,909,296,713,
0,624,751,913,294,704,
0,615,739,907,291,691,
0,609,728,884,289,683,
0,603,719,870,287,674,
0,595,708,857,301,782,
0,755,699,844,303,769,
0,743,687,901,299,758,
0,734,678,896,296,748,
0,723,670,878,295,737,
0,713,662,864,291,728,
0,701,799,851,289,716,
0,692,786,835,287,704,
0,684,774,824,284,696,
0,675,763,812,281,686,
0,667,752,801,311,772,
0,775,742,790,307,760,
0,764,728,780,304,749,
0,752,718,769,301,739,
0,742,708,760,299,728,
0,732,788,750,295,719,
0,719,900,740,294,708,
0,710,903,728,291,697,
0,700,884,719,288,688,
0,691,869,711,286,679,
0,689,856,704,315,763,
0,838,839,694,312,751,
0,824,825,686,307,740,
0,812,813,679,305,730,
0,799,801,788,303,720,
0,788,804,902,300,710,
0,774,792,910,297,700,
0,763,780,914,295,689,
0,752,769,908,292,679,
0,743,759,886,290,739,
0,774,748,871,310,766,
0,763,736,858,307,755,
0,752,726,846,303,743,
0,741,716,833,300,733,
0,731,707,822,297,723,
0,721,698,892,295,713,
0,710,689,879,292,704,
0,700,680,862,291,692,
0,692,672,848,287,684,
0,684,665,836,286,769,
0,792,657,824,310,756,
0,783,647,812,307,745,
0,771,639,799,303,735,
0,760,632,790,300,724,
0,750,625,779,298,715,
0,739,657,769,295,705,
0,727,648,759,292,696,
0,717,639,748,290,684,
0,708,632,738,287,675,
0,699,624,729,302,761,
0,792,616,719,305,750,
0,780,608,711,303,739,
0,768,601,702,300,728,
0,758,595,694,296,718,
0,747,588,687,295,709,
0,736,723,679,291,699,
0,723,712,668,289,689,
0,714,702,661,287,679,
0,705,692,654,284,670,
0,696,684,647,303,754,
0,763,674,639,300,743,
0,751,664,632,297,732,
0,740,655,626,294,721,
0,731,647,620,291,711,
0,720,734,614,289,702,
0,711,831,607,287,692,
0,699,819,600,284,684,
0,689,806,593,281,672,
0,681,794,588,280,668,
0,673,783,582,297,755,
0,669,771,575,295,743,
0,661,757,571,291,734,
0,653,747,566,289,723,
0,646,736,560,287,713,
0,638,787,627,284,704,
0,632,774,726,281,694,
0,622,761,713,280,685,
0,615,751,704,277,674,
0,608,740,695,275,735,
0,635,730,686,301,755,
0,742,719,676,297,744,
0,731,708,815,295,734,
0,720,699,803,291,723,
0,711,689,792,289,713,
0,702,740,780,287,704,
0,691,729,769,284,695,
0,680,719,755,283,685,
0,671,708,745,280,674,
0,664,699,736,278,766,
0,655,689,727,301,753,
0,647,680,717,298,742,
0,639,670,728,295,732,
0,632,662,718,292,721,
0,624,654,709,290,711,
0,617,731,700,287,702,
0,611,719,691,285,692,
0,601,708,680,283,683,
0,595,699,671,280,671,
0,588,689,665,297,761,
0,677,679,657,304,750,
0,668,671,649,302,739,
0,659,660,642,298,728,
0,649,652,635,295,719,
0,641,644,628,294,709,
0,633,636,621,291,699,
0,626,629,614,287,690,
0,615,622,606,286,681,
0,609,615,600,284,670,
0,602,608,593,312,768,
0,598,601,588,308,756,
0,591,595,582,305,745,
0,583,587,575,302,735,
0,578,580,569,300,724,
0,572,653,564,297,715,
0,567,795,558,295,704,
0,560,782,553,292,696,
0,553,770,547,289,684,
0,547,759,542,287,675,
0,543,748,536,310,752,
0,569,737,550,307,740,
0,562,727,616,304,729,
0,556,715,608,300,719,
0,548,705,601,298,710,
0,543,755,595,295,700,
0,537,798,588,292,691,
0,531,785,580,291,681,
0,525,774,573,287,671,
0,519,761,566,286,734,
0,572,752,560,292,750,
0,636,740,553,289,739,
0,628,730,547,287,728,
0,620,718,542,284,718,
0,612,707,536,281,708,
0,605,819,531,280,699,
0,598,806,527,278,689,
0,591,793,741,275,680,
0,583,781,727,272,670,
0,575,769,717,271,755,
0,569,759,707,282,743,
0,563,748,697,280,732,
0,556,737,688,278,721,
0,551,725,679,274,711,
0,544,715,671,271,703,
0,539,883,749,270,692,
0,533,900,737,268,684,
0,527,883,728,265,675,
0,520,867,716,263,664,
0,515,854,707,282,765,
0,647,839,697,288,752,
0,637,827,688,286,742,
0,628,815,679,283,732,
0,620,799,671,280,721,
0,613,788,664,278,711,
0,606,776,655,275,702,
0,598,766,647,273,692,
0,591,755,639,271,684,
0,583,745,632,268,672,
0,575,736,624,299,765,
0,655,726,617,295,753,
0,647,716,610,292,742,
0,639,707,604,289,732,
0,631,696,597,287,721,
0,623,706,591,284,711,
0,615,793,583,281,702,
0,608,781,578,280,692,
0,600,769,572,277,684,
0,591,759,566,275,671,
0,585,748,560,292,747,
0,697,737,553,289,736,
0,688,728,638,287,726,
0,678,717,629,285,716,
0,669,704,621,281,706,
0,660,751,670,280,696,
0,652,739,803,276,687,
0,644,728,790,275,678,
0,634,717,779,272,669,
0,627,707,766,270,712,
0,639,698,755,300,752,
0,686,688,744,295,741,
0,676,679,735,294,730,
0,668,671,725,291,719,
0,659,662,716,287,710,
0,651,769,707,286,700,
0,642,757,698,283,691,
0,635,745,689,280,682,
0,625,735,681,279,673,
0,617,724,671,276,768,
0,725,715,664,295,755,
0,743,704,655,294,743,
0,734,696,647,291,732,
0,723,686,641,288,722,
0,713,675,633,286,712,
0,704,779,627,283,703,
0,695,767,620,280,694,
0,686,755,614,279,684,
0,675,744,607,276,675,
0,667,734,600,279,776,
0,771,723,592,295,764,
0,758,713,586,292,753,
0,747,704,580,290,742,
0,736,695,574,287,732,
0,727,683,568,284,721,
0,716,674,563,283,711,
0,707,665,557,280,702,
0,697,657,551,278,693,
0,687,649,546,275,684,
0,678,643,540,309,771,
0,702,635,535,305,760,
0,692,627,529,303,748,
0,684,620,524,300,737,
0,674,614,519,297,728,
0,665,630,515,294,718,
0,657,758,511,291,707,
0,649,745,506,289,697,
0,642,735,502,287,689,
0,633,724,497,284,679,
0,626,716,492,312,769,
0,788,704,487,308,758,
0,775,696,483,306,747,
0,764,686,480,304,736,
0,753,675,476,300,726,
0,743,733,472,297,716,
0,733,763,468,295,706,
0,723,751,463,292,696,
0,713,739,460,289,688,
0,702,729,456,287,679,
0,694,719,452,307,771,
0,691,710,448,304,760,
0,682,700,445,302,749,
0,673,691,510,299,739,
0,665,679,504,295,728,
0,658,813,578,293,719,
0,649,799,569,291,708,
0,642,786,563,288,699,
0,634,775,556,286,690,
0,625,764,550,284,720,
0,716,752,542,305,771,
0,705,742,536,302,759,
0,696,731,531,300,748,
0,686,721,524,297,737,
0,676,710,569,295,728,
0,668,816,718,291,717,
0,659,803,707,289,707,
0,651,791,697,287,697,
0,643,779,688,284,689,
0,633,768,679,292,731,
0,765,756,668,307,716,
0,752,745,660,305,706,
0,740,736,652,303,696,
0,731,725,644,300,687,
0,720,712,638,297,678,
0,711,704,636,294,670,
0,701,695,647,291,662,
0,692,686,639,289,653,
0,684,677,632,287,646,
0,673,668,623,315,743,
0,665,659,615,312,728,
0,657,652,608,308,719,
0,649,644,601,306,708,
0,641,636,595,304,699,
0,635,627,588,300,689,
0,627,620,583,297,680,
0,620,614,575,295,671,
0,612,606,571,292,664,
0,606,600,564,290,655,
0,599,594,558,313,753,
0,735,587,551,310,738,
0,724,580,546,307,728,
0,714,575,540,304,718,
0,704,568,536,302,707,
0,695,624,531,299,698,
0,686,646,525,295,689,
0,676,637,519,294,679,
0,668,628,515,291,671,
0,659,620,510,288,663,
0,659,614,504,312,750,
0,710,605,499,310,736,
0,700,598,495,307,725,
0,690,591,491,304,716,
0,681,583,486,301,705,
0,672,700,547,299,696,
0,664,728,625,295,687,
0,655,717,617,292,678,
0,647,707,609,291,669,
0,639,696,601,287,692,
0,712,688,593,307,747,
0,701,678,586,304,732,
0,691,669,579,301,723,
0,683,660,574,298,711,
0,673,652,567,295,704,
0,665,851,699,292,694,
0,655,835,798,290,684,
0,647,822,785,287,675,
0,639,809,775,286,667,
0,632,797,764,284,751,
0,766,785,750,304,752,
0,753,774,739,300,737,
0,743,763,731,299,728,
0,732,752,721,295,718,
0,722,742,711,294,707,
0,711,780,772,290,699,
0,703,768,886,287,688,
0,694,756,870,285,679,
0,684,745,856,283,671,
0,676,736,844,305,769,
0,803,724,828,302,758,
0,791,715,816,299,743,
0,779,706,804,295,733,
0,768,696,793,294,723,
0,758,731,783,291,712,
0,747,896,772,288,704,
0,736,880,762,286,694,
0,727,865,752,284,684,
0,717,851,743,281,676,
0,707,839,734,312,769,
0,776,825,721,307,755,
0,764,812,712,305,743,
0,753,799,704,302,734,
0,743,788,696,300,723,
0,733,777,860,297,713,
0,723,828,903,294,704,
0,713,816,891,291,694,
0,704,803,875,288,686,
0,696,792,861,287,676,
0,687,780,848,300,786,
0,675,768,833,297,771,
0,668,758,820,294,760,
0,659,748,809,291,749,
0,652,737,799,289,739,
0,644,728,787,287,728,
0,636,716,776,284,719,
0,630,706,767,281,708,
0,622,697,757,279,700,
0,615,689,748,277,716,
0,615,680,738,310,775,
0,672,671,726,307,760,
0,664,664,718,304,749,
0,655,655,708,301,739,
0,647,648,700,299,728,
0,639,719,692,295,718,
0,631,706,684,292,708,
0,623,696,676,290,699,
0,615,687,668,287,690,
0,608,678,661,287,769,
0,679,668,654,310,766,
0,733,659,644,307,752,
0,723,652,638,304,742,
0,713,643,632,302,731,
0,704,636,624,299,721,
0,695,812,851,295,711,
0,684,798,851,294,702,
0,676,785,838,291,692,
0,668,774,825,288,684,
0,659,763,814,318,771,
0,727,751,801,314,759,
0,713,740,787,312,745,
0,704,731,776,308,735,
0,694,720,766,305,724,
0,684,711,756,303,715,
0,675,859,799,300,705,
0,667,840,787,297,696,
0,659,827,776,295,687,
0,651,814,766,292,678,
0,643,803,756,295,789,
0,759,790,745,293,776,
0,743,778,734,291,762,
0,734,768,723,287,751,
0,723,756,715,286,740,
0,713,746,707,284,731,
0,704,841,807,281,719,
0,695,824,796,279,711,
0,686,811,783,276,701,
0,678,799,772,274,692,
0,669,787,763,304,779,
0,762,775,752,300,768,
0,751,764,739,297,753,
0,740,753,729,295,742,
0,730,743,719,292,732,
0,720,771,711,290,721,
0,710,844,702,287,711,
0,700,828,694,284,702,
0,691,815,686,282,693,
0,683,802,678,280,716,
0,706,791,670,307,787,
0,783,778,662,305,775,
0,772,768,652,302,761,
0,761,756,645,299,751,
0,751,745,638,296,740,
0,741,826,741,294,729,
0,730,845,729,291,719,
0,720,828,719,288,710,
0,711,815,710,286,700,
0,702,803,700,284,779,
0,745,791,691,312,780,
0,763,779,683,310,768,
0,752,768,671,307,755,
0,742,756,664,304,743,
0,732,746,656,301,734,
0,721,736,818,299,723,
0,711,726,804,295,713,
0,702,714,792,293,704,
0,693,705,782,291,696,
0,684,696,771,312,787,
0,750,688,760,309,775,
0,736,679,750,306,763,
0,725,670,737,304,750,
0,715,662,728,301,739,
0,705,655,816,299,728,
0,696,766,903,295,719,
0,687,754,911,293,708,
0,679,740,915,290,700,
0,670,729,912,287,690,
0,662,719,892,311,779,
0,736,710,875,307,766,
0,723,700,862,304,755,
0,712,691,846,302,742,
0,704,681,833,299,732,
0,694,673,822,295,721,
0,684,808,811,294,711,
0,675,792,799,291,702,
0,667,780,788,287,692,
0,659,769,779,286,684,
0,652,758,768,304,763,
0,734,747,758,302,752,
0,721,736,748,299,740,
0,711,727,737,295,728,
0,701,716,728,294,717,
0,692,729,719,291,707,
0,683,756,711,288,698,
0,673,743,702,286,689,
0,665,732,694,284,679,
0,657,721,686,281,690,
0,670,711,679,307,758,
0,792,702,670,304,747,
0,775,692,663,302,736,
0,764,684,653,299,723,
0,754,675,646,295,713,
0,743,772,639,294,704,
0,733,816,632,291,695,
0,723,800,625,289,686,
0,714,788,620,286,676,
0,704,776,613,284,748,
0,767,766,607,305,756,
0,811,755,600,303,745,
0,796,743,594,300,735,
0,783,734,587,297,721,
0,773,723,581,295,711,
0,762,877,761,292,702,
0,751,899,750,289,692,
0,740,877,739,287,684,
0,731,863,729,284,675,
0,721,849,719,312,769,
0,804,835,710,309,756,
0,792,823,700,306,745,
0,776,810,689,304,735,
0,766,798,681,300,721,
0,755,787,673,298,711,
0,744,819,878,295,702,
0,734,805,862,292,693,
0,724,790,848,291,684,
0,715,779,835,287,675,
0,706,768,824,301,772,
0,737,756,812,299,760,
0,727,746,799,295,750,
0,714,736,786,293,739,
0,704,727,775,291,726,
0,696,718,809,287,716,
0,687,847,876,286,706,
0,678,833,861,284,696,
0,670,817,848,281,688,
0,662,804,835,278,679,
0,654,793,824,312,780,
0,692,781,811,310,768,
0,683,769,799,306,757,
0,671,759,786,304,747,
0,663,748,775,301,733,
0,655,738,766,299,723,
0,647,728,755,295,713,
0,639,719,745,294,704,
0,632,707,736,291,695,
0,624,698,727,287,696,
0,628,689,719,295,761,
0,728,680,709,291,750,
0,718,671,700,289,739,
0,705,664,690,287,728,
0,696,655,681,284,716,
0,687,732,674,282,706,
0,678,788,667,280,696,
0,668,775,659,278,688,
0,660,761,652,275,679,
0,652,750,644,273,743,
0,712,740,638,306,758,
0,789,729,630,303,747,
0,777,719,624,300,736,
0,763,710,615,297,726,
0,752,700,608,295,713,
0,742,691,603,293,704,
0,732,682,596,290,694,
0,722,673,590,287,685,
0,712,664,583,285,676,
0,704,655,579,297,779,
0,755,647,572,294,766,
0,743,639,568,291,755,
0,734,632,561,289,743,
0,720,625,555,287,734,
0,711,618,550,284,721,
0,701,740,544,281,711,
0,692,728,540,280,702,
0,684,718,535,277,692,
0,675,705,529,274,683,
0,667,696,526,307,771,
0,766,687,519,303,759,
0,754,678,515,300,748,
0,743,668,511,297,737,
0,731,659,505,295,724,
0,720,668,501,292,715,
0,711,856,496,290,704,
0,701,841,492,287,696,
0,692,827,487,285,687,
0,684,812,483,281,678,
0,675,799,480,312,769,
0,748,787,476,308,758,
0,737,775,472,305,746,
0,728,764,467,304,736,
0,715,754,463,300,723,
0,705,743,460,298,713,
0,696,734,455,295,704,
0,687,723,451,293,694,
0,678,714,448,291,685,
0,669,703,445,287,685,
0,666,694,441,307,774,
0,771,684,438,305,761,
0,759,676,434,302,750,
0,748,668,431,300,739,
0,735,659,427,295,728,
0,726,793,423,294,717,
0,715,792,419,291,707,
0,705,779,417,289,697,
0,696,768,414,287,688,
0,688,753,411,284,748,
0,728,743,408,300,775,
0,747,732,404,295,763,
0,736,723,401,294,752,
0,727,712,399,291,742,
0,713,704,415,289,729,
0,704,781,593,286,719,
0,695,768,585,284,708,
0,686,757,577,281,699,
0,677,746,571,280,690,
0,668,733,564,305,779,
0,797,723,558,310,766,
0,829,712,551,307,755,
0,816,703,545,304,743,
0,804,694,641,301,734,
0,789,685,651,299,721,
0,777,789,642,295,711,
0,768,775,633,294,701,
0,756,764,626,291,692,
0,746,753,619,288,684,
0,736,740,612,317,771,
0,789,729,604,313,760,
0,777,719,598,311,748,
0,766,710,591,307,737,
0,755,700,584,305,728,
0,742,691,576,303,715,
0,732,744,570,300,705,
0,722,734,564,297,696,
0,712,723,559,295,687,
0,704,712,552,292,678,
0,696,700,547,300,775,
0,809,691,541,297,763,
0,797,681,536,295,751,
0,785,673,530,292,740,
0,771,664,525,290,730,
0,760,691,551,287,718,
0,750,790,544,285,708,
0,739,777,539,283,699,
0,729,766,532,280,689,
0,719,755,527,279,689,
0,711,742,521,304,771,
0,815,731,515,302,760,
0,802,721,511,299,749,
0,790,711,505,295,738,
0,775,702,501,294,728,
0,765,802,496,291,716,
0,754,859,491,288,705,
0,743,844,486,287,696,
0,734,831,481,284,688,
0,724,818,478,281,742,
0,774,802,473,301,767,
0,804,790,468,299,755,
0,792,779,464,295,743,
0,781,768,460,294,734,
0,768,757,455,291,723,
0,756,747,451,287,711,
0,745,736,448,286,702,
0,736,727,444,284,692,
0,726,717,440,281,684,
0,716,707,436,279,785,
0,756,696,432,305,772,
0,744,688,429,302,760,
0,734,679,425,300,750,
0,724,671,455,296,739,
0,711,663,572,295,729,
0,702,882,563,291,716,
0,694,866,557,289,707,
0,685,852,551,287,697,
0,676,839,544,284,688,
0,668,825,539,300,783,
0,757,809,532,317,770,
0,745,797,527,315,759,
0,735,785,521,312,748,
0,724,775,516,308,737,
0,712,788,511,306,728,
0,703,900,635,304,715,
0,694,899,627,300,705,
0,684,880,619,298,696,
0,675,865,611,295,687,
0,668,849,604,316,783,
0,725,835,596,312,771,
0,715,822,748,310,759,
0,704,809,736,307,748,
0,695,798,726,304,737,
0,683,787,716,302,728,
0,675,775,704,299,715,
0,665,764,696,296,705,
0,657,754,687,294,696,
0,650,743,678,291,688,
0,664,732,670,314,764,
0,818,721,662,310,752,
0,805,712,654,307,742,
0,792,704,646,304,732,
0,781,695,639,302,721,
0,768,755,632,299,711,
0,756,752,623,296,700,
0,747,740,615,294,690,
0,736,729,609,291,681,
0,727,719,603,289,737,
0,718,707,596,306,755,
0,707,697,590,303,743,
0,699,688,583,300,734,
0,690,679,577,297,723,
0,681,671,572,295,713,
0,671,791,571,292,704,
0,663,777,563,289,691,
0,655,766,557,287,683,
0,647,755,551,285,674,
0,639,743,547,283,751,
0,669,731,541,297,739,
0,660,720,536,295,728,
0,651,711,530,291,718,
0,643,701,526,289,708,
0,635,691,519,287,699,
0,626,859,617,284,689,
0,619,843,609,282,678,
0,611,830,601,280,669,
0,605,816,594,278,662,
0,599,804,588,295,733,
0,748,789,580,297,722,
0,736,777,574,294,711,
0,726,767,568,291,702,
0,716,756,561,288,692,
0,706,746,622,287,684,
0,694,898,801,284,674,
0,685,902,790,281,664,
0,676,883,778,280,655,
0,668,867,768,277,647,
0,659,854,757,300,739,
0,749,836,747,297,728,
0,738,824,736,294,718,
0,728,812,785,291,707,
0,718,799,774,289,697,
0,707,796,763,287,688,
0,696,896,749,284,679,
0,687,880,739,281,668,
0,679,865,729,280,659,
0,670,851,719,276,652,
0,662,839,711,317,749,
0,787,822,702,313,737,
0,775,808,694,310,728,
0,764,797,685,307,717,
0,753,785,677,304,707,
0,743,775,669,302,697,
0,730,764,659,299,688,
0,719,753,652,295,677,
0,711,743,644,294,668,
0,702,733,638,291,716,
0,753,724,631,319,755,
0,839,711,624,316,743,
0,827,702,616,313,732,
0,814,694,609,311,723,
0,801,685,604,307,713,
0,791,847,816,305,703,
0,775,860,831,302,694,
0,764,846,818,300,681,
0,754,832,806,297,673,
0,743,819,795,295,756,
0,735,807,783,307,743,
0,724,792,772,303,733,
0,715,780,763,300,723,
0,706,769,752,297,713,
0,697,759,743,295,704,
0,689,884,733,292,694,
0,678,868,721,290,684,
0,670,854,711,287,673,
0,662,839,704,286,665,
0,654,827,696,295,760,
0,739,814,687,304,747,
0,728,799,679,300,736,
0,718,787,671,298,726,
0,707,775,664,295,716,
0,698,765,655,293,707,
0,689,884,718,291,696,
0,678,867,723,287,685,
0,669,854,713,286,676,
0,660,839,704,284,668,
0,653,827,695,302,745,
0,675,814,686,299,735,
0,666,799,710,295,724,
0,657,787,896,293,714,
0,648,775,909,290,704,
0,641,842,914,287,695,
0,634,903,916,286,686,
0,625,908,904,284,675,
0,618,892,881,280,666,
0,611,875,868,279,658,
0,605,862,856,312,739,
0,684,847,843,310,728,
0,674,830,831,305,719,
0,665,817,819,304,708,
0,656,806,807,300,699,
0,647,867,796,297,689,
0,639,852,785,295,679,
0,630,838,773,292,670,
0,622,824,764,291,662,
0,615,812,753,287,688,
0,671,800,744,307,715,
0,764,788,735,304,704,
0,752,774,726,300,696,
0,742,764,717,297,686,
0,731,753,708,295,676,
0,721,812,700,292,668,
0,711,799,691,290,659,
0,700,787,681,287,648,
0,691,775,674,285,641,
0,681,764,667,283,742,
0,789,753,659,317,728,
0,808,743,652,314,718,
0,796,729,645,311,707,
0,784,720,653,307,698,
0,774,711,806,305,688,
0,763,805,899,302,679,
0,752,792,907,300,671,
0,739,780,889,297,659,
0,728,768,874,295,652,
0,719,757,862,297,743,
0,803,747,847,319,732,
0,791,736,835,316,721,
0,779,723,824,312,711,
0,768,713,870,310,702,
0,756,704,906,307,692,
0,747,756,910,304,683,
0,736,745,896,302,674,
0,723,734,875,299,664,
0,714,723,861,297,655,
0,705,713,849,327,758,
0,793,704,836,323,745,
0,781,695,824,319,735,
0,769,684,812,317,724,
0,759,675,801,314,715,
0,748,668,792,312,705,
0,738,804,780,308,696,
0,726,792,769,306,687,
0,716,780,758,304,675,
0,707,768,748,301,667,
0,698,758,739,319,756,
0,816,746,729,317,745,
0,803,736,720,314,734,
0,791,723,711,311,723,
0,780,713,704,307,713,
0,768,788,696,305,704,
0,758,853,687,302,695,
0,744,839,679,300,686,
0,734,825,669,297,675,
0,724,813,662,295,708,
0,744,800,655,323,756,
0,814,788,647,319,745,
0,801,777,639,316,734,
0,789,763,633,312,723,
0,777,752,627,310,713,
0,768,856,620,307,704,
0,755,851,613,305,695,
0,743,837,607,302,686,
0,732,824,600,300,675,
0,723,811,593,297,769,
0,803,799,588,307,756,
0,830,787,582,304,745,
0,816,775,575,300,734,
0,804,761,570,297,724,
0,792,751,564,295,715,
0,781,891,559,292,704,
0,769,878,553,290,696,
0,756,864,548,287,686,
0,746,849,543,286,675,
0,736,836,537,293,768,
0,815,824,532,316,756,
0,801,810,527,312,745,
0,790,799,575,310,735,
0,778,783,768,307,724,
0,767,772,755,304,714,
0,756,762,744,301,704,
0,745,752,734,299,696,
0,733,741,724,295,686,
0,723,732,711,294,675,
0,715,722,704,319,769,
0,843,712,694,316,757,
0,828,704,686,312,745,
0,816,692,677,310,736,
0,803,684,668,307,726,
0,792,675,661,304,716,
0,780,787,653,301,705,
0,769,775,646,299,696,
0,755,764,638,295,687,
0,745,752,630,294,676,
0,736,743,623,313,764,
0,845,731,615,310,753,
0,831,721,608,307,742,
0,819,709,602,304,732,
0,806,700,595,301,721,
0,795,820,590,299,711,
0,783,879,583,295,702,
0,772,864,577,294,692,
0,759,849,572,291,684,
0,748,836,564,288,711,
0,801,824,582,312,751,
0,868,811,575,308,739,
0,854,799,569,306,728,
0,841,783,563,304,719,
0,828,772,556,300,708,
0,816,816,551,297,699,
0,803,803,545,295,690,
0,792,791,540,292,681,
0,779,779,600,290,671,
0,768,768,590,287,763,
0,758,756,583,302,753,
0,747,746,575,299,742,
0,737,736,569,295,732,
0,728,723,563,294,721,
0,718,715,556,291,711,
0,710,825,652,288,702,
0,700,810,641,286,691,
0,691,798,632,284,683,
0,681,786,623,281,674,
0,672,774,615,280,766,
0,758,763,608,310,753,
0,746,752,601,307,743,
0,736,742,594,304,732,
0,725,728,588,302,721,
0,716,719,580,299,711,
0,707,895,704,295,703,
0,696,895,812,294,692,
0,688,876,799,291,684,
0,676,862,783,288,675,
0,668,849,774,303,769,
0,765,835,763,300,756,
0,753,822,752,296,745,
0,743,809,742,294,735,
0,732,795,732,291,725,
0,722,783,723,289,716,
0,712,839,894,286,705,
0,703,826,880,284,696,
0,694,814,866,281,687,
0,683,801,849,280,678,
0,674,790,838,313,748,
0,795,777,873,310,737,
0,783,767,907,307,727,
0,771,755,912,304,716,
0,760,743,913,301,707,
0,749,783,902,298,697,
0,739,846,880,295,688,
0,728,831,867,293,679,
0,719,819,855,290,670,
0,707,806,839,287,662,
0,699,795,827,307,755,
0,745,782,815,304,744,
0,734,771,804,301,734,
0,724,760,793,299,723,
0,714,747,783,295,713,
0,705,834,772,293,704,
0,696,845,763,291,695,
0,687,831,752,287,686,
0,678,817,743,286,676,
0,668,806,732,283,681,
0,752,793,723,312,752,
0,777,781,713,308,741,
0,766,770,705,305,731,
0,755,760,697,303,720,
0,743,747,768,300,711,
0,734,892,881,296,701,
0,723,881,867,295,691,
0,714,866,853,291,683,
0,704,852,839,289,674,
0,693,839,824,287,745,
0,711,825,812,317,755,
0,700,812,801,313,745,
0,691,800,790,311,734,
0,681,789,779,308,723,
0,673,775,769,305,714,
0,665,866,759,302,704,
0,657,851,749,300,696,
0,649,838,739,297,686,
0,642,824,730,295,677,
0,633,812,719,318,512,
0,775,799,710,314,752,
0,764,787,702,312,741,
0,752,776,693,308,731,
0,742,766,685,305,720,
0,732,752,677,303,711,
0,721,847,669,300,701,
0,711,833,662,297,691,
0,702,820,655,295,683,
0,693,807,647,292,673,
0,683,796,639,315,768,
0,827,783,632,312,755,
0,814,772,625,309,744,
0,801,761,619,306,734,
0,790,751,612,304,724,
0,778,795,639,300,715,
0,768,847,836,297,704,
0,756,833,824,295,695,
0,745,820,810,292,686,
0,736,807,799,290,677,
0,769,796,785,310,767,
0,849,783,774,307,755,
0,835,772,763,304,744,
0,823,761,753,301,734,
0,811,751,743,299,723,
0,799,739,734,295,713,
0,787,728,724,292,704,
0,775,719,715,290,695,
0,765,710,706,287,686,
0,755,700,697,286,682,
0,796,692,687,301,752,
0,783,683,679,298,740,
0,771,675,671,295,730,
0,760,667,664,293,719,
0,750,659,655,290,710,
0,739,742,647,287,700,
0,729,730,639,284,691,
0,719,719,633,283,682,
0,711,710,627,280,673,
0,702,700,620,278,742,
0,691,691,611,294,765,
0,682,680,605,291,754,
0,674,671,599,287,743,
0,666,664,701,286,733,
0,659,655,874,284,723,
0,651,865,905,280,712,
0,643,850,911,278,703,
0,636,835,915,275,694,
0,628,823,915,273,685,
0,622,810,898,307,777,
0,763,798,875,305,761,
0,751,785,862,302,750,
0,740,775,849,300,739,
0,729,764,836,296,729,
0,719,753,825,295,719,
0,710,884,862,291,709,
0,700,868,848,288,700,
0,691,854,835,286,691,
0,683,839,824,284,681,
0,671,828,812,307,785,
0,787,814,798,304,769,
0,775,802,787,302,758,
0,764,790,776,299,747,
0,753,779,767,295,736,
0,743,768,844,294,727,
0,733,872,905,291,716,
0,723,857,911,287,707,
0,713,844,910,286,697,
0,704,831,891,284,688,
0,696,818,876,305,773,
0,771,805,859,303,759,
0,760,793,846,300,748,
0,749,782,833,297,737,
0,739,771,822,295,727,
0,728,788,864,292,717,
0,719,855,906,289,707,
0,708,840,912,287,697,
0,700,827,915,284,688,
0,691,814,908,281,685,
0,752,802,884,304,771,
0,768,790,867,301,757,
0,758,779,854,299,746,
0,747,768,841,295,736,
0,736,756,830,293,726,
0,726,799,818,291,716,
0,716,783,807,287,705,
0,707,771,796,286,696,
0,697,760,785,283,688,
0,688,750,775,280,750,
0,678,739,765,297,782,
0,669,729,752,294,768,
0,661,719,743,291,756,
0,653,711,734,289,745,
0,646,701,726,287,735,
0,638,692,716,284,724,
0,631,681,707,281,715,
0,623,673,699,279,705,
0,616,665,691,276,696,
0,610,658,684,305,783,
0,724,650,675,302,771,
0,713,642,666,299,758,
0,704,635,799,295,747,
0,694,627,786,294,736,
0,684,620,775,291,726,
0,675,745,764,289,716,
0,667,734,753,286,706,
0,659,723,743,284,696,
0,651,713,733,281,688,
0,643,704,724,312,780,
0,749,694,715,308,768,
0,738,684,704,305,753,
0,728,675,695,303,742,
0,718,667,686,300,732,
0,707,659,678,297,722,
0,698,760,670,295,711,
0,689,748,662,292,703,
0,679,736,655,289,693,
0,671,726,647,287,684,
0,664,716,639,300,771,
0,653,706,633,297,760,
0,646,696,625,295,745,
0,638,688,619,292,736,
0,630,679,612,289,725,
0,624,702,606,287,715,
0,615,742,600,284,705,
0,608,731,593,281,696,
0,601,720,588,280,687,
0,595,710,582,278,678,
0,590,701,575,316,758,
0,710,691,570,312,746,
0,700,681,563,309,732,
0,691,673,558,307,722,
0,681,664,552,304,712,
0,673,736,547,301,703,
0,664,722,542,298,694,
0,655,711,537,295,684,
0,647,702,532,293,675,
0,639,692,527,291,736,
0,668,683,523,319,761,
0,702,673,516,316,751,
0,692,664,512,313,737,
0,683,656,508,311,727,
0,674,647,503,308,717,
0,665,745,499,305,707,
0,656,731,494,303,697,
0,648,719,490,300,688,
0,641,710,486,297,679,
0,633,700,482,311,751,
0,737,691,478,307,738,
0,734,681,472,304,728,
0,723,671,468,302,715,
0,713,664,465,299,705,
0,704,655,461,296,696,
0,695,745,457,294,686,
0,685,731,454,291,678,
0,676,719,450,288,668,
0,668,710,446,286,660,
0,659,700,443,312,760,
0,753,691,440,308,748,
0,739,681,435,305,737,
0,728,671,432,303,724,
0,718,664,428,300,714,
0,708,655,424,297,705,
0,699,769,457,295,696,
0,689,755,452,292,686,
0,680,743,448,289,677,
0,671,733,444,287,668,
0,664,723,440,307,766,
0,771,712,435,304,754,
0,756,703,430,301,743,
0,745,694,425,298,730,
0,735,684,422,295,719,
0,726,711,465,294,711,
0,716,812,496,291,700,
0,705,796,490,287,691,
0,696,784,484,285,682,
0,688,772,480,283,673,
0,679,762,475,312,766,
0,777,751,470,308,754,
0,763,740,463,305,743,
0,752,729,479,303,729,
0,742,719,539,300,720,
0,732,841,634,297,710,
0,721,849,625,295,700,
0,711,831,617,291,691,
0,702,819,609,289,682,
0,694,807,602,287,734,
0,717,794,595,300,769,
0,749,783,588,297,758,
0,736,771,580,295,747,
0,725,760,574,292,734,
0,715,750,568,290,723,
0,706,889,804,287,713,
0,696,905,892,285,704,
0,687,908,875,281,695,
0,679,888,861,280,686,
0,670,872,848,287,756,
0,763,859,835,291,743,
0,768,844,824,289,733,
0,753,831,808,287,723,
0,743,819,798,284,711,
0,732,807,787,282,701,
0,723,888,775,280,691,
0,713,871,766,277,683,
0,704,852,755,274,673,
0,695,839,745,272,665,
0,686,827,737,302,748,
0,798,813,728,298,737,
0,785,801,718,295,727,
0,770,790,707,292,713,
0,760,779,699,290,704,
0,749,768,691,287,695,
0,739,871,683,286,685,
0,728,856,675,283,676,
0,719,839,667,280,668,
0,709,825,659,278,659,
0,700,814,653,307,752,
0,799,800,644,304,741,
0,787,788,638,300,731,
0,772,777,629,297,718,
0,761,766,623,295,707,
0,751,755,616,292,699,
0,740,847,609,290,689,
0,731,834,603,287,679,
0,721,817,597,284,671,
0,711,805,591,283,663,
0,703,793,585,312,758,
0,847,781,579,308,746,
0,833,769,574,305,735,
0,817,759,567,303,722,
0,805,748,561,300,712,
0,793,847,556,297,703,
0,782,835,550,295,693,
0,771,822,544,292,684,
0,760,806,540,289,675,
0,750,793,535,287,721,
0,768,782,529,301,759,
0,839,770,524,297,747,
0,825,759,519,295,736,
0,809,748,514,292,723,
0,798,738,510,290,713,
0,786,854,505,287,704,
0,775,839,500,285,695,
0,764,824,496,283,685,
0,753,809,492,280,676,
0,743,796,487,302,758,
0,801,785,483,304,745,
0,788,774,480,302,734,
0,777,762,476,299,724,
0,763,752,471,295,711,
0,752,742,466,294,702,
0,742,865,463,291,692,
0,732,850,459,288,684,
0,722,836,455,287,675,
0,713,819,451,284,666,
0,704,807,448,312,763,
0,705,795,444,309,751,
0,696,783,440,306,739,
0,684,772,436,304,729,
0,676,760,432,300,716,
0,668,751,429,298,707,
0,660,896,425,295,697,
0,652,903,422,293,688,
0,644,887,419,291,679,
0,638,867,415,287,671,
0,631,854,412,319,757,
0,785,839,409,316,745,
0,773,827,406,313,735,
0,759,814,403,311,724,
0,748,802,399,307,711,
0,737,791,396,305,702,
0,728,792,393,303,692,
0,718,780,391,300,684,
0,707,768,387,297,675,
0,699,755,385,295,667,
0,691,745,383,321,753,
0,767,735,380,318,742,
0,755,726,376,315,732,
0,742,716,374,312,721,
0,732,707,371,310,709,
0,721,698,368,307,699,
0,711,689,366,304,689,
0,702,681,363,302,681,
0,694,673,359,299,671,
0,684,663,358,295,719,
0,686,655,355,294,776,
0,729,647,353,291,765,
0,719,639,351,289,754,
0,707,632,348,287,743,
0,696,625,345,284,731,
0,688,749,344,283,719,
0,679,775,340,280,711,
0,670,763,339,278,700,
0,662,752,335,275,691,
0,654,738,334,275,772,
0,760,728,332,275,760,
0,838,718,329,273,748,
0,824,707,327,271,737,
0,809,698,326,269,728,
0,797,689,323,267,715,
0,786,706,320,264,705,
0,775,696,319,263,696,
0,764,686,316,260,686,
0,753,675,314,259,678,
0,743,667,312,283,756,
0,886,658,311,280,743,
0,908,650,308,278,734,
0,908,643,307,275,723,
0,884,635,304,272,713,
0,870,630,302,271,701,
0,856,838,300,268,691,
0,844,823,298,265,682,
0,831,809,295,263,673,
0,819,795,295,262,665,
0,807,783,293,274,777,
0,902,771,291,271,766,
0,911,760,289,269,754,
0,915,750,287,267,743,
0,914,739,286,263,733,
0,893,729,284,263,720,
0,877,857,281,259,711,
0,863,844,280,258,701,
0,850,830,278,255,691,
0,838,814,276,254,683,
0,833,801,275,275,771,
0,905,790,273,273,760,
0,913,777,271,271,748,
0,916,767,270,268,737,
0,915,756,268,266,728,
0,894,833,267,263,715,
0,877,903,264,262,705,
0,863,908,263,259,696,
0,850,894,262,257,687,
0,838,871,260,255,716,
0,875,858,259,269,769,
0,908,844,257,267,758,
0,913,831,255,263,747,
0,916,819,254,262,736,
0,909,806,252,259,727,
0,884,894,299,257,713,
0,870,907,295,255,704,
0,857,908,292,254,695,
0,844,890,290,252,686,
0,831,870,287,249,774,
0,893,856,285,291,760,
0,909,843,283,288,748,
0,914,829,280,286,738,
0,916,817,278,284,728,
0,910,804,275,281,718,
0,886,898,273,279,705,
0,871,908,271,276,696,
0,857,911,268,274,687,
0,845,910,267,271,678,
0,831,883,263,278,756,
0,900,867,263,300,744,
0,911,854,260,296,734,
0,915,840,258,294,723,
0,917,828,255,291,713,
0,905,816,254,289,704,
0,883,884,252,287,692,
0,868,868,251,284,683,
0,856,854,249,281,674,
0,843,840,248,280,665,
0,831,824,246,283,744,
0,903,812,244,280,733,
0,911,799,243,278,723,
0,914,788,241,275,712,
0,905,777,240,272,703,
0,880,819,238,271,694,
0,865,901,278,268,681,
0,852,894,275,266,673,
0,839,876,272,263,664,
0,827,861,270,262,656,
0,835,844,268,282,734,
0,905,831,265,280,723,
0,912,818,263,277,712,
0,911,806,262,275,704,
0,892,794,259,272,694,
0,873,863,255,270,684,
0,860,904,254,268,673,
0,846,911,252,265,664,
0,833,913,251,263,655,
0,822,907,248,262,687,
0,873,878,247,277,723,
0,908,864,244,275,712,
0,913,850,243,272,703,
0,913,837,241,270,694,
0,895,824,239,268,684,
0,874,894,248,265,675,
0,860,907,246,263,664,
0,847,908,243,261,655,
0,835,891,242,259,647,
0,823,873,240,257,734,
0,892,856,238,274,721,
0,908,843,236,271,711,
0,914,830,235,270,702,
0,916,817,233,267,691,
0,910,805,231,265,683,
0,882,894,252,263,671,
0,868,891,249,260,663,
0,855,874,248,258,655,
0,842,860,245,255,647,
0,830,846,243,259,737,
0,899,829,241,271,726,
0,910,816,239,270,715,
0,914,804,237,268,705,
0,911,792,235,265,696,
0,889,782,233,263,687,
0,871,900,231,260,675,
0,857,905,230,259,666,
0,844,888,228,255,658,
0,831,872,227,254,649,
0,820,859,226,286,731,
0,902,841,224,281,719,
0,911,828,223,279,710,
0,910,816,222,276,700,
0,889,803,220,274,691,
0,875,792,219,271,681,
0,857,882,217,270,670,
0,844,867,216,267,662,
0,831,852,215,264,654,
0,819,839,214,263,645,
0,815,827,212,291,718,
0,904,809,211,287,707,
0,911,798,210,284,697,
0,915,785,209,281,688,
0,910,775,207,280,679,
0,887,816,207,276,670,
0,868,890,205,274,659,
0,856,873,204,271,650,
0,843,859,203,270,643,
0,830,846,201,268,668,
0,870,831,200,295,711,
0,907,816,199,292,701,
0,913,803,199,290,691,
0,912,792,197,287,682,
0,892,780,196,285,673,
0,876,769,195,283,664,
0,859,759,193,280,654,
0,846,748,193,278,646,
0,833,739,192,275,638,
0,822,729,191,273,723,
0,888,719,190,307,718,
0,908,708,188,303,707,
0,913,700,188,300,697,
0,912,691,187,297,688,
0,893,681,185,295,679,
0,878,874,265,292,671,
0,860,880,264,289,659,
0,847,865,262,287,651,
0,834,851,259,285,643,
0,822,838,257,284,727,
0,898,824,255,309,715,
0,910,808,253,305,704,
0,914,796,251,303,696,
0,914,785,249,300,686,
0,899,774,248,297,677,
0,876,896,307,295,668,
0,862,908,302,292,657,
0,849,909,299,290,649,
0,836,893,295,287,641,
0,824,876,294,314,739,
0,902,861,291,311,728,
0,911,844,289,307,717,
0,915,831,287,304,707,
0,913,818,284,301,697,
0,892,806,281,299,688,
0,872,796,301,295,679,
0,859,783,297,294,668,
0,846,774,295,291,659,
0,833,763,292,288,652,
0,822,753,289,312,736,
0,904,742,287,310,725,
0,911,729,284,306,715,
0,911,719,282,303,705,
0,894,711,280,300,696,
0,878,839,278,298,686,
0,860,903,275,295,677,
0,847,910,272,292,666,
0,835,911,271,291,657,
0,823,902,268,287,684,
0,852,880,267,316,742,
0,907,861,263,313,731,
0,911,847,262,310,719,
0,907,835,260,307,710,
0,885,822,258,304,700,
0,871,894,295,302,691,
0,854,907,300,299,682,
0,840,911,295,295,671,
0,828,913,294,294,663,
0,816,903,291,291,751,
0,881,880,289,313,743,
0,908,865,286,310,732,
0,909,847,284,307,723,
0,892,835,281,304,711,
0,876,822,280,301,703,
0,863,897,278,298,693,
0,846,908,275,295,684,
0,833,911,272,294,673,
0,820,908,270,291,664,
0,809,885,268,289,766,
0,893,870,266,300,753,
0,907,852,263,297,742,
0,894,839,262,294,732,
0,877,826,259,291,721,
0,863,814,258,289,711,
0,851,897,268,286,702,
0,833,888,265,284,692,
0,822,871,263,281,681,
0,809,857,260,280,671,
0,798,844,259,302,760,
0,899,830,255,299,748,
0,905,815,255,295,738,
0,888,802,252,292,728,
0,873,791,251,290,718,
0,860,851,249,287,708,
0,846,903,309,285,698,
0,830,910,305,283,689,
0,818,913,302,280,678,
0,806,913,299,278,669,
0,796,899,296,304,751,
0,901,876,294,301,739,
0,895,859,291,298,728,
0,878,846,289,295,718,
0,864,831,287,292,708,
0,851,850,284,290,699,
0,838,902,327,287,689,
0,822,890,322,285,680,
0,809,873,319,283,670,
0,798,859,316,280,679,
0,800,846,313,302,745,
0,899,831,311,299,734,
0,883,816,308,295,723,
0,868,804,305,292,713,
0,855,792,303,290,704,
0,841,890,327,287,695,
0,828,906,364,285,686,
0,814,911,359,283,676,
0,801,908,355,280,665,
0,791,885,352,278,740,
0,844,870,348,308,751,
0,892,856,345,305,740,
0,876,839,343,303,729,
0,862,826,339,299,719,
0,848,814,336,295,710,
0,836,897,334,294,700,
0,823,908,331,291,691,
0,807,912,327,288,681,
0,796,913,325,287,670,
0,785,900,323,284,760,
0,880,878,319,317,748,
0,902,864,317,313,737,
0,885,846,314,311,726,
0,870,833,312,307,716,
0,857,820,310,305,707,
0,844,899,307,302,697,
0,831,908,304,300,688,
0,815,909,302,297,679,
0,803,892,299,295,668,
0,792,875,297,315,766,
0,895,860,295,321,753,
0,900,846,292,318,743,
0,883,830,290,315,732,
0,868,817,287,312,722,
0,855,806,286,308,712,
0,842,901,284,306,702,
0,829,906,281,304,694,
0,814,891,279,301,684,
0,802,874,277,298,673,
0,792,860,275,334,760,
0,899,846,272,329,748,
0,894,832,271,326,737,
0,877,816,269,323,727,
0,863,804,267,319,716,
0,849,855,265,317,707,
0,836,903,284,314,697,
0,824,909,281,312,688,
0,809,903,279,309,679,
0,798,881,276,307,677,
0,787,867,274,334,761,
0,900,852,271,330,750,
0,887,839,269,327,739,
0,871,824,267,323,729,
0,858,811,265,319,719,
0,845,886,285,318,710,
0,831,905,332,315,700,
0,820,908,329,312,691,
0,806,893,326,310,681,
0,793,875,323,307,740,
0,830,861,319,334,754,
0,878,847,317,331,743,
0,864,833,314,327,732,
0,850,818,312,323,722,
0,837,806,308,321,712,
0,824,898,370,318,703,
0,812,908,365,316,694,
0,799,911,361,312,684,
0,786,906,356,310,675,
0,775,883,353,307,755,
0,871,868,350,335,743,
0,872,854,347,332,732,
0,859,840,344,329,722,
0,846,824,341,326,711,
0,831,812,338,323,703,
0,819,799,335,319,693,
0,807,788,332,317,684,
0,796,777,329,315,675,
0,782,768,327,312,664,
0,771,756,323,313,750,
0,764,746,321,312,738,
0,753,736,318,308,728,
0,743,727,316,305,717,
0,734,715,313,303,707,
0,724,715,311,300,698,
0,716,888,308,297,688,
0,707,871,305,295,679,
0,697,857,303,293,671,
0,688,844,300,291,660,
0,679,831,298,322,743,
0,779,817,295,319,732,
0,768,805,294,316,721,
0,755,793,291,312,711,
0,745,779,289,309,701,
0,735,810,287,307,691,
0,724,883,284,304,683,
0,715,868,283,301,673,
0,705,854,280,299,665,
0,694,839,278,295,663,
0,686,828,275,335,741,
0,792,815,273,332,730,
0,780,802,271,329,719,
0,769,791,270,326,710,
0,758,775,268,323,700,
0,748,869,265,319,691,
0,737,903,263,317,681,
0,727,896,262,314,673,
0,717,877,260,312,664,
0,705,862,257,309,716,
0,739,849,255,334,739,
0,811,835,254,330,728,
0,798,822,252,327,719,
0,787,809,251,324,708,
0,775,795,248,320,699,
0,764,889,248,318,689,
0,753,880,245,315,680,
0,743,864,243,312,671,
0,732,851,241,310,664,
0,721,837,240,307,755,
0,804,824,238,338,743,
0,809,812,236,335,732,
0,797,799,235,332,722,
0,785,787,233,328,711,
0,774,774,231,326,703,
0,764,894,230,323,693,
0,752,891,228,319,684,
0,742,873,227,316,675,
0,729,860,225,314,667,
0,719,846,224,329,755,
0,811,832,223,344,743,
0,798,819,220,342,733,
0,785,807,219,338,723,
0,774,796,217,335,711,
0,762,781,216,332,703,
0,752,900,215,327,693,
0,741,907,214,326,684,
0,731,893,212,323,675,
0,719,875,211,319,667,
0,710,861,209,348,768,
0,768,847,207,344,755,
0,757,834,206,340,743,
0,745,821,205,337,734,
0,736,808,204,335,723,
0,725,848,203,331,713,
0,716,903,201,327,704,
0,705,909,199,326,695,
0,696,900,199,323,685,
0,686,879,198,319,676,
0,678,865,196,340,766,
0,775,851,195,336,754,
0,763,838,193,334,743,
0,752,824,192,331,733,
0,742,812,191,327,723,
0,731,890,211,324,712,
0,721,906,249,321,704,
0,711,911,248,319,694,
0,702,914,245,316,685,
0,691,910,243,313,676,
0,700,885,240,344,756,
0,768,869,239,341,745,
0,756,856,236,338,735,
0,745,842,235,335,724,
0,736,829,232,332,715,
0,726,892,231,327,705,
0,715,905,229,326,696,
0,705,901,227,323,686,
0,696,880,225,319,677,
0,685,866,224,318,707,
0,745,852,222,344,753,
0,747,839,220,342,743,
0,736,825,218,338,732,
0,726,813,216,335,721,
0,715,798,215,332,711,
0,706,899,271,327,702,
0,696,908,267,326,692,
0,687,903,263,323,684,
0,678,883,262,319,675,
0,668,867,259,336,764,
0,763,854,257,352,747,
0,751,839,255,348,736,
0,739,827,252,344,726,
0,729,815,251,342,716,
0,719,799,248,339,707,
0,710,900,247,335,696,
0,700,906,244,332,688,
0,691,891,243,329,679,
0,682,873,240,326,670,
0,671,860,239,356,760,
0,739,846,236,352,743,
0,728,831,234,349,734,
0,718,819,232,345,723,
0,708,807,231,343,713,
0,699,827,230,339,704,
0,689,903,227,335,694,
0,679,905,225,333,685,
0,671,888,224,330,676,
0,664,871,223,327,668,
0,654,859,221,364,760,
0,738,844,219,359,745,
0,728,830,217,355,735,
0,717,818,216,353,724,
0,707,806,214,350,714,
0,697,877,212,347,705,
0,688,904,211,343,696,
0,679,902,209,339,686,
0,671,881,207,337,678,
0,663,866,206,334,668,
0,673,853,204,368,760,
0,759,839,203,364,746,
0,748,825,201,359,736,
0,736,813,199,357,725,
0,727,801,199,354,716,
0,716,892,199,351,705,
0,707,904,198,347,696,
0,697,892,196,344,687,
0,688,875,195,340,678,
0,679,860,193,338,703,
0,745,847,192,364,755,
0,771,833,191,360,742,
0,760,820,190,358,731,
0,748,807,188,354,721,
0,738,796,188,351,711,
0,728,895,186,348,702,
0,718,904,185,344,691,
0,708,889,184,341,683,
0,699,873,183,338,674,
0,690,859,182,344,763,
0,759,846,180,359,759,
0,747,831,179,355,743,
0,736,819,179,352,734,
0,726,807,177,349,723,
0,716,795,176,347,713,
0,706,900,176,344,704,
0,696,908,174,339,694,
0,688,908,174,336,685,
0,679,887,172,334,676,
0,670,871,172,354,760,
0,716,856,171,350,748,
0,705,844,169,347,734,
0,696,830,168,344,723,
0,687,817,167,340,713,
0,678,806,167,337,704,
0,669,902,234,334,694,
0,660,898,231,332,685,
0,652,879,230,327,676,
0,644,864,227,326,668,
0,638,851,225,359,761,
0,703,837,223,355,749,
0,692,824,222,352,736,
0,684,812,220,349,726,
0,674,799,217,345,715,
0,665,795,216,343,705,
0,657,900,214,339,696,
0,648,884,212,335,687,
0,639,868,211,333,678,
0,632,855,209,330,670,
0,627,841,207,355,747,
0,671,828,206,352,736,
0,662,815,204,348,723,
0,652,803,203,345,712,
0,644,792,201,343,703,
0,636,876,219,339,694,
0,628,907,216,335,684,
0,620,911,215,332,675,
0,614,912,212,329,667,
0,608,897,211,327,688,
0,601,876,209,352,740,
0,673,862,207,349,729,
0,664,848,206,345,716,
0,655,835,204,343,706,
0,647,823,202,339,697,
0,639,888,265,336,688,
0,632,904,262,333,679,
0,624,891,259,330,670,
0,615,873,257,327,662,
0,609,860,255,334,737,
0,657,846,252,358,732,
0,707,832,249,355,719,
0,697,820,248,352,709,
0,688,807,246,348,700,
0,679,796,243,345,690,
0,670,892,241,342,681,
0,662,888,240,338,671,
0,653,871,238,335,664,
0,645,857,236,332,655,
0,637,844,235,359,739,
0,745,830,231,356,728,
0,749,817,230,352,713,
0,738,805,228,349,704,
0,728,793,227,346,695,
0,718,782,225,344,685,
0,707,898,224,339,675,
0,699,896,222,336,667,
0,689,877,220,334,659,
0,680,863,218,331,651,
0,671,849,217,368,751,
0,810,835,215,364,739,
0,793,823,213,359,726,
0,782,810,211,356,716,
0,770,798,209,353,705,
0,760,787,212,351,696,
0,748,873,244,348,687,
0,738,855,242,344,678,
0,728,840,240,340,669,
0,719,828,238,337,661,
0,710,815,236,350,764,
0,764,802,233,346,752,
0,750,791,231,343,739,
0,739,779,230,339,728,
0,729,768,227,337,719,
0,719,841,227,334,709,
0,710,903,224,331,700,
0,700,899,223,327,690,
0,691,880,221,325,681,
0,683,865,220,322,691,
0,675,851,217,359,775,
0,787,838,216,355,763,
0,772,824,214,352,749,
0,761,812,212,348,738,
0,750,799,211,345,728,
0,739,886,248,343,718,
0,729,904,246,339,708,
0,719,889,243,335,699,
0,710,873,241,333,689,
0,700,859,240,330,753,
0,719,845,238,359,760,
0,764,831,236,355,748,
0,752,819,233,352,736,
0,742,807,231,348,725,
0,731,795,230,345,715,
0,721,896,251,342,705,
0,711,908,248,339,696,
0,702,907,246,335,687,
0,693,885,243,332,678,
0,684,871,242,345,771,
0,780,856,240,341,758,
0,770,843,238,338,747,
0,759,830,236,335,733,
0,748,816,233,332,723,
0,737,805,231,329,713,
0,728,901,265,326,704,
0,717,909,263,323,694,
0,707,905,260,320,685,
0,699,883,258,318,676,
0,689,868,255,332,777,
0,686,854,254,329,764,
0,675,839,252,326,753,
0,667,827,248,323,740,
0,659,815,248,319,729,
0,652,815,245,318,719,
0,643,903,243,315,710,
0,636,909,241,312,700,
0,628,903,239,310,691,
0,622,880,237,307,682,
0,615,866,236,337,765,
0,696,852,233,334,753,
0,683,839,231,331,743,
0,673,825,230,327,729,
0,664,813,227,324,719,
0,656,856,226,322,710,
0,647,903,224,319,700,
0,639,904,223,316,691,
0,632,881,221,313,681,
0,624,866,220,311,691,
0,617,852,217,335,766,
0,716,839,216,332,754,
0,703,825,215,329,743,
0,694,813,212,327,730,
0,684,801,211,324,719,
0,675,880,209,321,710,
0,667,892,207,319,700,
0,657,871,206,316,691,
0,649,856,205,312,683,
0,641,843,204,310,752,
0,668,830,201,342,764,
0,722,816,199,338,752,
0,709,804,199,335,742,
0,700,792,198,332,728,
0,690,781,195,329,719,
0,681,889,245,327,709,
0,671,896,243,323,700,
0,664,875,240,321,690,
0,655,860,238,318,681,
0,647,847,236,345,768,
0,736,832,234,341,756,
0,737,820,231,337,745,
0,724,807,231,335,734,
0,715,796,228,332,721,
0,705,783,227,328,711,
0,696,896,321,326,702,
0,686,907,318,323,692,
0,678,899,314,319,684,
0,669,879,312,316,675,
0,660,865,309,347,774,
0,760,851,306,344,761,
0,748,836,303,340,750,
0,735,824,300,337,739,
0,724,812,297,334,727,
0,714,799,295,331,716,
0,704,901,292,327,707,
0,696,897,290,325,697,
0,686,874,287,322,688,
0,678,860,286,319,679,
0,669,847,284,344,770,
0,803,831,280,339,758,
0,790,819,279,336,747,
0,775,807,275,334,736,
0,764,796,273,331,723,
0,753,828,273,327,714,
0,743,899,271,325,704,
0,732,883,269,322,696,
0,723,865,267,319,686,
0,713,851,265,316,678,
0,704,838,263,351,763,
0,798,824,260,348,752,
0,785,811,259,344,740,
0,771,799,255,341,730,
0,760,787,255,337,718,
0,750,868,253,335,707,
0,739,901,251,332,697,
0,729,885,249,329,688,
0,719,865,248,326,679,
0,710,852,246,323,733,
0,734,839,243,353,758,
0,798,825,242,350,746,
0,786,812,240,347,736,
0,771,799,238,344,725,
0,760,788,236,340,712,
0,750,888,235,337,703,
0,739,883,233,335,694,
0,729,868,231,332,684,
0,719,851,230,328,675,
0,711,837,227,352,766,
0,775,824,226,351,753,
0,777,811,224,347,743,
0,766,799,224,344,732,
0,752,787,221,340,721,
0,741,775,220,337,709,
0,732,859,281,335,700,
0,721,844,278,332,690,
0,711,830,275,328,681,
0,702,814,273,326,671,
0,694,802,271,347,771,
0,787,790,268,343,758,
0,775,777,266,339,747,
0,763,768,263,335,737,
0,750,756,261,333,727,
0,739,747,259,330,714,
0,729,878,262,327,704,
0,719,862,259,324,695,
0,710,847,257,321,686,
0,700,831,255,318,676,
0,691,819,254,337,774,
0,785,806,251,334,762,
0,774,793,249,331,751,
0,762,782,248,327,739,
0,748,771,244,325,729,
0,738,796,243,323,718,
0,728,868,242,319,707,
0,718,854,240,316,698,
0,708,839,238,314,689,
0,700,824,236,311,679,
0,691,811,235,342,773,
0,780,798,233,338,761,
0,768,787,231,335,750,
0,757,775,230,332,739,
0,743,764,227,328,727,
0,734,843,275,326,716,
0,723,873,271,323,707,
0,713,859,269,319,697,
0,704,844,267,318,688,
0,696,828,263,315,729,
0,707,816,262,350,755,
0,780,802,259,347,743,
0,768,791,257,344,733,
0,758,779,255,340,723,
0,743,768,253,337,711,
0,735,895,326,334,700,
0,723,907,321,332,691,
0,714,905,318,327,682,
0,704,884,316,325,673,
0,696,865,312,342,775,
0,768,851,310,342,763,
0,790,838,307,339,752,
0,777,824,304,335,740,
0,767,812,302,332,731,
0,753,799,299,329,719,
0,743,896,372,327,707,
0,732,895,368,324,699,
0,723,876,364,321,689,
0,713,862,361,319,680,
0,704,846,358,332,777,
0,780,831,355,327,765,
0,768,819,352,326,754,
0,756,806,348,323,743,
0,745,794,345,319,732,
0,732,783,342,317,719,
0,722,902,339,314,710,
0,712,908,335,312,700,
0,703,900,333,309,691,
0,694,879,331,307,683,
0,685,861,327,344,768,
0,796,847,325,339,755,
0,783,833,322,336,744,
0,772,821,319,334,735,
0,761,808,317,331,724,
0,748,819,313,327,711,
0,737,900,312,324,702,
0,728,889,308,321,693,
0,718,873,306,319,684,
0,708,859,304,316,675,
0,700,842,302,345,767,
0,755,828,300,342,755,
0,744,816,297,339,743,
0,734,803,295,335,734,
0,723,792,292,332,723,
0,711,863,332,329,711,
0,702,891,328,327,701,
0,692,873,326,323,692,
0,684,860,323,321,683,
0,675,846,319,319,724,
0,686,829,317,344,758,
0,763,816,315,340,747,
0,752,803,312,337,736,
0,741,792,309,334,726,
0,728,780,306,331,716,
0,719,886,348,327,704,
0,708,876,344,326,695,
0,700,862,342,323,685,
0,691,847,339,319,676,
0,681,834,335,318,763,
0,747,818,332,340,751,
0,766,806,329,337,739,
0,754,793,327,335,729,
0,743,782,323,332,719,
0,731,771,321,328,709,
0,720,895,318,326,697,
0,711,899,316,323,688,
0,701,880,312,319,679,
0,692,866,310,317,670,
0,684,852,307,324,756,
0,783,835,305,344,743,
0,771,822,303,340,733,
0,760,809,300,337,723,
0,748,798,297,334,712,
0,736,786,295,331,704,
0,725,889,352,327,691,
0,716,873,348,325,682,
0,705,858,345,322,673,
0,696,845,342,319,664,
0,688,831,339,344,759,
0,749,815,335,339,747,
0,737,803,333,335,736,
0,728,791,330,333,726,
0,717,780,327,330,715,
0,705,775,324,327,705,
0,696,869,321,324,694,
0,686,854,318,321,684,
0,678,840,316,319,676,
0,669,827,313,316,668,
0,662,815,311,340,757,
0,719,799,307,335,745,
0,708,787,305,332,735,
0,699,775,303,329,724,
0,689,764,300,327,715,
0,679,807,299,323,705,
0,669,843,295,321,694,
0,660,829,293,318,684,
0,653,816,291,316,675,
0,646,803,288,313,716,
0,664,788,286,343,754,
0,752,776,284,338,743,
0,742,766,282,335,732,
0,731,755,280,332,721,
0,720,744,278,329,711,
0,708,869,286,326,702,
0,699,876,283,323,691,
0,689,862,280,320,681,
0,680,847,278,318,673,
0,671,835,275,315,768,
0,734,818,273,340,755,
0,748,806,271,336,743,
0,737,793,270,333,734,
0,728,782,268,330,723,
0,717,771,265,327,713,
0,705,891,263,324,704,
0,696,881,261,321,692,
0,687,866,259,319,683,
0,678,852,257,316,674,
0,670,839,255,324,758,
0,780,822,254,344,745,
0,768,809,252,339,735,
0,755,797,250,335,724,
0,744,786,248,333,715,
0,734,775,247,330,705,
0,722,875,295,327,696,
0,711,859,291,323,684,
0,703,845,288,321,675,
0,693,831,286,319,666,
0,684,819,284,343,761,
0,765,803,281,339,749,
0,753,791,279,335,738,
0,742,779,276,332,728,
0,732,768,274,327,718,
0,721,772,271,326,708,
0,710,891,284,323,698,
0,700,874,281,319,687,
0,691,860,280,317,678,
0,682,846,276,315,670,
0,674,833,275,343,756,
0,771,816,271,339,744,
0,760,803,270,335,734,
0,748,792,268,332,723,
0,737,780,265,327,713,
0,728,843,264,326,704,
0,715,883,284,323,695,
0,705,868,281,319,683,
0,696,854,280,317,675,
0,687,839,276,315,707,
0,679,827,275,337,761,
0,753,811,271,334,750,
0,743,798,270,329,739,
0,732,787,268,327,728,
0,721,775,265,323,719,
0,711,875,302,321,708,
0,700,873,315,319,699,
0,691,859,312,316,688,
0,682,846,310,313,679,
0,673,831,307,311,774,
0,732,819,304,333,769,
0,777,803,301,329,758,
0,766,792,299,326,747,
0,755,780,295,323,736,
0,744,769,294,319,727,
0,735,876,309,318,716,
0,721,861,305,315,707,
0,711,847,303,312,695,
0,703,833,300,310,686,
0,694,820,297,311,775,
0,800,807,295,339,764,
0,787,792,292,335,752,
0,775,780,289,332,742,
0,764,769,287,329,732,
0,753,759,285,327,721,
0,743,883,287,323,711,
0,730,867,284,319,702,
0,719,853,281,318,690,
0,711,839,280,315,681,
0,702,827,277,344,760,
0,764,814,275,339,748,
0,752,798,272,335,737,
0,742,787,271,332,727,
0,732,775,268,329,716,
0,721,764,267,327,707,
0,711,861,283,323,697,
0,700,847,280,320,688,
0,691,833,278,318,678,
0,681,820,275,315,668,
0,673,807,273,336,741,
0,812,795,271,333,729,
0,799,780,268,329,719,
0,787,769,266,326,710,
0,775,759,263,323,700,
0,764,814,268,320,691,
0,754,888,319,318,681,
0,741,871,315,315,671,
0,731,857,312,312,662,
0,721,844,308,310,679,
0,711,830,306,332,723,
0,765,817,304,329,712,
0,753,801,300,326,703,
0,743,790,298,322,693,
0,732,779,295,319,684,
0,723,876,294,317,675,
0,711,876,370,313,666,
0,700,861,365,312,655,
0,691,847,361,308,647,
0,683,834,359,307,734,
0,723,821,355,334,732,
0,750,808,352,330,722,
0,739,793,348,327,711,
0,728,782,345,323,702,
0,718,770,343,321,693,
0,709,892,339,318,684,
0,699,898,337,315,675,
0,688,880,333,312,664,
0,679,864,331,310,655,
0,671,851,327,307,752,
0,777,838,325,340,739,
0,764,824,323,337,728,
0,753,808,319,334,718,
0,742,796,317,331,708,
0,732,785,315,327,699,
0,722,900,352,324,689,
0,711,908,348,321,679,
0,700,907,344,319,669,
0,691,886,342,316,661,
0,683,871,339,348,748,
0,787,856,335,344,736,
0,775,843,332,342,726,
0,763,827,329,337,716,
0,752,814,327,334,705,
0,742,802,324,332,696,
0,732,896,333,327,687,
0,721,880,329,326,678,
0,710,865,326,323,668,
0,700,851,323,319,659,
0,691,838,321,350,746,
0,782,824,318,345,735,
0,769,812,315,342,724,
0,758,796,312,338,714,
0,747,785,311,335,704,
0,736,845,307,332,696,
0,727,902,307,329,686,
0,717,892,304,327,676,
0,705,874,302,323,666,
0,696,860,299,321,673,
0,688,847,297,338,724,
0,787,833,295,335,714,
0,775,819,292,332,704,
0,764,804,290,327,695,
0,753,792,287,325,685,
0,743,880,323,322,676,
0,732,905,323,319,668,
0,719,911,319,316,659,
0,710,910,316,313,648,
0,701,889,313,312,730,
0,730,873,311,335,736,
0,763,859,307,332,726,
0,752,846,305,327,716,
0,741,829,303,324,705,
0,731,816,300,321,696,
0,721,895,374,319,687,
0,711,905,368,316,678,
0,699,894,364,313,669,
0,690,876,359,311,659,
0,681,861,358,308,768,
0,762,847,354,335,755,
0,750,834,351,332,743,
0,739,822,348,328,732,
0,728,806,344,325,723,
0,718,794,342,323,712,
0,708,899,339,319,703,
0,699,904,335,316,694,
0,688,888,333,313,684,
0,679,872,329,312,673,
0,671,859,327,339,759,
0,780,844,324,335,746,
0,768,831,321,332,736,
0,756,819,319,328,724,
0,745,803,316,325,715,
0,735,792,313,322,705,
0,725,899,348,319,696,
0,715,887,344,316,686,
0,704,871,340,313,678,
0,694,856,337,311,667,
0,686,844,334,336,745,
0,750,830,331,332,734,
0,739,816,327,329,723,
0,728,804,325,327,713,
0,719,790,323,323,704,
0,708,835,319,319,695,
0,700,903,317,318,686,
0,689,901,315,315,676,
0,679,881,312,312,668,
0,671,866,308,310,696,
0,663,852,307,331,768,
0,659,839,304,327,756,
0,651,825,302,324,745,
0,643,810,299,321,735,
0,636,798,296,318,724,
0,629,879,332,316,715,
0,622,903,342,312,705,
0,615,897,339,310,696,
0,606,878,335,307,687,
0,600,863,332,305,747,
0,621,849,328,313,735,
0,668,835,326,310,724,
0,659,823,323,307,714,
0,651,807,319,305,704,
0,643,796,318,302,696,
0,635,894,315,300,686,
0,627,907,312,297,676,
0,619,910,310,295,668,
0,609,899,307,292,659,
0,603,878,304,291,747,
0,711,864,302,323,735,
0,711,849,299,319,724,
0,700,836,296,318,714,
0,691,820,295,315,704,
0,681,807,292,312,696,
0,673,898,339,308,686,
0,664,902,335,305,676,
0,655,883,333,304,668,
0,646,868,330,300,659,
0,638,854,327,329,750,
0,759,840,323,334,737,
0,747,827,320,331,727,
0,736,815,318,327,716,
0,725,799,315,325,707,
0,715,788,312,321,697,
0,706,899,310,319,688,
0,696,892,307,316,679,
0,688,875,305,313,670,
0,676,860,302,311,662,
0,668,847,300,328,774,
0,784,833,296,326,761,
0,772,820,295,323,750,
0,760,807,291,319,739,
0,750,792,289,316,729,
0,739,824,287,313,719,
0,729,900,332,311,710,
0,719,888,329,307,700,
0,710,871,327,305,691,
0,699,857,323,303,681,
0,690,844,319,332,767,
0,811,830,317,328,755,
0,798,817,315,326,743,
0,786,804,312,323,734,
0,775,790,309,319,723,
0,764,864,332,316,713,
0,753,855,344,313,704,
0,743,839,342,311,694,
0,732,827,338,308,685,
0,720,814,334,305,676,
0,724,802,332,329,766,
0,779,790,327,327,755,
0,768,777,326,323,743,
0,756,768,323,321,734,
0,745,754,319,318,723,
0,736,883,371,314,713,
0,725,889,366,312,704,
0,716,873,363,308,695,
0,706,859,359,306,686,
0,695,845,355,304,729,
0,780,831,352,339,764,
0,781,819,349,335,752,
0,769,807,345,332,742,
0,758,795,343,329,731,
0,748,780,340,326,721,
0,737,887,387,323,711,
0,727,871,384,319,702,
0,717,856,380,318,692,
0,707,842,376,315,684,
0,696,829,372,339,765,
0,775,816,368,348,750,
0,763,803,365,344,739,
0,752,792,361,340,728,
0,740,780,359,337,718,
0,730,767,355,334,708,
0,720,889,352,331,699,
0,711,872,350,327,689,
0,702,858,347,325,679,
0,692,844,344,323,671,
0,681,831,340,345,760,
0,738,818,337,341,745,
0,728,806,335,337,734,
0,717,793,332,335,724,
0,707,782,329,332,713,
0,697,794,327,327,704,
0,688,876,327,326,695,
0,679,860,324,323,686,
0,671,847,321,319,676,
0,663,833,319,317,668,
0,654,820,316,338,759,
0,740,807,313,335,747,
0,729,796,311,332,736,
0,719,783,308,327,726,
0,710,772,306,326,716,
0,700,844,344,322,707,
0,691,888,374,319,696,
0,681,871,370,316,688,
0,672,856,367,313,679,
0,664,843,364,312,670,
0,691,830,359,335,759,
0,758,817,355,332,747,
0,746,804,352,329,736,
0,736,792,350,327,726,
0,725,782,347,323,716,
0,716,889,369,319,707,
0,705,905,365,318,696,
0,696,903,361,315,688,
0,688,882,359,312,679,
0,679,867,355,310,713,
0,752,854,351,330,748,
0,758,839,348,327,737,
0,747,827,344,323,727,
0,736,814,342,321,716,
0,726,802,339,318,707,
0,716,897,345,315,697,
0,706,899,342,312,688,
0,696,880,339,309,679,
0,688,865,335,307,670,
0,679,851,333,323,749,
0,740,838,329,329,734,
0,729,825,327,326,723,
0,719,812,323,323,713,
0,708,799,321,319,704,
0,699,788,319,318,695,
0,690,899,316,313,685,
0,680,897,313,312,675,
0,671,878,312,308,667,
0,664,864,309,306,659,
0,655,850,307,335,743,
0,719,836,304,331,728,
0,708,824,301,327,718,
0,699,811,299,325,707,
0,689,799,296,322,698,
0,679,787,295,319,689,
0,671,903,324,316,679,
0,663,902,321,313,671,
0,655,882,319,311,663,
0,647,867,316,307,654,
0,639,854,313,339,740,
0,683,839,310,335,727,
0,672,826,307,332,716,
0,664,814,304,329,706,
0,655,801,302,326,696,
0,647,801,301,323,688,
0,639,900,299,319,678,
0,632,884,296,317,670,
0,624,868,295,314,661,
0,616,855,292,312,653,
0,635,841,290,334,743,
0,700,828,287,331,731,
0,690,815,285,327,720,
0,680,803,283,324,710,
0,671,792,280,321,700,
0,664,840,335,319,691,
0,654,883,332,315,681,
0,646,868,329,312,673,
0,638,854,326,310,664,
0,631,839,323,307,700,
0,715,827,319,339,753,
0,737,814,316,336,739,
0,727,801,314,334,728,
0,717,790,312,330,719,
0,707,779,308,327,710,
0,697,880,306,324,700,
0,688,883,304,321,690,
0,679,868,301,319,680,
0,671,854,299,316,671,
0,662,840,295,323,759,
0,795,827,294,339,751,
0,782,814,291,336,737,
0,769,802,288,334,727,
0,758,791,286,330,716,
0,748,779,284,327,707,
0,737,892,328,324,697,
0,728,883,325,321,688,
0,718,867,322,318,679,
0,708,854,319,316,670,
0,699,839,316,340,771,
0,799,827,313,337,758,
0,787,814,310,334,743,
0,775,801,307,331,734,
0,764,790,305,327,723,
0,753,779,303,325,713,
0,743,897,353,322,704,
0,732,882,350,319,694,
0,723,867,347,316,685,
0,712,853,344,313,676,
0,704,839,340,337,770,
0,827,825,337,334,758,
0,814,813,333,331,744,
0,801,801,331,327,734,
0,790,790,327,324,723,
0,778,787,324,321,713,
0,768,902,322,319,704,
0,756,889,319,316,695,
0,745,873,316,312,686,
0,736,859,313,310,677,
0,727,846,312,329,772,
0,824,831,308,327,760,
0,811,819,305,323,747,
0,798,807,304,320,736,
0,787,795,300,318,726,
0,775,831,344,315,716,
0,764,888,369,312,706,
0,753,871,365,309,696,
0,743,857,361,307,688,
0,734,843,359,304,705,
0,723,830,355,332,754,
0,813,816,352,327,743,
0,799,804,348,325,729,
0,788,792,345,322,719,
0,776,781,342,319,710,
0,767,888,369,316,700,
0,755,903,366,313,691,
0,744,886,361,310,681,
0,735,871,359,307,673,
0,725,856,355,306,756,
0,755,843,352,321,749,
0,762,829,349,319,738,
0,751,816,345,316,725,
0,740,804,342,312,715,
0,729,792,339,310,705,
0,719,894,364,307,696,
0,711,901,360,305,687,
0,701,881,358,302,678,
0,692,867,354,300,669,
0,684,853,352,312,783,
0,760,839,348,310,771,
0,744,825,344,307,760,
0,734,814,341,304,747,
0,723,801,338,301,736,
0,713,790,335,299,726,
0,704,895,332,295,716,
0,695,876,329,294,706,
0,686,861,327,291,697,
0,677,847,324,289,688,
0,668,835,322,331,774,
0,775,821,319,327,761,
0,760,808,316,324,750,
0,750,796,313,321,737,
0,739,785,311,319,727,
0,728,774,310,316,716,
0,719,892,315,313,707,
0,709,871,312,310,697,
0,700,856,309,307,688,
0,691,843,307,304,679,
0,682,830,304,336,764,
0,772,816,302,333,752,
0,758,804,299,329,742,
0,747,792,295,327,729,
0,736,781,294,323,719,
0,727,821,327,321,709,
0,716,889,325,318,700,
0,707,870,322,316,690,
0,697,855,319,312,681,
0,688,841,316,310,686,
0,679,828,314,335,742,
0,758,815,311,333,731,
0,743,803,307,329,720,
0,733,791,305,327,708,
0,723,780,303,323,699,
0,713,874,335,321,689,
0,704,902,332,318,679,
0,694,881,328,315,671,
0,685,867,326,312,663,
0,676,852,323,311,742,
0,710,839,319,334,751,
0,730,825,317,331,739,
0,717,813,313,327,728,
0,707,801,311,324,716,
0,697,789,308,321,707,
0,688,858,367,319,697,
0,679,843,363,316,688,
0,671,826,359,312,679,
0,663,814,355,310,670,
0,654,801,353,329,750,
0,760,788,350,326,738,
0,753,777,347,323,728,
0,739,766,343,319,717,
0,729,755,339,317,704,
0,719,745,337,314,696,
0,710,896,363,312,686,
0,700,893,359,308,677,
0,691,871,356,305,668,
0,681,857,353,303,660,
0,673,844,350,337,748,
0,777,830,347,333,736,
0,766,817,344,330,726,
0,752,805,339,327,716,
0,740,793,337,324,704,
0,731,782,334,321,695,
0,720,893,350,319,685,
0,711,877,347,316,676,
0,702,859,344,312,668,
0,692,844,340,310,659,
0,684,831,337,329,748,
0,775,818,334,326,737,
0,764,806,332,323,726,
0,750,794,327,319,713,
0,739,783,326,317,704,
0,729,841,367,315,695,
0,719,902,376,312,685,
0,710,895,371,308,676,
0,700,872,368,305,668,
0,691,858,364,304,684,
0,683,845,361,327,763,
0,768,831,358,324,752,
0,756,818,355,321,740,
0,743,806,351,318,728,
0,732,794,348,316,718,
0,723,875,352,312,707,
0,712,888,349,310,698,
0,704,872,345,307,689,
0,694,855,343,304,679,
0,686,841,339,305,748,
0,735,828,337,340,762,
0,797,815,334,337,751,
0,785,802,332,334,740,
0,771,791,327,331,727,
0,760,779,325,327,717,
0,749,888,332,325,707,
0,739,883,327,322,697,
0,728,867,326,319,688,
0,719,849,323,316,679,
0,709,836,319,345,753,
0,793,823,317,341,742,
0,780,810,315,337,731,
0,768,798,312,334,720,
0,755,787,309,332,708,
0,743,775,307,327,700,
0,734,897,339,326,689,
0,724,907,336,323,680,
0,713,899,333,319,671,
0,705,875,330,316,664,
0,696,862,327,331,743,
0,794,847,324,327,732,
0,781,833,321,324,721,
0,769,820,319,321,711,
0,756,808,316,319,699,
0,745,796,313,316,690,
0,735,899,344,313,680,
0,725,887,340,311,671,
0,716,871,337,307,664,
0,706,853,335,304,655,
0,696,839,332,333,743,
0,774,826,327,329,733,
0,761,814,326,327,722,
0,748,801,323,323,711,
0,737,790,319,320,700,
0,728,824,337,318,691,
0,718,899,335,315,681,
0,708,886,332,312,672,
0,699,870,328,310,664,
0,689,852,326,307,664,
0,681,839,323,335,745,
0,770,825,319,332,735,
0,759,812,317,329,724,
0,745,800,315,327,715,
0,735,788,312,323,702,
0,725,865,358,320,692,
0,715,901,353,318,684,
0,705,887,350,315,675,
0,696,871,347,312,666,
0,687,853,344,309,728,
0,706,839,340,329,748,
0,768,826,337,327,737,
0,755,814,335,323,728,
0,742,801,332,320,717,
0,732,790,327,318,705,
0,722,888,376,315,696,
0,711,897,371,312,686,
0,702,879,368,310,677,
0,693,864,364,307,668,
0,684,847,361,339,755,
0,775,833,358,336,742,
0,773,820,355,333,731,
0,761,807,352,330,721,
0,748,796,348,327,711,
0,737,783,344,324,700,
0,728,892,342,321,689,
0,718,877,339,319,680,
0,707,862,335,316,671,
0,699,847,333,313,664,
0,689,831,331,339,758,
0,777,819,327,335,745,
0,765,806,325,332,734,
0,753,793,322,328,724,
0,740,782,319,326,713,
0,730,771,316,323,702,
0,719,829,348,319,692,
0,711,816,344,317,684,
0,701,803,341,314,674,
0,691,788,338,312,665,
0,684,776,335,336,763,
0,755,765,332,333,751,
0,743,754,329,329,739,
0,732,743,326,327,729,
0,719,734,323,323,719,
0,710,772,344,321,707,
0,700,876,349,318,697,
0,691,861,345,316,688,
0,682,847,343,312,679,
0,673,830,339,310,671,
0,666,817,337,332,756,
0,764,804,334,327,744,
0,752,792,331,326,734,
0,741,781,327,323,724,
0,728,769,324,319,713,
0,719,847,321,317,702,
0,708,868,319,314,692,
0,700,854,316,312,684,
0,690,839,313,308,675,
0,681,824,312,306,728,
0,673,811,308,324,753,
0,694,799,306,321,742,
0,684,787,304,318,732,
0,675,775,302,316,721,
0,664,764,299,312,711,
0,655,876,359,310,699,
0,647,863,355,307,689,
0,639,847,352,304,680,
0,633,835,348,302,671,
0,626,819,345,300,760,
0,710,806,342,333,747,
0,732,793,339,329,736,
0,721,782,335,327,726,
0,711,771,333,323,716,
0,700,760,329,321,706,
0,690,880,335,318,694,
0,681,864,332,315,685,
0,671,849,329,312,676,
0,664,835,327,310,668,
0,655,819,323,321,758,
0,756,807,321,331,745,
0,743,795,318,327,735,
0,733,783,316,324,724,
0,723,771,313,322,715,
0,711,760,310,319,705,
0,701,888,312,316,693,
0,691,871,310,313,684,
0,683,857,307,311,675,
0,674,843,304,308,667,
0,665,827,302,342,757,
0,775,814,300,337,745,
0,763,801,296,334,735,
0,752,790,295,331,724,
0,740,778,292,327,714,
0,728,791,311,326,705,
0,718,887,323,322,692,
0,708,870,319,319,684,
0,699,856,317,316,675,
0,690,842,314,313,666,
0,681,825,312,335,763,
0,759,812,309,332,751,
0,747,799,306,327,740,
0,736,788,304,325,729,
0,726,777,301,322,719,
0,714,847,315,319,710,
0,704,903,312,316,697,
0,695,901,310,313,688,
0,686,881,307,312,679,
0,677,866,304,308,718,
0,685,849,302,342,752,
0,751,835,299,339,742,
0,739,823,295,335,731,
0,729,810,294,332,720,
0,719,798,291,329,711,
0,707,888,338,327,701,
0,697,891,334,323,689,
0,688,874,331,321,679,
0,679,860,327,318,671,
0,671,846,325,316,759,
0,739,829,322,327,746,
0,752,816,319,326,735,
0,742,804,316,323,724,
0,731,792,313,319,715,
0,721,780,312,316,705,
0,709,889,335,314,696,
0,699,874,332,312,684,
0,690,859,329,308,675,
0,681,845,326,306,667,
0,671,831,323,313,749,
0,771,816,319,332,737,
0,760,803,318,329,728,
0,748,792,315,326,717,
0,737,780,312,323,707,
0,727,769,310,319,697,
0,715,892,380,318,686,
0,705,875,376,315,676,
0,696,860,372,312,668,
0,687,846,368,310,659,
0,679,833,366,331,750,
0,735,817,361,326,737,
0,724,804,359,323,728,
0,714,792,355,319,717,
0,704,780,352,317,707,
0,695,815,350,315,698,
0,683,902,376,312,686,
0,674,896,371,309,677,
0,665,878,368,307,668,
0,657,863,364,304,659,
0,651,850,361,331,752,
0,723,831,358,327,740,
0,712,819,355,323,729,
0,703,807,352,320,719,
0,693,796,348,318,710,
0,684,857,345,315,700,
0,672,900,343,312,688,
0,664,886,339,310,679,
0,655,870,336,307,670,
0,647,856,334,304,715,
0,639,842,331,326,743,
0,649,825,327,321,733,
0,641,813,326,319,723,
0,633,801,323,316,713,
0,625,788,319,313,704,
0,619,880,348,310,694,
0,610,891,349,307,682,
0,603,873,345,305,673,
0,596,859,343,303,664,
0,591,846,339,300,750,
0,643,831,3StartUp!
127,789,782,315,321,745,
0,780,773,312,319,737,
0,771,765,311,317,729,
0,763,757,309,315,721,
0,755,761,307,313,715,
0,747,871,344,311,707,
0,739,860,342,309,700,
0,731,849,339,307,693,
0,723,839,336,305,686,
0,716,829,334,303,679,
0,709,816,332,304,768,
0,768,803,327,303,755,
0,798,791,324,300,743,
0,785,779,321,297,731,
0,774,768,319,295,719,
0,763,758,316,293,711,
0,752,896,314,291,700,
0,742,896,312,287,691,
0,731,877,308,285,681,
0,721,863,306,283,673,
0,711,849,304,287,752,
0,763,835,302,284,739,
0,748,822,299,281,729,
0,737,809,295,280,716,
0,728,797,294,278,707,
0,717,785,291,275,697,
0,707,898,313,273,687,
0,698,880,311,270,678,
0,689,866,307,268,670,
0,680,851,305,267,661,
0,671,844,304,267,743,
0,729,831,302,265,731,
0,716,817,299,263,718,
0,705,806,295,261,708,
0,696,793,294,259,699,
0,687,826,337,257,689,
0,678,901,347,255,679,
0,670,887,343,253,671,
0,662,871,339,252,663,
0,654,856,336,249,655,
0,647,843,334,287,739,
0,708,830,331,284,728,
0,696,816,327,281,716,
0,687,804,324,280,705,
0,678,792,321,277,696,
0,669,864,377,275,687,
0,660,903,373,272,678,
0,652,887,369,270,669,
0,644,871,366,268,660,
0,636,856,363,265,716,
0,635,843,359,312,745,
1,687,829,355,309,735,
1,675,816,352,306,721,
1,665,804,349,303,711,
1,657,792,345,300,702,
2,649,892,387,298,692,
3,641,905,384,295,683,
3,632,891,380,292,674,
3,625,874,376,290,665,
3,619,860,373,323,750,
3,692,846,369,331,737,
3,687,831,366,327,727,
3,675,820,362,324,713,
3,667,807,359,321,704,
4,658,796,355,319,696,
4,649,896,384,316,685,
4,641,895,380,313,676,
4,633,873,376,310,668,
4,625,859,372,307,659,
5,619,845,369,334,747,
5,683,831,365,329,735,
5,672,818,362,327,724,
5,662,806,358,323,711,
5,652,794,355,321,702,
5,644,783,352,318,692,
5,636,899,356,315,683,
6,628,892,353,312,674,
5,620,870,351,309,665,
6,614,856,348,307,657,
6,607,843,344,335,745,
5,689,829,342,332,734,
6,676,816,339,327,724,
5,668,804,335,325,711,
5,659,792,332,322,702,
5,651,816,352,319,692,
6,642,899,399,316,683,
5,634,887,395,313,674,
6,626,867,391,311,665,
5,619,853,387,308,657,
5,611,839,384,345,753,
5,710,826,380,342,742,
5,696,814,377,339,732,
5,687,801,372,335,719,
5,678,790,369,332,708,
5,669,852,382,329,699,
4,660,903,411,327,689,
5,652,899,407,323,680,
5,644,876,403,319,671,
4,636,862,399,318,719,
4,655,847,396,358,766,
4,753,834,391,354,754,
4,739,822,387,351,743,
4,729,808,384,348,731,
4,719,797,380,344,721,
4,709,888,391,341,711,
4,700,902,387,338,701,
4,690,885,384,335,691,
4,681,865,380,332,683,
4,672,851,376,343,774,
4,740,839,373,355,760,
4,787,825,369,352,748,
3,772,812,367,348,737,
4,761,799,363,345,725,
4,751,788,359,343,716,
3,740,896,407,339,705,
3,730,905,402,336,696,
3,719,894,398,334,687,
3,711,871,395,329,678,
3,702,858,391,368,771,
3,821,844,387,364,758,
3,816,831,384,359,747,
3,799,818,380,356,736,
3,788,806,376,353,723,
3,777,794,372,350,714,
3,766,902,401,347,704,
3,755,909,398,344,695,
3,744,911,393,341,686,
3,735,892,390,337,677,
3,726,875,387,359,774,
3,833,860,384,355,761,
3,819,846,380,352,750,
3,803,832,376,349,739,
3,792,820,371,346,727,
3,780,843,383,344,716,
3,769,903,379,339,707,
3,758,903,375,337,697,
3,748,880,371,334,688,
3,738,865,368,331,679,
3,728,851,365,359,777,
3,841,838,361,355,766,
3,828,824,359,352,755,
3,812,812,355,349,743,
3,799,799,352,345,731,
2,788,860,410,344,720,
3,777,899,438,339,711,
2,766,883,433,337,701,
2,755,864,429,334,692,
2,745,850,424,331,718,
2,736,837,420,355,769,
2,821,824,416,352,758,
2,808,811,412,348,747,
2,793,799,408,344,736,
1,782,787,404,342,724,
2,771,886,401,339,714,
2,760,900,397,335,704,
1,749,883,393,333,695,
2,739,864,390,329,686,
1,729,850,387,336,777,
2,774,836,384,351,770,
2,807,824,380,347,758,
1,796,811,377,344,748,
1,781,799,373,340,737,
1,769,787,369,337,724,
1,760,892,415,335,714,
1,748,903,411,332,704,
1,738,891,406,328,695,
2,728,870,403,326,686,
1,719,856,399,346,785,
1,786,843,395,343,772,
1,774,829,391,339,761,
1,762,816,387,335,751,
1,748,804,384,333,740,
1,738,792,380,331,728,
1,728,900,376,327,717,
1,718,908,374,324,707,
1,708,903,370,322,698,
1,699,877,367,319,689,
1,691,864,364,328,783,
1,745,849,360,326,771,
1,734,835,358,323,760,
1,723,823,355,319,749,
1,711,810,352,316,739,
1,702,807,349,315,726,
1,692,899,346,312,716,
1,684,886,344,309,706,
1,675,870,340,307,696,
1,667,852,338,304,688,
1,659,839,335,342,775,
1,778,825,332,338,762,
1,766,812,330,335,751,
0,755,799,327,332,740,
1,742,788,324,329,729,
1,732,827,354,327,718,
1,721,879,374,323,707,
