=~=~=~=~=~=~=~=~=~=~=~= PuTTY log 2021.04.22 11:59:58 =~=~=~=~=~=~=~=~=~=~=~=
308,272,316,378,
0,280,600,270,313,278,327,384,
0,291,632,279,20,488,266,440,359,
0,525,526,263,556,355,
0,635,572,262,546,353,
0,625,565,260,540,270,448,365,
0,537,494,268,444,362,
0,530,488,266,440,359,
0,525,526,263,556,355,
0,635,572,262,546,353,
0,625,565,260,540,350,
0,617,558,259,534,348,
0,609,5
0,530,488,266,440,359,
0,525,526,263,556,355,
0,635,572,262,546,353,
0,625,565,260,540,350,
0,617,558,259,534,348,
0,609,549,257,527,345,
0,603,543,255,521,343,
0,595,536,253,515,339,
0,588,53Ibbbj
0,582,524,249,505,335,
0,573,518,248,500,3StartUp!
123,555,689,208,491,283,
0,550,683,207,487,280,
0,545,676,206,536,279,
0,565,763,205,531,289,
0,560,753,204,527,287,
0,553,744,203,521,286,
0,549,736,243,518,284,
0,543,728,240,515,281,
0,540,719,239,509,280,
0,536,711,237,505,278,
0,531,702,235,499,275,
0,526,692,233,495,273,
0,519,683,231,489,271,
0,514,673,228,484,268,
0,510,712,227,512,268,
0,575,764,225,505,267,
0,568,752,224,500,263,
0,561,737,223,493,262,
0,555,726,222,487,260,
0,548,716,220,483,258,
0,542,705,217,478,255,
0,536,696,216,473,254,
0,527,686,214,469,252,
0,522,676,212,464,250,
0,552,766,211,504,251,
0,582,752,209,498,248,
0,574,740,207,493,247,
0,568,727,242,486,245,
0,560,716,240,481,243,
0,553,706,238,476,241,
0,547,700,237,474,241,
0,543,690,236,470,239,
0,536,680,233,465,237,
0,530,671,231,461,236,
0,634,750,229,514,273,
0,625,737,227,508,270,
0,617,727,266,503,268,
0,609,713,269,496,265,
0,601,703,267,491,263,
0,594,693,263,486,260,
0,587,683,262,480,259,
0,580,673,259,476,255,
0,572,665,257,471,254,
0,565,656,255,510,252,
0,661,732,252,532,299,
0,651,719,251,526,295,
0,642,710,295,520,293,
0,634,696,291,513,291,
0,626,687,287,508,287,
1,618,677,286,502,285,
1,611,668,283,497,283,
1,603,659,280,492,280,
1,594,651,278,487,277,
2,588,647,275,543,275,
2,638,748,273,536,303,
3,629,736,271,529,300,
3,621,724,307,524,297,
3,613,711,304,516,295,
3,606,701,300,511,292,
3,598,691,297,505,289,
3,591,681,295,500,287,
3,583,671,292,495,284,
3,575,664,289,490,281,
4,569,718,287,525,280,
4,615,733,284,519,277,
4,607,721,281,513,275,
4,600,711,361,508,272,
4,591,698,356,500,270,
4,584,688,353,496,268,
4,578,679,350,490,265,
4,571,670,346,486,263,
4,564,660,344,480,262,
5,556,652,339,476,259,
4,551,644,336,476,257,
5,550,636,333,471,255,
4,543,628,365,467,253,
4,538,621,366,462,251,
4,532,611,363,456,249,
4,527,605,359,453,248,
4,521,598,355,449,246,
4,515,591,352,445,243,
4,510,584,349,441,241,
4,504,578,345,438,240,
4,572,575,342,486,238,
4,564,569,339,480,236,
4,558,563,336,476,234,
4,551,558,334,471,231,
4,544,550,3StartUp!
123,620,624,175,472,169,
0,614,619,175,470,209,
0,608,612,174,465,207,
0,602,607,173,462,206,
0,596,600,172,459,204,
0,591,595,171,455,203,
0,586,590,169,451,201,
0,580,583,168,449,199,
0,575,579,167,445,199,
0,571,574,167,441,198,
0,566,567,166,438,196,
0,571,560,164,467,195,
0,572,553,163,462,193,
0,565,547,162,456,192,
0,558,541,160,451,190,
0,551,536,159,448,188,
0,545,529,159,443,187,
0,540,521,157,438,185,
0,534,516,156,433,184,
0,528,511,155,429,183,
0,523,505,154,460,182,
0,575,500,153,455,180,
0,567,495,152,450,178,
0,560,490,155,445,176,
0,553,484,153,440,176,
0,547,480,152,436,174,
0,540,476,152,432,172,
0,534,470,151,427,172,
0,527,465,150,423,170,
0,522,460,148,419,169,
0,517,459,148,448,168,
0,608,455,147,443,167,
0,598,450,146,439,167,
0,590,446,167,434,166,
0,583,441,167,430,164,
0,575,438,167,425,163,
0,568,433,165,422,161,
0,562,429,163,416,161,
0,556,424,163,413,159,
0,549,422,161,409,158,
0,543,482,159,479,157,
0,595,476,159,472,156,
0,585,470,157,467,155,
0,578,464,207,463,153,
0,571,460,204,458,153,
0,564,455,203,453,152,
0,558,449,201,448,151,
0,551,444,199,443,150,
0,545,439,198,439,148,
0,539,434,196,435,147,
0,551,556,195,488,146,
0,615,548,193,483,145,
1,605,541,209,478,189,
1,598,535,230,472,187,
1,590,527,228,467,185,
2,583,521,226,463,184,
2,575,515,224,458,183,
2,569,508,222,452,181,
2,563,503,220,448,179,
3,556,497,219,459,178,
3,622,620,216,490,176,
3,643,611,215,484,175,
3,632,603,216,480,192,
3,624,595,215,474,190,
3,616,588,225,470,188,
3,608,580,223,464,187,
3,601,574,221,460,185,
3,594,564,219,454,184,
3,587,558,217,449,182,
3,580,551,216,513,180,
3,627,583,214,507,179,
3,619,575,211,500,177,
3,609,568,240,496,205,
3,601,560,236,490,203,
3,594,553,235,485,201,
3,587,547,232,480,199,
3,579,541,231,475,198,
3,573,534,229,470,196,
3,567,527,227,464,195,
3,560,522,225,471,193,
3,620,516,224,465,192,
3,609,510,221,460,190,
3,601,505,280,455,224,
3,593,499,277,451,221,
3,587,495,276,448,219,
3,579,489,273,443,217,
3,573,484,271,439,216,
3,566,478,269,433,213,
3,560,473,267,430,211,
3,553,470,264,460,210,
2,611,463,263,455,207,
2,600,460,260,450,207,
2,593,455,257,445,205,
2,585,451,255,441,204,
2,579,446,254,436,201,
2,572,442,252,432,199,
2,565,438,249,428,199,
3,560,433,248,423,197,
2,552,429,246,419,195,
2,563,527,243,460,194,
2,627,519,242,455,192,
1,616,514,240,450,192,
2,609,508,238,446,190,
2,601,502,236,440,188,
1,594,496,235,436,187,
2,587,491,232,432,185,
2,579,486,231,428,184,
2,573,479,230,423,183,
2,567,473,227,441,182,
2,622,501,226,468,179,
2,615,495,224,463,179,
2,606,489,228,459,182,
2,599,483,243,454,180,
2,591,478,295,449,179,
2,583,473,291,444,177,
3,577,467,287,440,176,
2,570,463,286,435,175,
2,563,457,283,431,174,
2,558,467,280,472,172,
3,633,540,278,465,171,
2,624,532,275,460,169,
3,614,526,273,455,167,
3,607,519,271,451,167,
2,600,514,268,446,166,
2,591,508,266,441,164,
2,584,502,263,438,163,
3,577,496,262,433,163,
2,571,489,259,428,161,
2,564,504,258,465,160,
3,623,497,255,460,159,
2,615,491,254,455,158,
2,604,486,252,449,207,
2,596,480,249,445,205,
2,590,475,248,440,203,
2,583,470,246,436,201,
2,575,465,243,432,199,
2,568,459,242,428,198,
2,562,455,240,423,196,
2,556,527,238,472,195,
2,641,519,236,467,193,
2,632,513,235,462,192,
2,623,507,247,457,191,
2,615,502,243,452,190,
2,608,496,241,448,188,
2,600,489,240,443,186,
1,593,484,237,439,184,
2,585,478,236,435,184,
1,579,472,233,430,182,
2,600,614,231,473,180,
1,647,604,230,467,179,
2,638,597,228,463,179,
1,627,589,240,457,177,
1,620,582,237,453,176,
1,611,575,235,448,174,
1,604,568,232,444,173,
1,597,561,231,440,172,
1,590,552,229,435,171,
1,583,547,227,455,169,
1,643,540,225,469,167,
1,636,534,224,463,167,
1,627,528,223,460,188,
1,617,523,220,455,185,
1,610,516,219,449,184,
1,603,511,217,445,182,
1,595,505,216,441,180,
1,588,500,214,436,179,
1,581,494,212,432,177,
1,575,488,211,485,176,
1,655,484,209,479,175,
1,646,480,207,473,186,
1,638,475,207,468,223,
1,627,470,204,463,220,
1,620,465,204,459,217,
1,611,460,203,454,216,
1,604,455,200,449,214,
1,597,451,199,445,212,
1,590,446,198,440,211,
1,583,502,196,468,209,
1,619,503,195,463,207,
1,611,496,194,457,206,
1,603,491,212,453,204,
1,593,486,209,448,202,
1,586,480,207,444,199,
1,579,475,206,440,199,
1,572,470,204,435,197,
1,567,464,203,431,195,
1,560,458,201,427,195,
1,554,509,199,476,192,
1,626,502,198,470,192,
1,617,496,196,464,190,
1,610,490,225,460,188,
1,600,484,223,455,187,
1,593,479,221,451,185,
1,586,473,219,446,184,
1,579,468,217,441,183,
1,572,463,216,437,181,
0,566,457,214,432,179,
0,584,540,212,480,179,
0,615,532,211,475,177,
0,608,526,208,470,176,
0,600,519,207,464,175,
0,591,513,205,460,174,
0,583,508,203,455,172,
0,575,502,201,450,171,
0,569,496,199,446,169,
0,563,491,199,441,167,
0,556,484,198,473,167,
0,607,592,195,492,188,
0,599,583,194,487,187,
0,591,575,194,481,185,
0,583,569,195,476,184,
0,575,562,193,472,183,
0,568,556,192,467,180,
0,561,548,190,462,179,
0,555,542,188,457,177,
0,548,536,188,453,176,
0,542,575,186,496,175,
0,609,676,185,490,173,
0,600,667,184,484,172,
0,593,657,209,480,227,
0,586,647,207,475,224,
0,577,639,204,470,223,
0,570,632,203,464,220,
0,563,624,201,460,218,
0,557,615,199,455,216,
0,551,608,198,451,215,
0,545,707,196,483,212,
0,620,705,195,478,211,
0,611,695,193,472,209,
0,604,685,210,467,207,
0,595,675,208,462,206,
0,587,667,224,457,204,
0,579,657,222,453,203,
0,572,649,220,448,201,
0,566,639,218,444,199,
0,560,632,216,440,198,
0,553,623,215,481,196,
0,605,615,212,476,195,
0,596,608,211,472,193,
0,590,600,222,466,192,
0,582,593,220,461,190,
0,574,587,217,456,188,
0,567,579,216,451,187,
0,560,573,214,448,185,
0,553,566,212,443,184,
0,547,560,211,439,183,
0,545,552,209,478,182,
0,568,546,207,472,180,
0,561,540,206,467,190,
0,555,535,221,462,188,
0,547,528,219,457,187,
0,540,523,216,452,184,
0,534,518,215,448,184,
0,528,512,214,444,182,
0,523,507,211,440,180,
0,518,502,209,435,179,
0,613,541,207,472,178,
0,604,534,206,467,176,
0,596,527,238,463,222,
0,590,521,237,457,220,
0,582,515,235,453,217,
0,573,509,231,448,216,
0,567,504,231,444,214,
0,560,497,228,440,211,
0,553,492,227,435,210,
0,547,487,225,457,208,
0,630,625,223,472,207,
0,620,615,221,466,205,
0,613,608,294,461,204,
0,605,600,289,455,201,
0,598,591,287,451,199,
0,588,585,283,448,198,
0,582,578,280,443,196,
0,575,571,279,439,195,
0,568,564,275,434,193,
0,561,558,273,477,192,
0,632,550,271,470,191,
0,624,543,269,464,189,
0,615,537,327,460,188,
0,608,531,322,455,186,
0,599,525,319,450,184,
0,591,519,315,446,184,
0,584,514,312,441,182,
0,578,508,310,436,180,
0,571,503,307,433,179,
0,565,611,304,483,177,
0,611,600,301,476,176,
0,603,591,299,472,181,
0,595,584,295,467,179,
0,588,577,294,462,177,
0,579,570,291,456,176,
0,572,563,288,452,174,
0,566,556,286,448,173,
0,559,550,284,443,172,
0,553,543,281,440,171,
0,595,537,280,468,169,
0,636,530,278,462,167,
0,628,524,275,457,223,
0,620,519,273,452,220,
0,611,512,271,448,218,
0,603,507,268,444,216,
0,595,502,266,440,214,
0,588,496,263,435,212,
0,581,491,262,431,211,
0,574,486,260,427,209,
0,628,550,258,483,207,
0,619,540,255,476,206,
0,611,534,254,471,204,
0,604,527,252,465,202,
0,595,521,251,461,200,
0,587,515,248,455,199,
0,579,510,246,451,197,
0,573,504,244,448,195,
0,567,498,243,443,194,
0,560,492,241,471,192,
0,635,600,239,476,191,
0,625,589,238,469,189,
0,616,581,236,463,188,
0,609,574,234,459,187,
0,601,567,231,455,185,
0,591,560,231,450,184,
0,585,553,228,446,182,
0,578,547,227,441,180,
0,572,540,225,436,179,
0,566,535,224,476,178,
0,627,527,223,470,176,
0,619,521,221,463,176,
0,611,516,219,459,174,
0,603,510,217,454,173,
0,595,504,217,449,172,
0,587,499,216,444,170,
0,579,494,215,440,168,
0,573,488,212,435,167,
0,567,484,211,432,167,
0,560,544,210,470,165,
0,577,537,208,464,164,
0,569,531,207,459,247,
0,563,524,206,454,242,
0,556,518,204,449,240,
0,550,512,203,444,238,
0,542,506,201,440,236,
0,536,500,199,435,233,
0,531,495,199,431,231,
0,526,489,197,428,230,
0,575,559,195,475,227,
0,609,548,194,470,225,
0,601,542,193,463,224,
0,595,536,195,459,222,
0,588,529,194,454,220,
0,580,523,192,449,219,
0,572,516,191,444,216,
0,564,511,190,440,215,
0,558,504,188,436,213,
0,551,499,187,432,211,
0,643,609,185,481,209,
0,633,598,184,476,207,
0,625,591,259,469,207,
0,616,583,255,464,205,
0,609,575,254,460,203,
0,601,568,252,455,201,
0,592,561,248,451,199,
0,585,555,247,446,199,
0,579,548,244,441,197,
0,572,542,243,476,195,
0,609,583,240,483,194,
0,601,574,239,478,192,
0,594,567,236,471,192,
0,586,560,235,465,190,
0,579,552,233,461,188,
0,572,546,231,455,187,
0,564,540,229,451,185,
0,558,534,227,448,184,
0,551,527,225,443,183,
0,545,585,224,478,182,
0,623,679,222,472,180,
0,615,668,220,467,179,
0,607,658,219,460,181,
0,599,649,217,455,179,
0,591,641,220,451,178,
0,584,632,219,447,177,
0,575,624,216,441,176,
0,569,616,215,438,174,
0,563,609,212,433,173,
0,556,630,211,473,172,
0,569,620,209,468,171,
0,563,610,207,463,169,
0,556,603,207,457,167,
0,550,595,205,452,167,
0,543,588,216,448,166,
0,537,581,214,444,164,
0,530,574,211,440,163,
0,524,568,209,435,162,
0,519,561,207,431,161,
0,542,566,206,491,159,
0,551,558,204,484,159,
0,543,551,203,479,177,
0,537,543,217,473,175,
0,531,537,216,468,173,
0,525,532,221,463,172,
0,519,526,219,459,171,
0,512,520,216,454,169,
0,507,515,215,449,167,
0,502,510,213,446,167,
0,566,644,211,482,165,
0,558,635,209,476,163,
0,551,624,262,471,170,
0,544,615,258,465,168,
0,538,608,255,460,167,
0,531,600,253,455,166,
0,526,591,251,451,164,
0,518,585,248,447,163,
0,512,578,246,442,161,
0,507,572,244,471,160,
0,563,628,242,474,159,
0,555,620,240,469,158,
0,548,610,238,463,157,
0,542,602,236,458,156,
0,536,595,235,454,155,
0,529,587,232,449,153,
0,523,580,231,444,152,
0,515,573,228,440,152,
0,510,566,227,435,150,
0,504,561,225,476,150,
0,567,603,223,470,148,
0,559,594,222,465,161,
0,551,585,220,459,197,
0,545,577,219,454,195,
0,540,570,216,449,193,
0,532,563,215,444,192,
0,527,556,214,440,190,
0,519,551,211,435,188,
0,513,543,210,432,187,
0,508,619,208,472,184,
0,538,609,207,466,184,
0,531,601,205,461,195,
0,526,591,263,455,195,
0,519,583,259,451,194,
0,513,577,257,446,192,
0,508,569,255,441,191,
0,502,563,253,436,189,
0,496,556,250,432,188,
0,491,550,248,428,186,
0,519,635,246,471,184,
0,518,625,244,465,183,
0,511,616,242,460,201,
0,505,607,243,454,199,
0,499,599,241,449,196,
0,494,591,240,445,195,
0,489,583,238,440,193,
0,483,577,236,436,192,
0,478,569,233,432,190,
0,473,563,231,428,189,
0,536,556,230,470,187,
0,527,550,228,464,185,
0,521,543,247,460,186,
0,515,536,248,454,184,
0,510,530,245,449,183,
0,504,524,243,444,182,
0,498,519,241,440,180,
0,493,513,239,435,179,
0,487,508,236,432,177,
0,481,527,235,476,176,
0,556,588,231,475,174,
0,548,580,231,469,173,
0,543,574,255,463,173,
0,536,564,254,458,172,
0,529,558,251,454,171,
0,524,551,249,449,169,
0,518,543,247,444,167,
0,512,537,244,440,167,
0,505,531,242,435,165,
0,499,591,240,472,164,
0,536,652,238,465,163,
0,528,643,236,460,161,
0,523,635,235,455,160,
0,516,624,232,449,159,
0,511,615,231,445,158,
0,504,608,229,440,157,
0,499,600,227,436,156,
0,492,592,225,432,155,
0,487,585,224,428,153,
0,483,649,222,472,152,
0,560,639,220,466,152,
0,552,630,218,462,160,
0,546,622,217,456,159,
0,540,611,215,451,158,
0,533,604,214,446,156,
0,527,596,211,441,155,
0,521,589,210,438,153,
0,514,582,209,433,152,
0,508,575,207,429,152,
0,540,569,206,483,150,
0,555,563,204,477,149,
0,547,556,203,472,167,
0,541,550,216,467,164,
0,535,542,220,461,163,
0,528,536,228,455,162,
0,523,530,227,451,160,
0,516,524,224,447,159,
0,510,519,223,443,158,
0,504,513,220,440,156,
0,574,610,219,476,155,
0,566,601,216,471,153,
0,559,593,235,465,188,
0,551,586,231,461,185,
0,545,577,231,455,184,
0,539,569,228,450,183,
0,532,563,227,446,182,
0,527,556,224,441,179,
0,519,550,223,437,178,
0,513,543,220,480,176,
0,556,537,219,474,175,
0,548,531,216,468,174,
0,542,526,216,463,218,
0,536,519,214,459,216,
0,529,512,211,453,215,
0,524,507,210,448,212,
0,518,502,208,444,211,
0,512,496,207,440,208,
0,504,492,205,435,207,
0,499,527,204,480,205,
0,551,549,201,474,203,
0,543,542,199,469,201,
0,537,536,231,463,199,
0,531,527,230,459,199,
0,525,521,227,454,197,
0,519,515,225,448,195,
0,513,509,224,444,193,
0,508,504,222,440,192,
0,500,497,220,435,191,
0,513,537,217,481,189,
0,579,529,216,475,188,
0,572,524,214,470,190,
0,566,518,246,465,188,
0,558,510,243,460,186,
0,551,504,241,455,185,
0,545,498,239,450,184,
0,539,492,238,446,182,
0,532,487,236,441,180,
0,525,482,233,437,179,
0,560,482,231,479,177,
0,563,476,229,473,176,
0,557,472,227,468,194,
0,550,467,230,463,192,
0,543,462,227,459,191,
0,537,457,225,452,189,
0,531,453,224,448,187,
0,525,448,222,444,185,
0,519,444,220,440,184,
0,512,440,219,444,183,
0,620,642,216,478,181,
0,610,632,215,472,179,
0,603,624,215,467,198,
0,595,615,214,462,195,
0,588,605,211,457,194,
0,580,598,210,451,192,
0,574,590,208,448,191,
0,567,583,207,443,189,
0,560,575,205,439,188,
0,552,569,204,475,186,
0,608,563,201,469,184,
0,600,556,199,463,183,
0,592,551,233,460,204,
0,585,543,231,455,202,
0,578,536,229,450,199,
0,571,530,227,444,199,
0,564,524,225,440,197,
0,558,519,224,435,195,
0,551,513,222,432,194,
0,543,528,220,459,192,
0,568,529,217,454,220,
0,561,524,216,448,217,
0,555,517,262,444,216,
0,547,511,258,440,214,
0,542,504,255,435,211,
0,536,499,254,430,210,
0,529,494,252,425,208,
0,524,487,249,422,207,
0,519,483,248,418,204,
0,536,521,244,473,203,
0,580,513,243,467,201,
0,572,508,240,463,199,
0,566,502,241,457,198,
0,559,496,239,452,196,
0,551,489,237,448,195,
0,545,483,235,443,193,
0,540,479,233,438,192,
0,534,473,231,433,191,
0,527,468,230,430,189,
0,580,580,227,473,188,
0,579,572,225,468,185,
0,572,564,224,463,189,
0,564,558,231,459,187,
0,558,551,230,454,185,
0,551,542,227,448,184,
0,544,536,225,444,183,
0,538,529,224,440,182,
0,532,524,222,435,180,
0,527,518,220,444,179,
0,615,642,218,477,177,
0,606,632,216,472,176,
0,599,624,217,467,178,
0,591,615,216,462,176,
0,583,608,214,456,175,
0,577,599,212,451,174,
0,570,591,211,446,172,
0,563,583,209,442,171,
0,557,577,207,438,170,
0,551,570,206,487,169,
0,593,565,204,481,167,
0,585,558,203,476,166,
0,578,551,201,471,165,
0,571,545,199,466,163,
0,564,540,199,461,163,
0,558,531,196,455,161,
0,551,526,195,451,160,
0,544,519,194,447,159,
0,539,515,193,442,158,
0,533,551,192,483,157,
0,564,566,190,478,156,
0,557,559,188,472,156,
0,551,551,192,467,156,
0,543,545,190,463,155,
0,537,539,188,457,153,
0,531,530,187,451,152,
0,526,524,185,448,152,
0,519,518,184,443,150,
0,515,512,184,439,149,
0,509,507,182,480,148,
0,575,502,180,475,147,
0,569,496,179,470,159,
0,562,491,188,465,158,
0,556,486,186,460,156,
0,548,481,184,455,155,
0,542,475,183,449,153,
0,536,470,182,445,152,
0,530,465,180,440,151,
0,524,461,179,436,150,
0,537,625,177,479,148,
0,598,615,176,473,147,
0,590,608,184,468,163,
0,583,600,185,463,162,
0,575,591,184,459,161,
0,568,585,183,454,159,
0,561,575,182,448,158,
0,555,568,179,444,157,
0,549,562,179,440,156,
0,542,556,177,457,155,
0,591,574,176,483,153,
0,589,566,174,479,152,
0,582,559,209,473,169,
0,575,551,206,468,167,
0,568,545,204,463,166,
0,561,540,202,459,165,
0,554,531,200,453,163,
0,547,526,199,448,162,
0,542,519,198,444,161,
0,536,515,195,475,159,
0,555,558,194,469,158,
0,546,551,192,463,157,
0,540,543,192,459,161,
0,534,537,191,455,159,
0,527,531,190,449,159,
0,521,525,188,445,158,
0,515,518,187,440,156,
0,510,511,185,435,155,
0,505,506,184,431,153,
0,500,501,183,488,153,
0,583,496,180,483,152,
0,574,491,179,477,185,
0,567,486,189,472,196,
0,560,480,187,467,194,
0,553,476,185,463,193,
0,547,472,184,457,191,
0,540,465,182,452,190,
0,534,460,181,448,188,
0,527,455,179,443,187,
0,523,542,178,476,185,
0,577,534,176,470,184,
0,570,527,175,465,183,
0,563,520,199,460,181,
0,556,515,198,455,179,
0,550,508,196,451,179,
0,543,503,195,446,177,
0,537,496,193,440,176,
0,531,491,192,436,174,
0,525,485,190,432,173,
0,526,588,188,474,172,
0,574,579,187,468,170,
0,568,572,185,463,170,
0,560,564,184,459,168,
0,553,557,183,454,167,
0,547,551,181,449,166,
0,540,543,179,445,164,
0,535,536,178,440,163,
0,528,529,177,435,162,
0,523,524,176,455,161,
0,567,545,174,472,159,
0,559,538,173,467,159,
0,551,532,174,463,163,
0,545,525,173,457,161,
0,539,519,173,453,160,
0,532,513,172,448,159,
0,526,508,171,444,158,
0,519,501,169,438,156,
0,515,496,167,434,156,
0,509,513,167,480,155,
0,583,551,166,474,153,
0,575,543,164,469,152,
0,568,537,172,463,151,
0,560,531,170,459,150,
0,553,524,169,455,148,
0,547,518,167,450,147,
0,541,512,167,446,146,
0,535,505,165,440,145,
0,528,499,164,435,144,
0,523,495,163,486,143,
0,603,489,161,480,142,
0,592,483,160,475,150,
0,585,479,196,469,192,
0,578,473,195,464,190,
0,571,468,193,460,188,
0,564,463,192,455,187,
0,558,458,190,450,185,
0,551,454,188,445,184,
0,545,449,187,440,183,
0,540,523,185,470,180,
0,567,515,184,463,179,
0,558,509,183,459,178,
0,551,504,198,454,176,
0,544,497,196,449,175,
0,539,492,195,444,174,
0,532,486,193,440,172,
0,527,480,192,435,171,
0,520,474,190,431,169,
0,515,469,188,427,168,
0,527,559,187,471,167,
0,572,551,185,465,166,
0,564,543,184,460,167,
0,557,537,198,455,166,
0,551,531,195,451,165,
0,543,524,193,446,163,
0,537,519,192,441,163,
0,531,511,191,438,161,
0,526,505,189,432,159,
0,519,499,188,456,159,
0,590,577,186,467,158,
0,583,569,184,462,156,
0,575,562,193,457,166,
0,568,555,199,452,163,
0,560,548,198,448,162,
0,554,542,195,444,161,
0,547,536,195,440,159,
0,542,527,192,435,159,
0,536,521,191,430,157,
0,529,569,190,468,156,
0,604,641,188,462,155,
0,595,632,187,457,153,
0,587,624,184,452,152,
0,579,615,184,448,152,
0,572,608,199,443,151,
0,566,600,198,439,150,
0,559,593,195,435,148,
0,551,583,194,430,147,
0,546,577,192,425,146,
0,540,571,192,466,144,
0,595,563,190,460,143,
0,588,557,188,455,143,
0,579,551,229,451,142,
0,572,543,227,446,140,
0,564,539,224,441,140,
0,558,532,223,438,139,
0,551,527,220,433,137,
0,545,519,219,429,137,
0,539,514,217,423,135,
0,534,545,216,475,135,
0,587,538,214,469,134,
0,579,531,212,464,172,
0,571,526,224,459,174,
0,563,519,222,455,172,
0,556,513,220,449,171,
0,550,507,217,445,169,
0,543,502,216,440,167,
0,537,495,214,436,167,
0,531,490,212,431,165,
0,551,595,210,476,163,
0,562,586,208,470,163,
0,555,579,207,465,169,
0,547,571,220,460,167,
0,540,564,217,455,166,
0,534,557,216,450,164,
0,527,551,215,446,163,
0,522,543,212,441,161,
0,516,536,211,436,159,
0,511,530,209,471,159,
0,577,524,207,476,158,
0,569,518,206,471,156,
0,562,513,212,465,187,
0,553,507,211,460,184,
0,547,501,209,455,182,
0,540,496,207,451,180,
0,535,491,206,447,179,
0,528,486,204,441,177,
0,523,480,203,436,176,
0,516,508,201,470,175,
0,569,563,199,463,174,
0,562,556,198,459,172,
0,556,548,209,454,189,
0,547,542,207,449,187,
0,540,536,205,445,184,
0,534,529,204,440,184,
0,527,523,202,436,182,
0,522,516,199,432,180,
0,516,509,199,427,179,
0,511,612,198,467,177,
0,583,603,195,461,176,
0,575,595,194,455,175,
0,568,587,199,451,173,
0,560,579,196,447,172,
0,553,572,195,442,170,
0,547,566,193,438,168,
0,540,559,192,433,167,
0,535,551,191,430,166,
0,528,543,189,423,165,
0,523,647,188,470,164,
0,571,636,187,464,163,
0,563,628,184,460,177,
0,556,620,192,455,176,
0,548,611,191,450,174,
0,542,604,190,446,172,
0,536,596,188,441,171,
0,529,589,186,436,169,
0,524,582,184,432,167,
0,518,574,184,428,167,
0,553,626,182,473,166,
0,586,616,180,468,164,
0,579,609,179,463,181,
0,572,600,196,458,179,
0,563,593,194,454,177,
0,556,585,192,449,176,
0,550,579,191,444,175,
0,543,572,190,440,173,
0,537,565,188,435,172,
0,531,557,187,473,171,
0,600,572,184,471,169,
0,591,564,184,465,167,
0,583,558,208,460,167,
0,577,551,207,455,166,
0,568,545,204,451,164,
0,561,539,202,447,163,
0,555,532,200,442,161,
0,548,527,199,438,160,
0,543,521,198,433,159,
0,536,536,196,479,158,
0,577,574,194,472,171,
0,569,567,192,467,169,
0,563,560,214,462,184,
0,556,552,211,457,183,
0,547,546,208,453,181,
0,542,540,207,448,179,
0,536,533,205,444,177,
0,529,527,204,440,176,
0,524,521,201,435,175,
0,518,589,199,478,174,
0,572,579,199,472,172,
0,564,572,197,467,171,
0,558,566,209,462,172,
0,551,558,207,457,171,
0,543,551,204,452,169,
0,536,545,203,448,167,
0,530,539,201,444,167,
0,524,532,199,440,165,
0,519,526,198,435,163,
0,513,587,196,473,163,
0,572,578,195,468,161,
0,566,571,193,463,166,
0,559,563,198,458,164,
0,551,556,195,454,163,
0,543,550,194,449,161,
0,537,543,192,444,160,
0,531,536,191,440,159,
0,526,531,189,435,158,
0,519,524,188,432,157,
0,556,572,186,474,156,
0,572,564,184,468,154,
0,566,557,184,463,153,
0,559,550,192,459,152,
0,550,543,191,454,151,
0,543,536,188,449,150,
0,537,531,188,445,148,
0,531,524,185,440,147,
0,525,519,184,436,147,
0,519,513,183,432,145,
0,598,572,182,480,144,
0,588,564,180,476,143,
0,582,558,187,471,166,
0,574,550,188,465,164,
0,566,543,187,460,163,
0,559,536,184,455,161,
0,551,531,184,451,159,
0,546,524,182,447,159,
0,540,519,180,443,158,
0,534,513,179,474,156,
0,593,556,177,472,155,
0,585,550,176,466,153,
0,578,543,183,462,152,
0,571,536,181,455,152,
0,563,529,180,451,150,
0,556,524,179,448,148,
0,550,518,177,443,147,
0,543,511,176,439,147,
0,536,506,174,434,145,
0,531,518,173,470,144,
0,593,551,172,463,143,
0,585,543,171,457,148,
0,578,537,195,452,161,
0,571,531,193,448,159,
0,562,525,192,444,158,
0,556,519,190,440,156,
0,550,513,188,435,155,
0,543,507,187,431,154,
0,536,502,185,427,152,
0,531,553,184,463,152,
0,600,545,182,456,151,
0,591,539,180,451,150,
0,583,531,187,448,148,
0,577,526,185,443,147,
0,568,519,187,438,145,
0,561,513,185,433,144,
0,555,508,184,430,143,
0,548,502,182,425,142,
0,543,496,180,422,141,
0,580,537,179,478,140,
0,600,530,178,471,139,
0,591,524,176,465,138,
0,584,517,183,460,137,
0,577,511,182,455,135,
0,568,505,180,451,135,
0,562,499,178,447,134,
0,556,494,176,441,133,
0,548,487,175,438,132,
0,543,483,174,433,131,
0,582,518,172,472,131,
0,574,511,171,465,129,
0,567,505,187,460,129,
0,560,499,186,455,127,
0,553,494,184,451,127,
0,545,487,183,446,127,
0,539,482,181,441,125,
0,532,478,179,437,124,
0,527,472,177,433,124,
0,521,468,177,468,123,
0,589,553,175,472,122,
0,581,547,174,466,121,
0,574,540,182,461,150,
0,567,533,180,455,148,
0,560,527,194,451,147,
0,551,520,192,448,146,
0,545,515,190,443,144,
0,539,508,188,438,143,
0,534,504,187,433,142,
0,527,511,185,468,141,
0,582,540,184,463,140,
0,575,534,182,456,157,
0,568,527,180,451,173,
0,560,521,179,448,172,
0,554,515,178,443,169,
0,545,509,176,439,168,
0,540,504,175,433,167,
0,533,497,174,430,166,
0,527,492,172,425,164,
0,522,551,171,466,163,
0,585,542,169,460,161,
0,578,536,167,455,198,
0,572,529,188,449,195,
0,564,523,187,445,193,
0,558,516,185,440,192,
0,550,511,184,436,191,
0,543,504,182,432,188,
0,536,499,180,428,187,
0,531,494,179,423,185,
0,583,646,177,463,184,
0,594,633,176,458,182,
0,587,625,175,452,180,
0,579,616,187,448,179,
0,572,608,184,443,178,
0,566,600,184,438,177,
0,557,593,181,433,175,
0,551,586,179,430,174,
0,543,579,179,425,172,
0,538,572,177,422,171,
0,593,566,176,467,169,
0,585,558,174,460,167,
0,578,551,195,455,167,
0,571,544,193,451,167,
0,563,539,192,447,165,
0,557,532,190,441,163,
0,549,526,188,438,163,
0,543,520,187,433,161,
0,536,515,185,429,159,
0,531,510,184,482,159,
0,603,549,182,478,158,
0,595,540,180,472,156,
0,588,534,216,466,197,
0,580,527,214,462,195,
0,573,521,212,456,193,
0,566,515,210,451,192,
0,558,510,207,448,190,
0,551,504,206,443,188,
0,545,499,204,439,187,
0,540,566,203,473,185,
0,591,571,201,467,184,
0,583,561,199,461,188,
0,576,555,207,455,201,
0,569,547,206,451,199,
0,563,541,204,447,198,
0,556,535,201,442,196,
0,547,528,199,438,194,
0,542,523,198,433,193,
0,536,516,196,430,192,
0,537,556,195,466,190,
0,591,547,193,461,188,
0,583,539,192,455,187,
0,577,532,207,450,185,
0,570,526,206,446,184,
0,563,519,204,441,183,
0,556,513,203,436,181,
0,548,508,200,432,179,
0,542,503,199,428,178,
0,536,497,198,423,177,
0,592,605,195,463,175,
0,603,596,194,457,174,
0,595,587,197,451,173,
0,588,579,201,447,172,
0,580,572,199,442,171,
0,574,566,198,438,169,
0,568,559,196,433,167,
0,559,551,194,429,167,
0,552,545,192,425,165,
0,546,539,191,432,164,
0,598,558,190,472,163,
0,590,551,188,465,161,
0,583,542,187,460,167,
0,575,536,185,455,166,
0,568,529,184,449,163,
0,561,524,184,446,163,
0,555,518,182,441,161,
0,547,512,180,436,159,
0,540,506,179,432,159,
0,535,500,177,475,158,
0,622,507,176,468,156,
0,613,500,175,463,155,
0,606,494,223,457,175,
0,598,488,220,452,174,
0,591,483,218,448,172,
0,583,478,216,444,171,
0,576,473,215,440,169,
0,568,469,212,435,167,
0,561,464,211,430,167,
0,556,511,209,478,165,
0,601,548,207,472,163,
0,594,541,206,467,167,
0,587,533,227,461,172,
0,579,527,225,455,170,
0,572,520,223,451,169,
0,566,514,221,447,167,
0,559,508,220,442,166,
0,551,503,217,438,164,
0,543,496,215,433,163,
0,543,536,214,493,161,
0,584,529,211,487,160,
0,577,523,210,482,167,
0,571,515,222,476,166,
0,563,508,220,471,164,
0,557,503,217,466,163,
0,551,497,216,461,161,
0,543,491,214,456,160,
0,536,486,211,452,159,
0,530,481,210,448,158,
0,582,622,208,490,173,
0,576,612,207,484,172,
0,569,604,205,480,180,
0,563,594,206,472,179,
0,556,587,204,467,177,
0,550,579,203,463,176,
0,543,572,200,459,174,
0,535,566,199,454,173,
0,529,559,197,449,171,
0,523,552,195,455,170,
0,595,589,195,497,188,
0,587,580,193,492,185,
0,579,574,192,487,184,
0,572,564,191,480,183,
0,566,558,189,475,181,
0,559,551,188,470,179,
0,551,543,187,465,178,
0,543,538,185,460,177,
0,537,532,184,455,175,
0,532,526,183,499,174,
0,595,555,180,492,172,
0,587,547,179,487,171,
0,579,539,188,482,169,
0,572,532,187,476,167,
0,566,526,185,471,167,
0,559,520,184,466,166,
0,552,515,182,461,164,
0,543,509,181,456,163,
0,539,504,179,452,161,
0,532,524,177,492,160,
0,580,561,176,487,159,
0,573,554,175,481,163,
0,567,547,199,476,163,
0,560,539,198,470,162,
0,552,532,195,465,161,
0,546,526,194,460,159,
0,540,519,192,455,158,
0,532,514,191,451,157,
0,527,508,189,447,156,
0,542,560,188,488,155,
0,589,551,186,483,153,
0,582,543,184,478,199,
0,574,536,212,472,195,
0,568,529,209,466,194,
0,560,523,207,462,192,
0,553,516,206,456,191,
0,547,511,204,452,189,
0,540,505,203,448,188,
0,534,499,200,444,185,
0,586,592,199,487,184,
0,585,583,198,482,183,
0,578,576,199,477,217,
0,572,568,204,472,215,
0,564,560,203,465,213,
0,558,553,200,461,211,
0,551,547,199,456,209,
0,544,540,198,451,207,
0,536,534,195,448,206,
0,531,528,194,459,204,
0,598,587,192,496,202,
0,589,579,191,489,200,
0,582,572,233,484,199,
0,575,563,231,480,198,
0,568,556,228,473,196,
0,561,550,227,468,195,
0,555,543,224,463,193,
0,548,536,223,459,192,
0,540,530,220,454,190,
0,534,524,219,504,188,
0,605,582,216,497,187,
0,596,574,215,492,185,
0,589,567,219,487,184,
0,582,558,217,481,183,
0,575,551,216,476,181,
0,568,544,214,471,179,
0,561,539,211,465,179,
0,555,531,210,461,177,
0,547,526,207,455,176,
0,541,550,207,491,175,
0,574,577,204,485,173,
0,568,569,203,480,172,
0,560,563,227,475,171,
0,553,554,224,470,169,
0,547,547,223,463,167,
0,540,541,220,459,167,
0,535,535,219,455,166,
0,528,527,217,449,164,
0,521,522,215,446,163,
0,543,573,214,480,162,
0,582,565,211,474,160,
0,574,558,209,470,159,
0,568,551,248,464,159,
0,560,542,244,460,158,
0,553,536,243,454,156,
0,547,529,240,449,155,
0,540,523,238,444,153,
0,535,518,236,440,152,
0,527,511,233,436,152,
0,582,577,231,484,152,
0,574,569,230,479,152,
0,567,562,228,473,150,
0,560,555,233,468,149,
0,552,547,231,463,148,
0,547,540,230,457,147,
0,540,534,227,453,145,
0,534,527,225,448,145,
0,527,521,224,444,143,
0,520,515,222,461,143,
0,590,592,220,487,142,
0,582,583,219,481,140,
0,575,577,224,476,188,
0,568,569,222,472,187,
0,560,560,220,465,185,
0,553,553,218,460,184,
0,547,547,216,455,182,
0,540,540,215,451,180,
0,535,534,213,447,179,
0,527,527,211,479,177,
0,580,600,209,472,176,
0,572,591,207,467,174,
0,566,583,211,463,173,
0,559,576,209,457,172,
0,551,568,207,451,170,
0,545,561,206,448,169,
0,540,555,204,443,167,
0,533,547,203,439,167,
0,527,542,201,434,166,
0,519,556,199,477,164,
0,591,561,198,472,166,
0,583,553,196,467,164,
0,575,547,218,462,163,
0,568,540,216,456,161,
0,562,532,214,451,160,
0,556,526,212,447,159,
0,549,519,211,441,158,
0,543,515,209,438,157,
0,536,509,207,433,156,
0,557,568,205,487,154,
0,582,559,203,481,153,
0,574,551,201,477,184,
0,567,545,214,472,182,
0,560,539,212,467,180,
0,553,531,210,460,179,
0,547,524,208,455,177,
0,541,519,207,451,176,
0,535,512,205,448,174,
0,528,507,204,443,173,
0,596,519,201,489,171,
0,588,512,199,483,170,
0,582,506,199,479,178,
0,574,500,197,473,176,
0,568,495,195,468,175,
0,560,488,194,462,174,
0,553,483,192,457,172,
0,547,479,191,453,171,
0,541,473,190,448,169,
0,536,469,188,470,167,
0,608,555,187,494,167,
0,599,547,185,487,182,
0,591,541,185,483,231,
0,583,534,184,478,230,
0,577,527,183,473,227,
0,569,519,181,467,225,
0,563,514,179,462,224,
0,557,508,179,457,222,
0,551,503,177,452,220,
0,543,497,176,486,218,
0,584,601,174,480,216,
0,577,593,173,475,224,
0,569,585,175,470,250,
0,563,578,174,464,248,
0,556,571,172,460,246,
0,550,563,171,454,243,
0,543,556,170,449,241,
0,536,548,168,444,239,
0,531,542,167,440,237,
0,525,575,167,486,235,
0,595,587,164,480,231,
0,588,579,163,475,231,
0,580,572,192,470,229,
0,573,564,190,465,227,
0,567,557,188,460,225,
0,560,549,187,455,224,
0,553,543,185,449,222,
0,547,536,184,446,220,
0,540,530,183,441,219,
0,535,597,181,489,216,
0,595,588,179,483,215,
0,588,580,177,479,212,
0,580,574,203,473,211,
0,574,566,200,468,209,
0,567,560,199,463,207,
0,560,551,198,457,206,
0,553,543,195,453,205,
0,547,537,194,448,204,
0,540,531,192,444,201,
0,615,567,191,494,199,
0,607,559,189,487,199,
0,599,551,217,483,198,
0,591,545,216,478,195,
0,583,539,213,472,195,
0,577,532,211,467,193,
0,570,524,209,462,192,
0,563,519,207,457,190,
0,557,513,206,452,189,
0,551,508,204,476,188,
0,591,569,203,491,187,
0,583,561,200,485,184,
0,575,555,209,480,217,
0,568,547,207,475,216,
0,561,541,205,470,214,
0,555,535,203,465,212,
0,548,527,201,459,210,
0,542,520,199,455,208,
0,536,515,199,449,207,
0,530,509,197,492,205,
0,595,575,195,487,204,
0,588,568,193,481,201,
0,580,560,192,476,214,
0,574,553,190,472,211,
0,567,547,189,466,209,
0,560,540,188,462,207,
0,553,532,186,455,206,
0,547,526,184,451,204,
0,540,519,184,447,203,
0,535,563,182,480,201,
0,587,561,180,473,199,
0,579,555,179,468,198,
0,573,547,187,463,196,
0,566,541,185,459,195,
0,559,535,185,454,193,
0,551,527,184,449,192,
0,546,519,182,444,190,
0,540,515,180,440,189,
0,533,509,179,435,188,
0,527,575,177,483,186,
0,588,567,176,477,184,
0,580,560,176,472,183,
0,574,552,210,467,182,
0,567,545,208,463,180,
0,560,539,206,457,179,
0,553,531,204,453,178,
0,547,525,203,448,176,
0,541,519,201,443,176,
0,535,513,199,439,174,
0,568,583,198,476,173,
0,589,575,196,472,172,
0,582,568,198,467,191,
0,575,560,195,462,188,
0,568,553,193,456,188,
0,560,547,192,451,185,
0,554,538,191,448,184,
0,547,532,189,441,183,
0,542,526,188,438,181,
0,536,519,187,468,179,
0,583,572,185,480,178,
0,573,564,184,474,176,
0,567,558,187,469,175,
0,560,551,185,463,174,
0,553,543,184,459,172,
0,546,537,183,455,171,
0,540,529,181,449,169,
0,534,524,179,444,168,
0,527,518,178,440,167,
0,522,529,177,494,167,
0,591,591,176,487,165,
0,582,583,174,483,164,
0,575,575,195,477,175,
0,568,568,192,472,174,
0,560,561,191,467,172,
0,554,554,190,463,170,
0,547,546,188,457,169,
0,541,540,186,451,167,
0,535,534,184,448,167,
0,529,596,184,496,165,
0,608,621,182,491,163,
0,598,612,179,485,163,
0,590,604,215,480,164,
0,583,596,212,475,163,
0,575,589,211,470,161,
0,569,582,209,465,160,
0,562,573,207,460,159,
0,556,566,206,455,158,
0,549,560,204,450,157,
0,543,553,202,499,156,
0,600,546,199,492,155,
0,590,540,199,487,169,
0,582,534,198,482,167,
0,575,527,196,477,166,
0,568,522,195,472,164,
0,561,516,193,467,163,
0,555,510,192,463,161,
0,548,504,190,456,159,
0,542,499,188,452,159,
0,580,588,187,502,158,
0,601,579,185,496,156,
0,592,572,207,491,214,
0,584,565,206,486,210,
0,577,559,204,480,208,
0,571,551,201,476,206,
0,563,544,199,471,204,
0,557,536,199,465,203,
0,551,531,196,460,201,
0,543,524,195,500,199,
0,619,568,193,507,198,
0,609,561,192,501,196,
0,600,554,195,496,195,
0,591,547,193,491,193,
0,584,540,192,486,192,
0,577,534,190,480,190,
0,571,527,188,476,188,
0,564,519,187,470,187,
0,558,514,185,464,185,
0,551,526,184,494,184,
0,635,591,183,487,183,
0,625,583,181,482,181,
0,615,575,198,477,180,
0,608,569,195,472,178,
0,600,562,195,467,177,
0,593,555,193,462,176,
0,586,548,192,457,174,
0,579,540,190,452,173,
0,572,535,188,448,172,
0,566,615,187,495,171,
0,643,627,185,489,169,
0,634,618,184,483,167,
0,624,610,189,479,167,
0,615,601,188,473,165,
0,608,595,186,468,164,
0,600,587,184,463,163,
0,593,580,183,459,161,
0,587,572,182,454,160,
0,580,564,180,449,159,
0,574,575,179,498,159,
0,627,568,177,492,158,
0,619,561,176,487,194,
0,609,555,193,482,192,
0,601,548,191,477,190,
0,595,542,190,472,188,
0,588,536,188,467,186,
0,580,529,187,463,184,
0,574,523,185,455,183,
0,568,517,184,452,182,
0,598,543,182,499,180,
0,612,537,180,494,179,
0,604,531,179,489,185,
0,595,524,179,483,184,
0,588,518,177,479,183,
0,581,512,176,473,180,
0,574,507,175,469,179,
0,568,501,174,463,177,
0,561,494,172,459,176,
0,554,489,171,498,175,
0,620,564,169,495,174,
0,611,556,168,489,172,
0,604,550,192,483,178,
0,595,543,191,479,176,
0,588,536,189,473,175,
0,580,529,188,468,173,
0,574,524,185,463,172,
0,567,518,184,460,171,
0,560,510,183,453,169,
0,553,551,182,496,167,
0,631,611,180,489,167,
0,622,603,178,484,166,
0,614,595,202,479,190,
0,604,588,199,473,187,
0,596,580,198,469,185,
0,589,573,196,463,184,
0,582,566,195,460,183,
0,575,560,193,455,181,
0,568,551,192,449,179,
0,563,673,190,491,178,
0,626,702,188,485,176,
0,617,691,187,480,190,
0,610,681,208,475,213,
0,600,671,206,470,211,
0,593,663,204,465,209,
0,585,654,201,460,207,
0,579,646,199,455,205,
0,572,637,199,451,204,
0,566,627,197,446,202,
0,560,643,195,492,199,
0,627,633,193,487,199,
0,620,625,192,482,197,
0,611,617,201,476,195,
0,602,610,199,472,193,
0,595,603,198,467,192,
0,588,595,195,462,191,
0,580,588,194,457,189,
0,574,582,193,452,188,
0,568,573,191,452,187,
0,617,639,190,490,184,
0,634,631,188,484,184,
0,625,624,187,480,182,
0,616,615,185,475,181,
0,608,607,184,470,179,
0,601,600,183,465,177,
0,593,591,181,460,176,
0,587,584,179,455,175,
0,579,577,178,451,174,
0,573,569,176,503,172,
0,641,613,175,499,171,
0,632,604,174,495,170,
0,624,597,198,489,171,
0,614,589,196,483,169,
0,606,582,194,479,167,
0,599,575,192,473,167,
0,591,568,191,469,166,
0,584,561,189,464,164,
0,577,555,188,460,163,
0,572,554,186,496,162,
0,643,575,184,489,161,
0,633,568,183,484,159,
0,626,560,199,480,166,
0,615,553,198,474,164,
0,608,547,196,470,163,
0,600,541,194,464,161,
0,594,536,193,460,159,
0,587,529,191,455,159,
0,579,524,190,451,158,
0,574,589,188,491,156,
0,624,579,187,486,187,
0,615,572,185,480,185,
0,608,566,194,475,184,
0,599,558,192,470,182,
0,591,551,191,465,179,
0,584,544,189,460,178,
0,577,539,188,455,177,
0,571,532,185,451,175,
0,564,526,184,447,174,
0,571,627,183,492,172,
0,646,617,182,486,171,
0,637,609,180,481,174,
0,629,601,222,476,172,
0,619,593,220,471,171,
0,611,587,217,465,167,
0,604,579,216,461,167,
0,596,572,214,455,166,
0,590,566,211,451,164,
0,583,557,210,448,163,
0,630,633,208,495,162,
0,624,624,207,489,161,
0,615,615,207,484,219,
0,608,608,223,479,216,
0,599,600,221,473,214,
0,591,591,219,469,211,
0,583,584,216,464,210,
0,577,577,215,460,208,
0,571,571,214,455,206,
0,564,563,211,451,205,
0,636,606,210,493,203,
0,626,598,207,487,201,
0,619,590,217,483,199,
0,610,583,216,478,199,
0,600,575,214,472,198,
0,594,568,211,467,195,
0,587,561,209,463,194,
0,579,555,207,457,192,
0,572,548,206,454,191,
0,566,583,204,497,190,
0,633,634,203,492,188,
0,624,625,201,487,187,
0,616,616,220,481,188,
0,608,608,218,476,187,
0,599,601,216,471,185,
0,591,593,214,466,184,
0,584,586,211,462,182,
0,577,579,210,456,180,
0,571,572,208,452,179,
0,564,608,207,500,177,
0,614,600,205,492,176,
0,606,591,204,487,175,
0,598,583,204,482,174,
0,591,575,203,477,172,
0,582,569,199,472,172,
0,575,563,199,467,169,
0,568,556,198,463,167,
0,561,550,195,457,167,
0,556,543,194,454,166,
0,571,664,193,490,165,
0,632,655,192,483,163,
0,623,646,190,478,163,
0,615,636,192,472,162,
0,608,628,190,467,161,
0,598,620,188,463,159,
0,591,612,187,458,158,
0,583,605,185,454,157,
0,577,598,184,449,156,
0,570,590,183,445,155,
0,615,632,182,487,153,
0,608,624,180,483,152,
0,600,615,179,478,152,
0,592,608,179,472,152,
0,585,600,177,467,151,
0,575,591,176,463,150,
0,569,584,175,459,148,
0,563,577,173,454,147,
0,556,571,172,449,146,
0,551,564,171,450,145,
0,628,622,169,490,144,
0,620,613,167,483,143,
0,611,605,177,478,159,
0,604,597,176,472,159,
0,596,590,175,468,157,
0,588,583,172,463,156,
0,580,575,172,459,154,
0,574,568,170,454,153,
0,568,561,168,449,152,
0,560,556,167,495,151,
0,624,609,166,487,150,
0,615,601,164,481,148,
0,608,593,176,476,147,
0,600,585,174,472,146,
0,592,578,174,466,145,
0,583,571,172,461,143,
0,576,564,170,456,143,
0,569,558,169,452,142,
0,563,551,167,448,140,
0,556,553,167,483,140,
0,626,575,165,476,142,
0,617,569,163,472,144,
0,610,562,190,466,146,
0,601,555,188,461,145,
0,595,548,187,455,143,
0,585,542,184,451,143,
0,579,536,184,448,141,
0,572,530,182,443,140,
0,565,524,180,439,139,
0,569,636,179,484,143,
0,603,624,177,478,142,
0,595,615,176,472,140,
0,588,607,185,467,139,
0,580,599,184,463,138,
0,574,591,182,457,137,
0,565,583,180,454,135,
0,559,577,179,448,135,
0,551,569,177,444,134,
0,546,563,176,440,134,
0,608,582,174,483,132,
0,602,572,172,476,131,
0,594,565,184,472,147,
0,587,558,196,467,145,
0,579,551,194,462,144,
0,573,545,192,457,143,
0,564,539,191,452,142,
0,558,532,189,448,140,
0,551,527,188,444,139,
0,545,521,186,449,138,
0,627,587,184,483,137,
0,617,575,183,477,135,
0,610,569,220,472,147,
0,601,562,217,467,145,
0,595,556,224,462,145,
0,588,548,221,457,144,
0,579,542,219,452,143,
0,572,536,217,448,142,
0,566,529,215,444,140,
0,559,524,214,499,140,
0,593,543,211,493,146,
0,585,534,209,486,145,
0,579,527,219,481,169,
0,571,521,216,476,167,
0,564,515,215,471,167,
0,558,510,212,465,165,
0,550,504,211,461,163,
0,543,499,209,455,162,
0,537,494,207,451,160,
0,532,522,206,487,159,
0,582,563,204,481,158,
0,575,553,203,476,157,
0,568,547,204,470,156,
0,560,540,201,465,155,
0,553,534,199,460,153,
0,547,527,199,455,152,
0,540,521,196,451,151,
0,534,515,195,447,150,
0,527,509,193,442,148,
0,543,556,192,483,147,
0,568,548,191,476,146,
0,560,539,189,471,152,
0,553,532,188,465,151,
0,547,527,187,460,150,
0,541,520,192,455,148,
0,535,514,191,451,147,
0,527,508,188,447,145,
0,521,503,187,443,144,
0,515,497,185,438,143,
0,588,523,184,487,142,
0,580,516,183,481,141,
0,573,508,203,475,206,
0,566,502,231,470,204,
0,559,496,228,465,201,
0,552,491,227,460,199,
0,544,486,225,455,198,
0,538,481,222,451,196,
0,532,476,220,447,194,
0,526,472,219,455,193,
0,593,467,216,480,192,
0,585,463,215,475,190,
0,577,457,227,468,189,
0,571,453,225,463,187,
0,563,449,223,459,185,
0,557,444,221,455,184,
0,548,440,219,449,183,
0,543,436,216,446,181,
0,536,432,215,440,179,
0,531,430,214,483,179,
0,608,527,211,476,176,
0,600,519,209,471,176,
0,593,512,231,464,176,
0,585,505,228,460,175,
0,578,499,227,455,173,
0,572,494,225,451,172,
0,563,488,223,446,171,
0,556,483,220,441,169,
0,550,478,219,437,167,
0,544,505,217,486,167,
0,632,534,216,480,166,
0,624,527,214,475,172,
0,615,519,242,468,179,
0,608,513,240,463,177,
0,600,507,238,459,176,
0,593,502,235,454,175,
0,584,496,233,449,173,
0,577,490,231,445,171,
0,571,484,229,440,170,
0,607,545,227,472,168,
0,647,537,225,467,167,
0,638,531,224,462,166,
0,630,523,231,455,164,
0,622,516,229,451,163,
0,614,511,227,447,162,
0,607,504,225,442,161,
0,598,499,224,438,159,
0,591,493,221,433,159,
0,583,487,220,430,158,
0,674,607,217,490,172,
0,664,598,216,484,170,
0,654,588,215,479,169,
0,646,580,212,472,167,
0,638,573,211,467,166,
0,630,566,209,463,164,
0,622,559,207,458,163,
0,612,552,206,453,162,
0,604,546,204,449,160,
0,598,540,203,465,159,
0,659,671,201,483,158,
0,649,662,199,478,156,
0,639,650,198,472,159,
0,632,641,196,467,157,
0,624,633,195,462,156,
0,616,624,193,456,155,
0,609,616,192,452,153,
0,600,609,191,448,152,
0,593,601,189,443,152,
0,586,594,188,487,150,
0,643,588,186,480,149,
0,635,581,185,475,147,
0,627,572,192,470,152,
0,619,566,190,463,150,
0,611,560,188,459,148,
0,604,553,187,455,147,
0,596,547,185,449,147,
0,587,540,184,445,145,
0,580,535,183,440,143,
0,575,550,181,486,143,
0,639,545,179,480,142,
0,632,539,178,474,160,
0,624,531,192,469,159,
0,615,524,190,463,157,
0,608,519,188,459,156,
0,601,513,187,454,154,
0,593,508,185,449,153,
0,585,504,184,445,152,
0,578,497,182,440,151,
0,615,575,180,504,163,
0,648,567,179,497,161,
0,639,559,177,492,160,
0,632,551,192,487,159,
0,624,543,191,480,158,
0,615,537,189,476,156,
0,608,531,188,471,155,
0,601,524,185,466,153,
0,591,519,184,462,152,
0,584,513,183,456,151,
0,630,570,181,486,150,
0,621,562,179,480,148,
0,613,555,178,476,150,
0,605,547,231,470,148,
0,598,540,228,463,147,
0,591,534,226,459,146,
0,583,527,224,455,145,
0,575,521,222,450,143,
0,568,515,220,446,143,
0,562,510,218,467,142,
0,635,651,216,483,140,
0,626,641,215,478,140,
0,619,632,213,472,172,
0,610,622,211,467,171,
0,603,614,209,462,169,
0,595,606,208,456,167,
0,588,598,207,451,167,
0,581,591,205,448,166,
0,572,583,203,443,163,
0,566,577,201,487,162,
0,579,606,199,481,161,
0,572,598,199,476,159,
0,566,590,199,472,163,
0,559,580,199,465,162,
0,553,574,197,460,161,
0,547,567,195,455,159,
0,541,560,194,451,158,
0,536,553,192,447,157,
0,527,547,191,442,156,
0,523,585,190,493,155,
0,582,595,188,487,153,
0,574,588,187,482,208,
0,568,580,187,476,214,
0,560,572,185,471,211,
0,553,564,184,465,209,
0,547,558,183,460,207,
0,540,551,181,455,207,
0,535,544,179,451,204,
0,527,538,178,448,203,
0,557,582,176,483,201,
0,564,573,176,478,199,
0,557,566,174,473,199,
0,551,559,196,468,197,
0,543,550,194,462,195,
0,537,543,192,457,193,
0,531,537,191,452,192,
0,526,531,189,448,191,
0,519,525,188,444,189,
0,513,519,185,440,188,
0,568,514,184,467,186,
0,560,508,183,462,184,
0,552,504,182,457,184,
0,546,497,180,452,182,
0,540,492,203,447,180,
0,534,487,199,442,179,
0,527,481,199,438,177,
0,521,476,196,433,176,
0,515,472,195,430,175,
0,508,467,193,451,174,
0,573,463,192,454,172,
0,566,458,190,449,171,
0,559,455,195,444,169,
0,551,449,193,440,167,
0,545,444,192,434,167,
0,539,440,190,430,166,
0,532,436,188,425,164,
0,527,432,187,422,163,
0,520,428,185,418,162,
0,513,432,184,447,161,
0,583,471,182,441,159,
0,577,464,180,436,170,
0,569,460,190,432,194,
0,563,455,188,428,192,
0,556,448,188,423,191,
0,550,444,186,419,189,
0,543,439,184,415,188,
0,536,433,183,411,186,
0,531,430,182,408,184,
0,524,459,179,452,183,
0,568,453,179,448,182,
0,561,448,177,443,191,
0,555,443,179,438,189,
0,548,438,179,433,188,
0,542,432,190,428,185,
0,536,428,188,423,184,
0,529,423,186,420,183,
0,524,419,184,415,182,
0,518,415,183,412,179,
0,570,463,181,455,178,
0,603,456,179,451,177,
0,595,451,178,447,176,
0,588,447,195,441,174,
0,579,441,194,438,173,
0,573,435,193,432,172,
0,566,431,192,428,170,
0,560,427,191,423,169,
0,553,422,189,419,167,
0,547,418,187,415,167,
0,630,473,185,455,164,
0,620,467,184,451,163,
0,612,463,184,447,162,
0,605,457,182,441,161,
0,597,452,189,438,159,
0,590,446,188,432,159,
0,583,441,185,428,158,
0,575,436,184,423,156,
0,569,432,183,419,155,
0,561,433,182,457,154,
0,649,532,179,457,152,
0,639,526,177,453,152,
0,632,519,222,448,152,
0,624,513,219,444,151,
0,615,507,216,440,150,
0,608,499,215,433,148,
0,601,494,213,429,147,
0,593,488,211,425,147,
0,587,483,209,421,145,
0,578,479,207,471,144,
0,627,473,206,465,143,
0,619,467,204,460,143,
0,611,463,216,455,141,
0,604,458,214,450,140,
0,596,454,211,446,139,
0,589,448,210,440,138,
0,582,443,208,435,137,
0,575,439,207,432,135,
0,568,434,205,427,135,
0,575,431,204,460,135,
0,659,426,201,455,134,
0,651,422,199,451,189,
0,643,418,230,446,186,
0,634,414,227,441,184,
0,627,410,226,436,183,
0,619,406,224,431,180,
0,611,402,223,427,179,
0,604,399,220,423,178,
0,596,396,219,419,176,
0,635,465,217,461,175,
0,639,459,215,455,173,
0,631,454,213,451,261,
0,623,449,232,447,257,
0,615,444,231,441,255,
0,608,440,228,438,252,
0,600,432,227,432,249,
0,592,428,224,428,248,
0,585,423,223,423,246,
0,579,419,221,419,243,
0,631,466,219,449,241,
0,622,460,217,444,239,
0,614,455,224,440,250,
0,606,450,222,435,248,
0,599,445,227,432,246,
0,591,440,225,427,243,
0,583,435,223,422,241,
0,577,430,221,418,239,
0,571,425,219,414,237,
0,564,423,217,455,236,
0,627,435,216,454,233,
0,619,430,214,448,231,
0,611,425,215,444,229,
0,603,420,212,440,227,
0,595,416,219,435,225,
0,588,412,217,431,224,
0,581,408,216,425,222,
0,575,403,213,422,220,
0,568,399,211,417,219,
0,561,404,210,460,217,
0,627,431,208,454,216,
0,619,426,206,449,214,
0,611,422,224,444,211,
0,604,417,221,440,210,
0,595,412,219,435,208,
0,588,408,217,431,207,
0,582,403,216,425,206,
0,575,399,214,422,204,
0,568,396,212,417,203,
0,562,430,211,455,201,
0,621,423,208,451,199,
0,613,419,207,446,199,
0,606,415,225,441,197,
0,598,411,223,436,195,
0,590,407,221,432,194,
0,583,401,219,428,192,
0,575,397,217,423,191,
0,569,393,216,419,190,
0,563,390,214,415,188,
0,558,455,211,449,188,
0,614,450,209,444,185,
0,606,445,207,440,209,
0,598,440,207,435,207,
0,591,435,206,431,206,
0,583,431,204,426,204,
0,575,425,203,422,201,
0,569,420,200,417,199,
0,563,415,199,413,199,
0,556,412,198,411,198,
0,611,563,196,446,195,
0,634,556,195,441,194,
0,626,548,196,436,192,
0,617,541,195,432,191,
0,610,535,193,428,190,
0,603,528,192,423,188,
0,595,520,190,419,186,
0,588,515,188,415,185,
0,581,509,187,411,184,
0,574,504,185,459,183,
0,645,574,184,452,181,
0,633,566,183,448,179,
0,625,559,201,444,178,
0,617,551,199,439,177,
0,609,545,199,435,176,
0,602,539,197,430,174,
0,595,531,195,425,174,
0,588,525,193,420,172,
0,580,519,192,416,171,
0,574,513,191,457,169,
0,623,507,189,452,168,
0,611,502,187,448,167,
0,604,496,216,443,170,
0,596,491,214,439,168,
0,589,486,211,434,167,
0,582,481,210,430,166,
0,575,475,207,424,165,
0,568,470,207,420,163,
0,562,465,205,415,163,
0,556,502,204,478,161,
0,627,495,201,472,160,
0,615,489,199,467,159,
0,608,483,228,463,158,
0,600,478,226,457,157,
0,593,472,224,453,156,
0,585,467,223,448,155,
0,579,461,221,443,153,
0,572,456,219,439,152,
0,566,452,217,435,152,
0,563,551,216,467,151,
0,634,543,214,461,150,
0,624,536,211,456,158,
0,615,530,219,451,156,
0,608,524,217,447,155,
0,600,518,216,443,153,
0,593,512,214,438,152,
0,585,504,211,432,151,
0,579,499,210,428,150,
0,572,494,208,433,148,
0,595,503,207,465,147,
0,592,496,205,460,146,
0,583,491,217,455,158,
0,575,486,215,451,156,
0,569,480,231,447,156,
0,563,475,229,441,154,
0,556,470,227,438,152,
0,550,463,225,432,152,
0,543,459,223,428,151,
0,538,457,222,464,150,
0,612,516,220,458,147,
0,604,510,217,454,147,
0,595,504,241,448,188,
0,587,499,238,444,187,
0,580,492,236,440,185,
0,573,487,234,435,184,
0,566,481,231,431,182,
0,560,475,230,425,180,
0,553,470,228,422,179,
0,547,506,227,481,177,
0,619,514,224,475,176,
0,609,508,223,470,175,
0,600,502,236,464,182,
0,592,496,234,460,179,
0,585,490,231,455,179,
0,578,484,230,451,177,
0,572,480,227,446,176,
0,564,473,226,440,174,
0,559,467,224,436,172,
0,551,615,223,480,172,
0,625,606,220,473,169,
0,616,598,219,468,169,
0,607,590,221,463,167,
0,600,582,219,459,166,
0,591,575,217,454,165,
0,585,568,216,449,163,
0,578,561,214,445,163,
0,572,552,212,440,161,
0,564,547,211,435,159,
0,567,611,209,472,159,
0,620,601,207,466,158,
0,612,593,206,462,167,
0,603,587,219,456,166,
0,595,579,217,451,164,
0,588,572,216,448,163,
0,580,565,214,443,161,
0,574,558,211,439,159,
0,568,550,210,433,159,
0,560,543,208,448,158,
0,608,559,207,479,156,
0,603,551,205,473,155,
0,595,544,204,467,167,
0,585,538,225,463,166,
0,579,532,223,458,164,
0,571,526,222,454,163,
0,564,519,220,449,161,
0,558,515,217,444,160,
0,551,508,216,439,159,
0,545,503,214,487,158,
0,636,561,212,481,156,
0,627,555,210,476,162,
0,617,547,218,471,239,
0,608,540,216,466,236,
0,601,535,214,462,233,
0,593,527,212,456,231,
0,587,521,210,452,230,
0,579,515,208,448,227,
0,573,508,207,441,225,
0,567,572,205,480,224,
0,624,579,204,475,222,
0,615,572,202,470,220,
0,605,564,217,464,219,
0,598,558,214,460,216,
0,590,551,212,455,215,
0,583,543,211,451,213,
0,575,537,209,446,211,
0,569,531,207,441,209,
0,563,524,206,436,207,
0,556,636,204,472,207,
0,620,625,202,467,204,
0,611,616,199,462,203,
0,602,608,199,457,201,
0,595,600,198,452,199,
0,588,593,195,448,198,
0,580,585,195,444,196,
0,574,579,193,439,195,
0,567,572,192,435,194,
0,560,563,190,430,192,
0,571,661,189,470,191,
0,610,651,188,465,190,
0,602,642,185,460,188,
0,592,633,185,455,187,
0,585,625,184,451,185,
0,578,617,182,446,184,
0,572,609,181,441,183,
0,564,601,179,437,181,
0,558,594,178,432,179,
0,551,585,176,451,179,
0,622,654,176,477,177,
0,614,644,174,472,176,
0,606,636,174,467,175,
0,596,627,178,462,174,
0,588,620,176,457,172,
0,582,611,175,452,171,
0,575,604,174,448,169,
0,568,596,172,444,167,
0,561,588,172,440,167,
0,555,580,170,482,166,
0,629,639,168,476,165,
0,620,631,167,471,163,
0,611,623,169,465,163,
0,602,615,167,460,161,
0,595,607,167,455,159,
0,588,599,166,451,159,
0,580,591,163,447,158,
0,574,583,163,443,156,
0,567,575,161,438,156,
0,560,605,161,483,155,
0,629,596,159,476,153,
0,620,588,159,472,152,
0,612,581,182,467,157,
0,603,574,179,462,156,
0,595,567,178,456,154,
0,588,560,176,451,152,
0,581,553,175,448,152,
0,574,547,174,443,151,
0,568,540,172,439,150,
0,561,632,171,483,148,
0,628,622,169,477,147,
0,620,614,167,472,152,
0,611,606,186,467,154,
0,601,598,184,462,152,
0,595,590,187,457,152,
0,588,583,185,452,150,
0,580,575,184,448,148,
0,574,569,182,444,147,
0,567,560,180,440,147,
0,583,635,179,472,145,
0,611,625,177,466,144,
0,604,617,176,461,159,
0,595,609,178,455,157,
0,587,601,176,451,156,
0,579,593,175,447,153,
0,572,587,174,443,153,
0,566,579,172,438,152,
0,560,572,171,433,151,
0,553,564,169,430,150,
0,629,627,167,475,147,
0,622,619,167,469,147,
0,613,611,179,464,185,
0,606,603,201,459,184,
0,596,595,203,455,182,
0,589,588,201,450,180,
0,582,580,199,446,179,
0,575,573,198,441,177,
0,568,567,196,437,176,
0,561,568,195,456,175,
0,653,638,193,489,172,
0,643,629,192,484,172,
0,636,620,193,479,179,
0,627,613,192,473,178,
0,617,605,189,468,176,
0,609,597,188,463,175,
0,602,590,186,460,174,
0,595,583,184,455,172,
0,588,575,184,450,171,
0,582,569,182,490,169,
0,655,562,180,483,167,
0,646,555,179,477,167,
0,638,549,181,472,166,
0,630,543,179,467,164,
0,620,536,177,463,163,
0,611,531,176,457,161,
0,604,525,175,452,160,
0,598,519,174,448,159,
0,590,513,172,444,158,
0,583,556,171,480,157,
0,652,549,169,475,156,
0,643,542,167,470,154,
0,636,536,199,464,153,
0,627,529,197,460,152,
0,617,523,199,455,151,
0,609,517,198,451,150,
0,603,511,196,446,148,
0,595,505,194,441,147,
0,588,500,192,438,146,
0,583,580,191,483,163,
0,596,572,190,479,160,
0,589,566,188,473,161,
0,582,558,187,468,159,
0,575,551,185,463,159,
0,567,544,187,459,157,
0,560,538,185,454,156,
0,554,531,184,449,154,
0,548,526,182,445,153,
0,542,519,180,440,152,
0,600,514,179,478,151,
0,591,508,177,472,150,
0,584,503,221,467,162,
0,577,497,241,463,160,
0,570,492,239,458,159,
0,562,487,236,454,158,
0,556,482,234,448,156,
0,548,478,231,444,155,
0,543,472,231,440,153,
0,536,468,228,455,152,
0,621,542,227,472,152,
0,612,535,225,467,151,
0,604,528,272,462,161,
0,596,521,269,456,159,
0,589,515,273,451,159,
0,579,510,270,448,157,
0,573,504,268,443,156,
0,567,498,265,439,154,
0,560,492,263,434,153,
0,553,487,261,485,152,
0,624,510,259,478,151,
0,615,504,255,472,150,
0,608,497,255,467,161,
0,600,492,252,462,159,
0,593,487,280,457,158,
0,583,481,276,453,156,
0,577,476,273,448,155,
0,571,472,271,444,153,
0,564,466,269,440,152,
0,558,539,267,480,152,
0,611,548,263,473,150,
0,603,542,262,468,149,
0,595,536,260,463,147,
0,588,528,258,459,147,
0,580,523,291,454,145,
0,572,516,287,449,144,
0,565,511,285,444,143,
0,559,504,283,440,142,
0,551,499,280,435,142,
0,587,654,278,486,140,
0,607,651,275,479,140,
0,600,642,273,473,139,
0,591,633,271,468,137,
0,583,624,268,463,137,
0,577,617,273,458,135,
0,568,609,270,454,135,
0,562,601,268,449,134,
0,556,594,265,444,133,
0,549,587,263,440,132,
0,622,608,260,477,131,
0,612,598,259,471,131,
0,605,591,315,465,129,
0,598,583,339,460,129,
0,590,575,335,455,127,
0,583,569,332,451,127,
0,574,563,327,447,126,
0,568,556,326,442,125,
0,560,550,323,438,124,
0,554,543,319,460,124,
0,573,627,316,475,143,
0,566,615,314,468,141,
0,559,608,312,463,140,
0,551,600,308,458,139,
0,545,592,306,454,137,
0,538,585,304,449,136,
0,532,578,300,444,135,
0,527,572,298,440,134,
0,521,564,295,435,132,
0,516,558,294,492,131,
0,611,608,291,486,131,
0,602,598,289,479,131,
0,595,590,319,473,129,
0,587,583,316,469,129,
0,580,575,312,463,127,
0,571,568,310,460,127,
0,564,561,307,455,126,
0,558,555,304,450,124,
0,551,548,301,446,124,
0,546,769,299,481,123,
0,624,787,295,476,122,
0,615,771,294,468,121,
0,607,760,291,463,121,
0,600,748,289,459,120,
0,591,737,287,455,119,
0,583,727,284,449,119,
0,575,716,281,445,118,
0,569,707,280,440,117,
0,563,697,277,436,116,
0,603,688,275,476,115,
0,632,679,273,472,115,
0,623,668,271,465,143,
0,615,659,268,460,141,
0,607,651,267,455,140,
0,600,643,264,451,139,
0,591,635,263,446,137,
0,583,627,260,441,135,
0,576,620,258,437,135,
0,569,612,257,433,134,
0,577,670,255,481,133,
0,571,660,253,476,131,
0,563,649,280,468,184,
0,557,639,277,463,181,
0,551,632,327,459,179,
0,544,624,323,455,178,
0,537,615,319,449,176,
0,531,608,316,445,174,
0,526,601,313,441,173,
0,519,594,311,467,172,
0,617,715,307,476,170,
0,608,701,305,472,169,
0,600,691,423,465,172,
0,592,681,416,460,171,
0,585,671,412,455,169,
0,579,664,408,451,167,
0,569,655,403,446,167,
0,563,646,399,441,165,
0,557,638,395,438,163,
0,551,670,391,492,163,
0,694,659,387,485,161,
0,683,647,384,480,159,
0,674,639,416,473,159,
0,665,632,501,468,158,
0,656,623,495,463,157,
0,647,615,489,459,156,
0,638,608,484,455,155,
0,631,600,478,449,153,
0,623,593,473,445,152,
0,615,587,468,494,152,
0,608,580,463,487,150,
0,600,572,460,483,165,
0,594,566,455,476,163,
0,587,560,451,472,162,
0,580,553,518,467,160,
0,574,547,512,462,159,
0,566,542,506,457,158,
0,560,536,499,452,156,
0,553,530,494,448,155,
0,547,600,489,498,153,
0,542,591,484,492,152,
0,536,583,480,487,152,
0,530,575,475,480,151,
0,524,568,470,475,149,
0,519,561,465,471,148,
0,514,554,461,465,147,
0,508,547,455,461,146,
0,503,541,451,455,145,
0,497,535,448,452,143,
0,550,614,443,487,143,
0,542,605,440,483,142,
0,535,595,435,478,195,
0,528,588,432,472,192,
0,523,580,476,467,191,
0,516,573,470,462,189,
0,511,668,465,457,188,
0,504,657,459,452,185,
0,498,647,455,448,184,
0,493,639,451,483,183,
0,492,632,446,486,181,
0,487,623,441,481,179,
0,481,613,437,476,178,
0,477,605,432,470,176,
0,472,598,428,464,175,
0,468,590,425,460,174,
0,463,583,422,455,172,
0,459,575,416,451,171,
0,455,569,413,446,169,
0,451,601,409,494,167,
0,460,813,406,487,179,
0,455,799,403,482,178,
0,451,783,399,477,179,
0,446,771,396,471,177,
0,441,760,392,465,176,
0,438,748,390,461,175,
0,434,737,386,456,174,
0,430,727,382,451,172,
0,425,717,380,448,170,
0,422,707,376,489,169,
0,419,697,461,483,167,
0,415,688,455,479,198,
0,412,677,451,472,195,
0,408,668,446,467,193,
0,404,659,441,463,192,
0,401,652,438,457,190,
0,398,643,433,453,189,
0,393,636,428,448,187,
0,391,627,423,444,185,
0,388,620,419,494,184,
0,392,614,515,488,183,
0,389,606,664,483,220,
0,385,598,685,476,217,
0,382,590,675,472,216,
0,380,583,667,467,214,
0,376,577,658,462,211,
0,374,571,650,457,210,
0,369,564,639,452,207,
0,367,558,633,449,206,
0,466,786,625,493,204,
0,467,772,644,487,203,
0,462,760,866,483,201,
0,457,745,880,476,199,
0,452,735,865,471,199,
0,447,723,851,466,196,
0,443,713,839,462,195,
0,438,704,826,456,193,
0,432,695,812,451,192,
0,428,685,800,495,191,
0,425,676,790,491,189,
0,422,667,779,486,188,
0,417,659,768,480,231,
0,413,647,759,473,230,
0,409,639,748,469,228,
0,405,632,739,463,225,
0,401,624,729,460,224,
0,398,617,721,455,222,
0,393,610,710,450,220,
0,390,679,702,499,218,
0,502,816,694,493,216,
0,496,801,685,487,215,
0,489,789,807,482,212,
0,483,774,794,476,211,
0,479,762,783,471,209,
0,473,751,771,466,207,
0,468,739,760,461,206,
0,463,729,750,456,204,
0,457,719,738,451,203,
0,454,710,728,496,201,
0,453,700,719,491,199,
0,448,691,710,486,198,
0,444,681,701,480,196,
0,440,670,692,474,195,
0,435,662,684,469,193,
0,431,654,675,464,192,
0,427,646,668,460,191,
0,423,638,661,455,189,
0,417,630,652,451,188,
0,474,735,644,492,186,
0,477,723,639,487,185,
0,472,712,632,483,186,
0,467,703,625,478,185,
0,462,691,835,472,184,
0,455,680,897,466,182,
0,451,671,880,462,180,
0,447,663,867,456,179,
0,443,654,854,451,178,
0,437,646,837,449,176,
0,515,659,825,495,175,
0,508,650,814,489,174,
0,502,641,801,483,184,
0,496,633,792,479,182,
0,489,624,780,472,180,
0,484,615,770,467,179,
0,480,608,760,463,177,
0,474,601,750,457,176,
0,470,595,740,453,175,
1,463,588,730,502,173,
1,459,652,719,496,172,
1,454,643,711,490,171,
1,449,634,756,484,206,
1,445,625,745,480,204,
1,440,615,810,473,202,
1,436,608,797,468,199,
1,432,600,785,463,199,
1,428,591,774,459,197,
1,423,585,763,455,195,
1,419,579,751,497,193,
1,532,572,740,492,192,
1,525,566,731,486,209,
1,519,560,721,481,222,
1,512,553,711,476,220,
1,507,547,704,470,217,
2,502,540,695,464,216,
1,496,535,687,460,214,
1,491,529,679,455,211,
1,484,524,671,451,210,
1,480,694,662,483,208,
1,474,771,654,477,207,
1,469,760,647,472,207,
1,464,748,639,467,205,
1,460,736,632,462,204,
1,455,723,626,455,201,
1,451,713,620,451,199,
1,446,703,613,448,199,
1,441,694,607,443,197,
1,436,684,600,439,195,
1,494,852,799,482,194,
1,540,835,783,476,192,
1,534,822,894,472,192,
1,527,809,908,466,191,
1,521,796,908,461,189,
1,515,781,889,455,188,
1,510,769,874,451,186,
1,504,759,861,446,184,
1,499,748,848,441,184,
1,492,737,835,445,182,
1,492,728,821,487,180,
1,487,717,830,483,179,
1,482,707,892,477,177,
1,477,697,876,472,176,
1,472,688,862,467,175,
1,467,677,849,461,174,
1,463,668,836,456,172,
0,458,660,824,451,172,
1,454,652,812,448,169,
0,448,644,801,480,169,
1,473,727,787,473,167,
1,467,716,777,467,166,
0,463,705,768,463,165,
1,457,696,757,458,163,
1,453,683,852,454,163,
0,448,673,839,448,161,
0,444,664,825,444,160,
0,440,655,814,439,159,
0,435,647,801,435,158,
0,431,675,792,492,157,
0,543,685,777,486,156,
0,537,675,767,481,192,
0,531,665,756,476,204,
0,524,656,747,471,201,
0,519,646,737,466,199,
0,512,637,728,460,198,
0,507,630,719,455,196,
0,502,622,711,451,195,
0,496,615,702,447,193,
0,513,763,694,496,192,
0,573,751,684,491,190,
0,566,739,675,486,195,
0,559,728,668,480,193,
0,551,718,660,476,192,
0,545,705,653,471,190,
0,539,696,646,464,188,
0,533,686,639,460,187,
0,527,676,632,455,185,
0,521,668,764,451,184,
0,514,659,752,488,183,
0,508,650,739,483,180,
0,504,642,728,478,199,
0,498,634,895,473,198,
0,493,626,909,467,195,
0,487,615,910,463,194,
0,483,609,891,457,192,
0,478,601,876,452,191,
0,473,595,862,448,189,
0,468,604,850,446,188,
0,472,765,833,475,190,
0,472,752,822,470,188,
0,467,742,902,464,187,
0,462,729,910,460,185,
0,457,719,914,455,184,
0,453,706,915,450,182,
0,449,696,900,444,180,
0,444,688,880,440,179,
0,440,678,866,435,178,
0,436,670,899,487,177,
0,432,663,881,480,176,
0,428,654,868,475,174,
0,423,646,855,470,172,
0,419,638,842,465,171,
0,415,630,830,460,169,
0,412,620,818,455,168,
0,408,612,807,449,167,
0,405,605,796,445,166,
0,401,598,785,440,164,
0,398,591,775,483,163,
0,393,584,762,478,162,
0,391,578,761,472,161,
0,387,572,892,467,159,
0,384,566,876,463,159,
0,381,560,862,457,158,
0,378,551,849,453,157,
0,375,546,836,448,156,
0,371,540,824,443,155,
0,369,535,812,439,153,
0,366,659,801,494,152,
0,448,667,787,487,152,
0,443,657,776,482,150,
0,438,647,766,477,149,
0,433,639,755,472,147,
0,428,631,746,467,147,
0,423,621,737,461,146,
0,419,612,728,456,145,
0,415,605,719,451,143,
0,412,598,710,448,143,
0,408,719,702,487,142,
0,518,707,691,481,141,
0,512,697,684,476,157,
0,505,688,675,471,155,
0,499,678,668,466,154,
0,495,668,660,461,152,
0,489,657,653,455,152,
0,483,649,646,451,151,
0,479,639,639,446,149,
0,473,637,632,463,148,
0,469,777,647,496,147,
0,463,764,636,491,145,
0,458,752,628,486,144,
0,454,742,622,480,143,
0,449,731,615,475,142,
0,444,719,608,470,141,
0,440,707,602,463,140,
0,435,697,595,460,139,
0,432,688,590,455,138,
0,428,679,583,494,137,
0,423,670,579,487,135,
0,419,662,572,482,135,
0,415,654,619,477,177,
0,411,644,611,472,176,
0,408,636,603,467,174,
0,403,628,595,462,172,
0,399,620,669,455,171,
0,396,611,660,451,169,
0,393,604,652,448,167,
0,390,654,643,483,167,
0,467,662,636,478,166,
0,460,652,626,472,163,
0,455,643,619,467,163,
0,449,635,611,463,161,
0,445,627,604,458,159,
0,440,619,598,454,159,
0,435,609,591,448,157,
0,431,601,583,444,156,
0,427,594,577,440,155,
0,423,663,572,468,154,
0,440,653,604,463,152,
0,433,643,714,459,152,
0,429,635,731,454,150,
0,423,627,720,449,149,
0,420,618,711,444,147,
0,415,610,702,440,147,
0,412,600,692,435,145,
0,408,593,684,431,144,
0,404,585,675,427,143,
0,400,731,667,463,143,
0,396,719,659,457,142,
0,391,708,655,453,140,
0,388,697,647,448,139,
0,385,688,639,444,138,
0,382,678,632,440,137,
0,379,669,625,435,135,
0,376,658,617,430,135,
0,371,649,611,425,134,
0,369,641,604,447,134,
0,368,661,598,467,132,
0,387,652,591,463,131,
0,382,643,583,457,140,
0,377,635,636,452,139,
0,374,627,627,448,138,
0,371,619,619,444,136,
0,367,611,611,440,135,
0,364,601,604,433,135,
0,360,615,596,430,134,
0,358,607,590,464,133,
0,359,599,583,459,131,
0,356,591,575,454,131,
0,353,585,579,449,192,
0,350,578,572,444,190,
0,348,572,566,440,188,
0,345,565,560,435,187,
0,343,559,555,432,185,
0,339,551,550,427,184,
0,337,545,543,423,182,
0,335,658,540,469,180,
0,433,654,534,463,179,
0,426,644,529,458,177,
0,422,636,524,454,204,
0,417,627,519,448,201,
0,412,620,514,444,199,
0,408,611,509,440,199,
0,404,604,504,435,196,
0,400,595,500,430,195,
0,396,587,496,425,193,
0,393,580,492,470,192,
0,408,573,487,463,190,
0,402,567,483,460,189,
0,398,560,478,455,187,
0,393,553,474,450,185,
0,390,547,471,445,184,
0,386,541,466,441,183,
0,384,536,463,436,181,
0,380,527,459,431,179,
0,376,523,455,427,178,
0,391,518,451,459,177,
0,483,512,448,454,176,
0,475,507,444,449,209,
0,470,502,440,444,207,
0,465,497,435,440,205,
0,460,492,432,435,203,
0,455,487,429,431,201,
0,450,483,425,427,199,
0,446,477,423,422,198,
0,441,472,419,448,196,
0,476,547,500,463,195,
0,513,540,495,459,193,
0,505,534,489,454,225,
0,499,527,483,449,222,
0,494,519,477,444,220,
0,488,514,472,440,219,
0,483,508,662,435,216,
0,478,503,684,432,215,
0,473,496,674,426,212,
0,468,490,665,476,211,
0,463,485,657,470,209,
0,459,480,648,464,207,
0,453,475,639,460,219,
0,448,470,632,455,216,
0,444,465,624,450,214,
0,440,461,616,445,212,
0,435,456,609,441,211,
0,431,451,603,437,209,
0,427,448,595,431,207,
0,423,556,591,469,206,
0,473,583,583,463,204,
0,467,575,577,459,202,
0,462,568,739,454,235,
0,455,560,856,449,231,
0,451,553,841,444,230,
0,447,547,828,440,227,
0,441,540,816,435,225,
0,438,532,804,432,224,
0,433,526,792,427,222,
0,430,670,783,463,220,
0,508,658,811,459,219,
0,502,648,812,454,216,
0,495,639,800,448,215,
0,489,632,786,444,212,
0,484,623,775,440,211,
0,479,615,764,435,209,
0,473,607,754,431,207,
0,468,598,743,427,206,
0,463,591,735,422,204,
0,504,768,726,462,203,
0,561,754,716,456,201,
0,553,743,707,451,199,
0,545,732,699,448,199,
0,539,721,688,443,196,
0,532,711,680,438,195,
0,527,700,672,433,193,
0,520,691,665,430,192,
0,515,679,657,425,191,
0,510,671,651,457,189,
0,504,662,643,463,188,
0,499,654,636,459,187,
0,494,646,629,454,188,
0,487,637,620,449,187,
0,483,629,614,444,184,
0,478,622,608,440,184,
0,472,614,601,435,182,
0,468,607,595,432,181,
0,463,598,588,428,179,
0,459,636,583,480,178,
0,486,673,577,473,177,
0,480,664,571,467,176,
0,475,655,566,463,187,
0,467,646,559,458,184,
0,463,637,553,454,183,
0,457,628,547,448,182,
0,453,620,543,444,179,
0,448,612,537,440,178,
0,444,603,532,435,177,
0,440,671,527,457,176,
0,436,664,523,451,174,
0,432,654,518,447,173,
0,428,646,513,443,208,
0,423,637,507,438,206,
0,419,628,503,433,204,
0,415,620,504,429,202,
0,412,612,499,425,200,
0,408,604,494,422,199,
0,404,595,489,417,198,
0,408,750,486,460,195,
0,527,737,481,455,195,
0,520,726,477,450,193,
0,515,715,472,446,192,
0,507,705,467,441,190,
0,501,696,463,436,188,
0,496,686,460,432,187,
0,490,676,455,428,185,
0,486,668,452,423,184,
0,480,655,448,419,182,
0,527,735,444,456,180,
0,556,723,441,451,179,
0,549,712,438,448,177,
0,543,702,434,443,176,
0,535,692,430,438,176,
0,528,683,427,433,174,
0,523,673,423,430,172,
0,517,664,419,425,172,
0,511,655,416,422,169,
0,505,646,414,463,168,
0,527,690,410,472,167,
0,537,679,407,467,167,
0,531,671,403,462,165,
0,524,661,400,457,164,
0,517,652,397,452,163,
0,511,643,394,448,161,
0,505,636,391,444,159,
0,499,627,388,440,159,
0,495,620,419,435,158,
0,489,611,446,483,157,
0,518,604,440,476,156,
0,511,596,436,472,160,
0,505,590,432,467,225,
0,499,583,428,462,224,
0,492,575,422,456,221,
0,487,569,418,452,219,
0,483,563,414,448,216,
0,478,557,410,443,215,
0,472,551,406,439,213,
0,468,607,403,472,211,
0,596,598,399,465,209,
0,588,590,396,460,207,
0,580,583,499,455,206,
0,573,575,512,451,204,
0,564,568,504,447,203,
0,558,560,499,441,201,
0,551,553,493,438,199,
0,545,547,487,433,198,
0,539,541,483,429,196,
0,534,535,478,470,195,
0,527,528,473,463,193,
0,521,524,468,459,215,
0,515,518,463,454,211,
0,511,512,460,449,210,
0,504,508,454,445,207,
0,499,502,449,440,206,
0,494,497,445,436,204,
0,488,492,440,432,203,
0,483,487,436,428,201,
0,539,643,432,467,199,
0,577,632,428,463,198,
0,569,624,457,457,196,
0,563,615,451,452,195,
0,556,608,448,448,194,
0,548,600,441,444,192,
0,542,592,437,440,191,
0,536,585,432,435,189,
0,529,578,428,431,188,
0,524,572,424,427,186,
0,519,607,420,454,184,
0,513,599,417,448,184,
0,508,591,413,444,182,
0,503,583,600,440,180,
0,497,575,590,435,179,
0,491,569,581,430,177,
0,486,563,574,426,176,
0,480,556,568,422,175,
0,476,550,561,418,174,
0,472,543,556,455,172,
0,482,556,549,455,172,
0,476,548,543,451,170,
0,472,542,537,446,208,
0,466,536,531,441,206,
0,462,529,526,436,204,
0,455,524,519,432,202,
0,451,518,514,428,200,
0,448,512,509,423,199,
0,443,507,504,420,198,
0,440,564,499,459,195,
0,556,643,494,451,194,
0,548,635,489,447,216,
0,542,625,484,442,247,
0,535,617,480,438,243,
0,527,609,475,433,241,
0,521,602,470,428,239,
0,515,595,465,424,237,
0,510,587,461,420,235,
0,504,579,456,416,233,
0,499,690,452,463,231,
0,494,681,448,455,229,
0,488,671,444,451,228,
0,483,663,440,446,227,
0,479,654,436,441,224,
0,472,646,433,438,223,
0,467,636,428,433,220,
0,463,628,423,429,219,
0,459,620,420,424,217,
0,454,612,417,420,216,
0,450,606,414,467,214,
0,454,596,410,460,212,
0,449,588,407,455,217,
0,444,582,403,451,215,
0,440,575,399,446,214,
0,435,568,396,441,211,
0,431,561,391,437,209,
0,427,556,390,433,207,
0,423,549,387,428,206,
0,419,543,384,425,204,
0,448,615,380,476,203,
0,443,606,377,468,201,
0,438,598,375,463,259,
0,433,590,371,459,256,
0,428,583,369,454,254,
0,423,575,367,449,252,
0,419,568,364,444,249,
0,415,561,384,440,248,
0,412,556,508,435,244,
0,408,556,503,473,243,
0,480,661,496,472,241,
0,474,649,491,465,239,
0,468,639,498,460,239,
0,463,632,510,455,237,
0,459,624,504,451,235,
0,452,615,497,447,233,
0,448,608,492,442,231,
0,443,600,486,438,229,
0,439,592,481,433,227,
0,435,680,476,480,225,
0,464,743,472,473,224,
0,459,732,467,467,222,
0,454,721,462,462,220,
0,449,711,457,457,219,
0,444,700,452,452,216,
0,438,691,448,448,216,
0,433,681,444,443,213,
0,429,671,440,439,211,
0,425,664,435,435,210,
0,422,736,432,477,208,
0,476,719,428,472,207,
0,470,710,423,465,205,
0,465,700,419,460,204,
0,460,689,415,455,202,
0,455,679,412,451,201,
0,449,671,408,446,199,
0,444,662,403,441,198,
0,440,654,400,438,195,
0,435,645,397,433,195,
0,438,733,393,480,193,
0,455,718,391,475,192,
0,451,707,387,468,190,
0,447,697,384,463,189,
0,441,688,380,459,188,
0,437,678,377,454,186,
0,432,669,374,449,185,
0,427,660,371,444,184,
0,423,651,368,440,182,
0,419,643,364,436,180,
0,460,732,361,484,179,
0,454,718,359,479,178,
0,448,707,356,472,178,
0,444,696,353,467,177,
0,440,688,500,463,176,
0,434,678,551,459,175,
0,429,668,542,454,174,
0,424,659,536,449,172,
0,420,651,530,444,171,
0,415,643,525,482,169,
0,515,765,519,480,167,
0,508,750,513,475,167,
0,503,739,508,468,199,
0,496,728,503,463,197,
0,491,718,497,459,195,
0,486,707,492,454,193,
0,480,697,487,449,192,
0,474,688,481,445,190,
0,469,679,477,440,188,
0,464,670,472,480,187,
0,477,678,467,473,185,
0,472,667,463,468,201,
0,467,658,470,463,222,
0,462,649,466,457,220,
0,456,641,462,453,218,
0,452,633,457,448,216,
0,447,625,451,444,215,
0,442,617,448,440,212,
0,438,611,443,435,211,
0,451,626,440,483,209,
0,508,616,435,478,207,
0,502,607,431,473,206,
0,496,600,428,467,204,
0,491,592,499,462,202,
0,485,585,529,457,200,
0,480,579,523,452,199,
0,473,572,515,448,197,
0,467,566,510,444,195,
0,463,560,505,439,194,
0,472,639,499,478,192,
0,478,630,494,472,191,
0,472,619,489,465,189,
0,467,611,484,460,188,
0,462,603,480,455,187,
0,457,595,475,451,185,
0,453,588,470,447,184,
0,447,580,463,442,182,
0,443,574,460,438,180,
0,439,567,455,435,179,
0,480,657,451,478,178,
0,474,647,447,472,176,
0,469,637,443,465,180,
0,463,628,439,461,179,
0,459,620,448,456,177,
0,454,612,543,451,176,
0,449,604,536,447,175,
0,443,596,529,443,174,
0,439,590,524,438,172,
0,435,583,519,484,171,
0,451,635,512,479,169,
0,446,627,507,473,167,
0,440,615,502,467,196,
0,435,608,496,462,195,
0,432,600,492,457,193,
0,427,591,487,452,191,
0,423,585,481,448,190,
0,419,578,476,444,188,
0,415,571,472,440,187,
0,411,591,467,488,185,
0,407,643,462,483,184,
0,403,633,457,477,182,
0,399,624,453,471,180,
0,396,615,449,465,179,
0,393,607,445,461,177,
0,390,600,441,455,176,
0,387,591,436,451,175,
0,382,584,432,448,173,
0,379,577,428,443,172,
0,411,656,423,481,171,
0,468,664,420,476,169,
0,463,655,417,471,167,
0,458,643,414,464,167,
0,453,635,409,460,166,
0,448,626,407,455,164,
0,444,618,403,451,163,
0,439,611,399,446,162,
0,433,603,396,441,161,
0,429,595,391,438,159,
0,450,625,388,476,159,
0,459,617,385,471,158,
0,453,608,383,465,156,
0,448,599,380,459,156,
0,444,591,376,455,157,
0,439,583,373,450,156,
0,434,577,370,446,155,
0,430,570,367,440,153,
0,423,563,364,436,152,
0,420,557,360,445,152,
0,446,637,358,483,150,
0,440,627,355,478,149,
0,435,620,352,473,158,
0,431,609,350,467,156,
0,427,601,348,462,155,
0,422,593,344,457,154,
0,418,586,343,452,152,
0,414,579,340,448,152,
0,409,572,337,444,150,
0,406,566,335,480,149,
0,480,654,332,473,147,
0,473,644,330,468,147,
0,468,636,327,463,165,
0,463,624,326,457,163,
0,457,616,323,452,163,
0,453,608,321,448,162,
0,448,601,319,444,160,
0,444,593,316,440,159,
0,438,586,313,435,158,
0,434,617,312,483,156,
0,435,688,310,477,155,
0,431,679,307,472,180,
0,426,668,305,467,189,
0,422,657,304,460,188,
0,418,647,302,455,185,
0,414,639,300,451,184,
0,409,632,297,446,183,
0,405,623,295,442,182,
0,401,615,293,438,179,
0,399,720,291,475,178,
0,427,719,289,469,176,
0,422,708,287,463,175,
0,417,699,353,460,174,
0,414,686,452,453,172,
0,408,675,447,448,171,
0,404,667,441,444,169,
0,401,658,437,440,167,
0,396,649,433,435,167,
0,391,641,428,431,166,
0,390,633,423,483,164,
0,391,625,419,478,163,
0,388,617,415,472,216,
0,385,609,412,467,214,
0,382,600,408,461,211,
0,378,593,403,456,209,
0,375,587,399,451,207,
0,371,579,396,448,206,
0,368,573,392,443,204,
0,365,567,388,447,203,
0,408,615,385,465,200,
0,403,608,382,460,199,
0,399,600,379,455,214,
0,396,591,376,451,211,
0,391,582,371,445,209,
0,387,575,368,440,207,
0,384,568,366,436,206,
0,380,561,362,432,204,
0,376,555,359,428,203,
0,372,565,356,468,200,
0,508,678,352,462,199,
0,500,668,350,457,198,
0,495,659,347,452,244,
0,489,650,487,448,242,
0,484,639,633,441,240,
0,479,631,625,438,238,
0,473,623,617,433,236,
0,468,615,609,429,233,
0,462,607,601,425,231,
0,457,603,593,472,229,
0,455,599,587,465,227,
0,449,591,580,460,265,
0,446,583,574,455,288,
0,440,575,568,451,286,
0,436,569,561,444,283,
0,432,563,556,440,280,
0,428,556,550,436,278,
0,423,550,543,432,275,
0,419,543,538,428,273,
0,455,637,531,478,270,
0,551,639,526,472,268,
0,544,631,520,467,265,
0,537,622,515,462,263,
0,531,611,511,457,262,
0,526,604,660,451,259,
0,519,595,651,448,257,
0,513,588,642,443,255,
0,508,581,635,439,253,
0,501,574,627,434,251,
0,595,715,617,480,248,
0,657,702,610,475,247,
0,647,691,631,470,244,
0,639,681,680,465,243,
0,632,670,671,460,241,
0,624,661,663,455,239,
0,615,652,655,449,238,
0,608,643,647,446,236,
0,601,636,639,441,233,
0,592,627,632,454,231,
0,585,653,622,476,230,
0,579,643,615,471,228,
0,572,636,608,465,248,
0,566,627,601,460,245,
0,560,616,595,455,243,
0,553,609,588,450,241,
0,547,601,582,446,239,
0,542,595,575,441,237,
0,536,588,569,436,235,
0,529,580,563,486,233,
0,524,669,556,479,231,
0,518,659,551,473,229,
0,513,651,545,469,227,
0,508,641,540,463,225,
0,503,631,535,459,224,
0,497,623,529,453,222,
0,493,615,524,448,220,
0,487,607,519,444,219,
0,483,600,514,440,217,
0,478,592,508,480,216,
0,500,587,504,473,214,
0,495,579,577,469,212,
0,488,572,703,463,211,
0,483,566,692,459,209,
0,478,558,684,454,207,
0,473,551,675,448,206,
0,468,545,666,444,204,
0,464,540,657,440,203,
0,460,534,650,435,201,
0,568,675,639,489,199,
0,639,697,633,483,199,
0,630,688,625,479,255,
0,622,678,619,473,252,
0,614,668,611,468,249,
0,606,657,604,463,247,
0,599,647,598,457,244,
0,591,639,639,452,243,
0,584,632,669,448,240,
0,577,624,660,444,239,
0,569,620,649,487,236,
0,563,612,641,482,234,
0,557,605,634,477,231,
0,551,598,628,472,231,
0,545,591,622,467,228,
0,539,582,614,460,227,
0,533,575,608,455,225,
0,527,568,600,451,224,
0,521,562,593,447,222,
0,516,556,588,471,220,
0,527,659,579,492,218,
0,519,649,574,487,216,
0,514,641,752,481,215,
0,508,632,777,476,212,
0,504,624,767,472,211,
0,497,614,755,465,209,
0,493,606,745,460,207,
0,487,599,736,455,206,
0,483,591,726,451,204,
0,479,585,717,516,204,
0,519,678,705,509,201,
0,513,668,696,503,199,
0,508,658,688,497,199,
0,502,649,679,492,197,
0,497,639,758,487,195,
0,491,630,746,481,194,
0,486,622,736,476,193,
0,480,614,726,472,192,
0,476,606,716,467,190,
0,472,662,708,497,189,
0,568,696,696,492,188,
0,560,686,688,486,196,
0,553,675,679,481,195,
0,547,666,670,476,193,
0,540,657,663,471,192,
0,534,647,655,465,190,
0,527,638,647,460,188,
0,522,630,639,455,187,
0,516,622,633,451,185,
0,511,718,626,497,184,
0,504,705,617,492,183,
0,499,696,611,486,204,
0,494,685,604,481,201,
0,487,675,598,476,199,
0,483,667,591,471,198,
0,479,655,585,465,196,
0,473,647,579,460,195,
0,469,639,574,455,193,
0,464,630,568,451,192,
0,510,719,563,490,190,
0,598,708,556,484,188,
0,591,699,550,480,195,
0,583,688,544,475,192,
0,575,679,539,470,191,
0,569,670,534,464,189,
0,563,659,529,459,188,
0,556,649,524,454,186,
0,550,641,519,449,184,
0,543,633,514,480,184,
0,537,625,510,495,182,
0,530,617,504,489,180,
0,524,610,499,484,179,
0,519,603,495,480,179,
0,513,595,491,475,177,
0,508,588,578,470,176,
0,503,579,571,463,175,
0,497,573,564,459,173,
0,492,567,558,455,172,
0,487,560,551,496,171,
0,558,623,545,489,169,
0,548,615,537,484,174,
0,542,607,531,479,227,
0,536,599,526,473,226,
0,529,591,520,469,224,
0,523,583,515,463,222,
0,517,575,510,458,220,
0,511,568,504,454,217,
0,505,561,499,449,216,
0,500,632,495,490,215,
0,552,652,489,484,212,
0,543,643,484,479,238,
0,537,633,480,473,246,
0,531,625,476,468,243,
0,525,617,472,463,241,
0,519,609,467,460,239,
0,513,600,463,454,237,
0,508,592,460,449,235,
0,503,585,455,444,233,
0,497,662,452,487,231,
0,547,652,448,482,229,
0,540,643,444,477,259,
0,534,633,440,472,255,
0,527,625,448,467,255,
0,521,617,591,462,252,
0,516,609,583,457,249,
0,510,600,575,451,248,
0,504,591,569,448,246,
0,499,585,563,443,243,
0,550,729,557,499,241,
0,591,718,551,495,240,
0,583,707,543,489,237,
0,575,697,537,483,235,
0,569,688,531,479,233,
0,563,678,526,473,231,
0,556,669,520,469,230,
0,550,657,515,463,227,
0,543,649,510,458,226,
0,537,639,505,492,224,
0,627,678,500,496,223,
0,619,668,495,491,221,
0,611,659,489,486,228,
0,603,649,484,480,226,
0,595,641,480,476,224,
0,588,632,475,470,222,
0,581,624,470,465,220,
0,574,615,466,460,219,
0,568,607,462,455,217,
0,561,600,457,489,216,
0,581,653,453,483,214,
0,572,644,449,478,211,
0,564,636,444,473,210,
0,559,627,591,468,208,
0,551,619,719,463,207,
0,545,611,709,459,205,
0,540,603,700,454,204,
0,534,593,690,448,203,
0,527,586,681,444,200,
0,523,645,673,496,199,
0,583,687,664,489,198,
0,575,677,655,484,196,
0,568,668,647,479,195,
0,561,658,639,474,193,
0,554,649,632,469,192,
0,547,639,624,464,190,
0,541,631,617,460,189,
0,536,623,611,454,188,
0,529,615,604,449,187,
0,524,608,598,502,185,
0,574,600,591,496,184,
0,565,591,584,491,209,
0,559,585,577,486,214,
0,551,579,734,480,211,
0,545,572,786,476,209,
0,539,565,774,471,207,
0,532,558,764,466,206,
0,527,551,753,460,204,
0,521,545,743,455,203,
0,563,664,733,494,201,
0,620,654,723,487,199,
0,611,645,714,483,198,
0,603,636,703,478,196,
0,595,627,694,472,195,
0,588,620,686,467,193,
0,581,611,678,463,192,
0,575,602,669,458,190,
0,568,595,662,452,188,
0,561,588,654,492,188,
0,606,674,647,497,185,
0,596,664,639,492,184,
0,588,655,632,487,203,
0,580,646,624,481,199,
0,573,638,616,476,199,
0,567,629,610,472,196,
0,560,621,604,467,195,
0,553,611,597,462,193,
0,547,604,591,455,192,
0,541,680,585,499,190,
0,655,763,579,493,188,
0,646,750,572,487,187,
0,636,739,566,483,187,
0,627,728,560,478,185,
0,620,718,555,472,184,
0,612,707,548,467,183,
0,605,697,543,463,180,
0,598,686,538,457,179,
0,591,676,533,452,178,
0,583,696,527,491,177,
0,577,686,523,486,176,
0,571,676,518,480,201,
0,563,667,512,475,258,
0,556,658,508,470,255,
0,551,649,503,465,252,
0,543,641,498,460,250,
0,539,633,496,455,248,
0,532,624,492,451,246,
0,527,615,487,446,243,
0,522,719,483,478,241,
0,556,707,479,472,240,
0,548,697,504,467,238,
0,540,687,655,463,236,
0,534,677,646,457,233,
0,527,668,638,453,231,
0,521,659,630,448,230,
0,516,651,623,444,228,
0,511,639,615,440,227,
0,505,632,608,436,225,
0,527,684,601,487,223,
0,551,674,594,481,221,
0,543,664,588,476,223,
0,536,655,716,472,221,
0,530,647,757,467,219,
0,524,639,747,462,217,
0,518,630,736,457,216,
0,512,622,726,452,214,
0,507,612,716,447,212,
0,502,605,707,489,211,
0,531,704,699,485,209,
0,524,692,689,480,207,
0,518,683,681,475,241,
0,510,673,671,470,239,
0,504,664,663,464,236,
0,499,655,655,460,234,
0,494,646,647,455,231,
0,488,638,639,451,230,
0,483,627,632,445,228,
0,480,639,627,486,227,
0,655,732,619,480,224,
0,646,720,612,475,223,
0,637,711,771,470,284,
0,627,700,781,464,280,
0,619,690,769,460,278,
0,611,680,760,455,275,
0,604,671,749,451,272,
0,596,662,739,446,270,
0,590,651,728,440,268,
0,583,675,719,493,265,
0,575,665,711,487,263,
0,569,655,702,482,262,
0,563,647,693,477,259,
0,556,639,683,472,256,
0,549,631,674,467,255,
0,543,623,666,462,252,
0,537,615,658,457,251,
0,531,608,651,453,248,
0,526,599,643,448,247,
0,521,667,636,484,244,
0,582,656,629,479,243,
0,574,647,681,474,255,
0,568,639,841,468,254,
0,559,630,824,463,251,
0,551,622,812,459,249,
0,545,614,800,454,247,
0,539,606,789,449,244,
0,533,599,778,445,243,
0,527,590,768,451,241,
0,588,660,758,481,239,
0,626,651,748,476,237,
0,617,642,738,471,238,
0,610,633,728,465,236,
0,600,625,717,460,233,
0,593,616,708,455,231,
0,587,608,699,451,230,
0,579,601,691,447,228,
0,572,594,683,442,227,
0,566,585,675,496,225,
0,560,627,667,490,223,
0,553,619,659,485,222,
0,547,611,652,480,220,
0,541,603,644,475,218,
0,534,595,636,470,216,
0,527,588,628,464,215,
0,523,580,622,460,213,
0,517,574,615,455,211,
0,512,568,608,451,210,
0,507,600,603,488,208,
0,600,684,596,483,207,
0,591,673,590,478,206,
0,583,664,583,472,204,
0,577,655,578,467,203,
0,568,646,571,463,200,
0,562,638,565,457,199,
0,556,630,560,453,198,
0,549,622,553,448,196,
0,543,614,548,444,195,
0,537,681,543,496,194,
0,531,671,538,490,192,
0,526,662,692,485,192,
0,519,652,883,480,192,
0,513,643,866,475,190,
0,508,635,849,470,188,
0,502,627,836,464,187,
0,497,619,824,460,185,
0,492,611,812,455,184,
0,487,604,799,451,184,
0,483,648,790,482,182,
0,484,639,779,476,180,
0,480,631,768,472,225,
0,475,622,758,467,224,
0,468,614,748,462,223,
0,464,606,736,457,220,
0,460,598,727,452,218,
0,455,591,718,448,216,
0,451,583,709,444,215,
0,448,577,700,440,213,
0,515,690,692,486,211,
0,572,679,684,480,209,
0,564,670,676,476,207,
0,558,660,668,471,206,
0,550,652,689,465,204,
0,543,643,803,460,203,
0,536,635,791,455,200,
0,531,627,780,451,199,
0,525,618,768,447,198,
0,519,611,758,443,196,
0,612,734,748,478,195,
0,604,722,737,472,193,
0,596,711,728,467,228,
0,588,702,719,462,225,
0,579,691,710,457,224,
0,572,682,698,452,222,
0,566,672,689,448,220,
0,560,664,681,444,217,
0,553,655,673,440,216,
0,547,647,665,486,214,
0,542,639,657,479,212,
0,536,632,651,473,211,
0,529,625,734,468,225,
0,524,616,803,463,223,
0,516,609,792,459,221,
0,511,601,777,455,219,
0,505,595,766,449,217,
0,500,588,755,445,215,
0,496,581,745,440,214,
0,492,617,736,489,211,
0,564,688,726,483,209,
0,558,678,717,478,207,
0,551,668,707,472,207,
0,543,659,699,467,206,
0,536,649,690,463,204,
0,530,641,679,457,202,
0,524,633,671,453,200,
0,519,625,664,448,199,
0,513,617,656,444,198,
0,508,608,649,487,195,
0,507,600,641,481,195,
0,501,593,635,476,246,
0,496,586,764,472,245,
0,491,579,753,466,243,
0,484,572,743,461,240,
0,480,566,729,456,238,
0,475,560,719,451,236,
0,470,553,711,448,233,
0,465,547,702,443,231,
0,535,633,693,490,230,
0,553,624,684,483,228,
0,546,615,675,479,229,
0,540,608,668,473,227,
0,533,600,659,468,225,
0,526,591,652,463,224,
0,519,584,643,459,221,
0,514,577,635,454,220,
0,508,571,628,449,217,
0,503,563,622,451,216,
0,515,654,615,484,214,
0,508,644,608,479,212,
0,503,636,601,472,225,
0,496,627,595,468,224,
0,492,619,590,463,222,
0,485,611,583,458,220,
0,480,604,575,454,217,
0,475,596,571,449,216,
0,471,588,564,445,214,
0,465,582,560,490,212,
0,528,651,553,483,211,
0,521,641,548,477,209,
0,515,633,543,472,217,
0,510,624,537,467,216,
0,504,616,635,462,214,
0,497,608,624,457,212,
0,492,600,615,452,209,
0,487,593,608,448,207,
0,481,586,601,444,207,
0,476,603,594,476,205,
0,495,657,587,470,204,
0,489,647,580,463,202,
0,484,639,574,459,203,
0,479,631,568,454,201,
0,473,622,561,449,199,
0,467,614,554,444,198,
0,463,606,548,440,196,
0,457,599,542,435,195,
0,454,591,536,432,193,
0,450,583,531,487,192,
0,445,575,527,481,191,
0,441,568,521,475,190,
0,438,562,673,470,188,
0,433,556,664,465,187,
0,430,549,655,460,185,
0,425,543,644,455,184,
0,422,537,636,451,182,
0,417,531,628,446,181,
0,414,526,622,441,179,
0,478,616,614,491,179,
0,486,605,607,486,177,
0,480,597,600,479,189,
0,475,590,613,473,187,
0,470,582,606,468,185,
0,464,575,598,463,184,
0,459,568,589,459,183,
0,454,561,583,455,180,
0,449,553,575,449,179,
0,444,547,571,463,178,
0,608,660,564,499,176,
0,633,647,558,492,175,
0,625,639,551,487,197,
0,617,631,547,481,195,
0,609,622,541,477,193,
0,601,614,536,472,192,
0,593,606,528,467,190,
0,585,599,524,462,188,
0,579,591,519,457,187,
0,572,583,514,475,185,
0,566,675,509,469,197,
0,560,663,504,463,209,
0,553,654,499,457,268,
0,547,644,495,454,264,
0,541,636,491,448,263,
0,536,628,487,444,260,
0,527,620,481,440,257,
0,523,612,477,435,255,
0,517,604,473,432,252,
0,512,639,470,478,251,
0,589,691,465,472,248,
0,582,678,461,465,247,
0,574,668,457,460,244,
0,568,659,454,455,243,
0,560,651,449,451,240,
0,553,641,446,447,238,
0,545,633,441,441,236,
0,540,625,438,438,234,
0,534,617,434,433,231,
0,576,691,431,480,231,
0,619,679,427,473,228,
0,611,668,423,467,227,
0,603,659,459,463,225,
0,595,649,454,457,224,
0,588,641,448,453,222,
0,582,632,444,448,220,
0,573,624,439,444,218,
0,567,616,435,440,216,
0,560,609,430,435,216,
0,572,737,426,480,213,
0,564,724,422,475,211,
0,558,711,419,468,210,
0,551,702,470,463,208,
0,545,691,493,459,207,
0,539,681,487,454,205,
0,533,672,482,449,204,
0,526,664,476,444,201,
0,519,655,471,440,199,
0,515,647,466,455,199,
0,521,678,461,481,198,
0,515,668,456,476,196,
0,509,657,452,470,237,
0,504,647,448,463,235,
0,499,639,443,460,231,
0,494,632,439,455,230,
0,488,624,435,450,228,
0,483,615,430,446,226,
0,478,608,425,441,224,
0,473,601,422,481,222,
0,499,645,418,475,220,
0,494,636,415,470,219,
0,487,625,411,463,218,
0,483,617,408,459,216,
0,478,609,404,454,215,
0,472,601,401,449,213,
0,467,594,399,444,211,
0,462,587,395,440,209,
0,457,580,391,435,207,
0,454,616,389,478,206,
0,521,639,401,472,204,
0,515,632,397,467,204,
0,510,620,393,461,205,
0,504,612,411,456,203,
0,497,604,487,451,201,
0,492,597,481,448,199,
0,487,590,476,443,199,
0,480,582,471,438,196,
0,476,575,465,434,195,
0,521,658,460,484,193,
0,572,647,455,479,192,
0,563,639,451,473,199,
0,557,627,447,467,196,
0,551,620,621,462,195,
0,543,611,694,457,193,
0,537,604,684,452,192,
0,530,596,674,448,190,
0,524,588,664,444,188,
0,519,582,655,440,188,
0,513,671,647,479,185,
0,508,660,639,473,184,
0,503,652,758,468,231,
0,497,639,747,462,229,
0,492,632,736,457,227,
0,487,624,726,452,225,
0,481,615,716,448,223,
0,476,608,707,444,221,
0,471,600,696,440,219,
0,466,592,688,463,217,
0,583,678,679,489,215,
0,575,668,691,483,214,
0,568,658,761,478,211,
0,560,647,751,472,210,
0,554,639,740,467,208,
0,547,630,730,462,207,
0,542,622,719,457,205,
0,534,614,711,453,204,
0,527,606,700,448,201,
0,523,600,691,491,199,
0,516,676,683,484,199,
0,511,667,688,480,196,
0,505,657,679,475,199,
0,500,646,670,468,199,
0,495,638,663,463,197,
0,489,629,655,459,195,
0,484,621,647,454,194,
0,479,614,639,449,192,
0,473,606,631,444,191,
0,471,647,624,480,189,
0,536,655,617,474,188,
0,528,646,610,469,187,
0,522,637,604,463,185,
0,516,626,597,458,184,
0,510,618,591,454,183,
0,504,610,583,448,181,
0,499,603,579,444,180,
0,492,595,572,440,179,
0,487,588,566,435,177,
0,483,642,560,480,176,
0,477,632,554,473,174,
0,472,624,548,468,220,
0,467,614,543,463,217,
0,463,606,560,457,216,
0,459,598,608,452,214,
0,454,590,600,448,211,
0,449,583,593,444,210,
0,444,575,585,440,208,
0,440,569,578,435,207,
0,524,719,571,498,204,
0,527,707,564,492,203,
0,521,696,559,487,204,
0,515,684,551,481,203,
0,509,674,547,476,201,
0,504,665,540,471,199,
0,498,655,536,465,198,
0,492,647,529,461,196,
0,486,639,525,455,195,
0,481,632,519,488,193,
0,611,724,513,505,192,
0,601,713,509,499,190,
0,595,704,504,494,229,
0,587,690,499,488,227,
0,579,680,495,483,225,
0,573,671,661,478,223,
0,566,662,652,472,221,
0,560,654,643,467,219,
0,551,645,635,463,217,
0,545,637,625,501,215,
0,540,697,617,495,214,
0,533,687,611,489,211,
0,527,678,604,484,214,
0,521,665,596,480,212,
0,516,657,590,473,211,
0,511,647,583,468,208,
0,505,639,577,463,207,
0,500,632,571,459,206,
0,494,624,563,454,204,
0,489,658,558,494,201,
0,487,649,551,487,199,
0,483,641,545,483,206,
0,478,632,540,478,204,
0,472,622,535,472,203,
0,468,614,529,467,201,
0,463,606,524,462,199,
0,459,599,519,457,198,
0,455,591,513,452,195,
0,449,584,508,448,195,
0,483,652,503,487,193,
0,502,642,498,481,191,
0,496,633,526,476,190,
0,489,624,638,472,188,
0,484,615,630,467,187,
0,480,606,667,460,185,
0,474,599,657,455,184,
0,469,591,649,451,183,
0,463,583,641,447,182,
0,458,577,632,443,180,
0,562,613,624,484,179,
0,567,604,616,480,177,
0,560,596,609,473,176,
0,552,588,602,469,175,
0,547,579,595,463,174,
0,540,572,589,458,172,
0,534,566,583,454,172,
0,527,560,575,449,170,
0,521,553,570,444,168,
0,515,547,563,476,167,
0,510,556,556,477,166,
0,504,550,551,472,165,
0,499,543,545,467,227,
0,493,537,540,462,225,
0,488,529,534,455,223,
0,483,524,528,451,221,
0,479,519,524,447,219,
0,473,513,519,443,217,
0,469,508,513,438,216,
0,463,536,507,490,214,
0,523,602,502,483,211,
0,516,593,497,479,209,
0,511,586,492,473,254,
0,504,579,487,468,251,
0,499,569,483,462,249,
0,494,563,480,457,247,
0,487,556,475,453,244,
0,483,549,472,448,243,
0,478,543,467,444,240,
0,547,643,462,491,239,
0,615,686,457,484,236,
0,606,676,454,480,243,
0,599,666,450,474,240,
0,591,657,446,469,239,
0,583,646,443,463,236,
0,577,638,439,458,235,
0,571,630,435,454,231,
0,563,621,432,449,231,
0,558,614,428,445,229,
0,609,704,423,488,227,
0,654,692,420,483,225,
0,645,683,417,478,224,
0,636,672,414,472,222,
0,628,664,410,467,220,
0,620,652,407,462,218,
0,614,644,403,456,216,
0,606,636,400,452,215,
0,599,627,397,448,214,
0,591,620,395,444,211,
0,583,675,391,483,209,
0,575,665,387,479,207,
0,570,655,466,473,211,
0,563,647,499,468,209,
0,558,638,492,463,207,
0,551,627,487,457,206,
0,545,620,482,452,204,
0,539,611,477,448,203,
0,534,604,472,444,201,
0,527,598,467,489,199,
0,556,639,461,492,198,
0,548,630,456,487,196,
0,543,622,452,482,223,
0,536,614,448,477,221,
0,529,605,444,472,219,
0,524,595,440,465,217,
0,518,588,435,461,216,
0,512,582,431,455,214,
0,508,575,427,451,211,
0,503,602,423,497,210,
0,630,694,418,491,207,
0,621,683,415,486,206,
0,613,673,411,480,204,
0,605,664,408,476,203,
0,598,655,403,470,201,
0,591,644,399,464,199,
0,583,636,396,460,198,
0,576,627,393,455,197,
0,570,620,390,451,195,
0,563,642,387,481,194,
0,709,639,383,476,192,
0,699,630,380,471,239,
0,689,622,377,465,236,
0,679,614,423,461,233,
0,671,606,419,455,231,
0,662,596,415,451,230,
0,654,589,411,446,227,
0,646,583,407,441,226,
0,638,575,403,438,224,
0,631,569,399,496,222,
0,621,563,395,489,220,
0,614,556,391,484,219,
0,607,550,387,480,217,
0,600,543,384,475,216,
0,592,537,380,470,214,
0,586,531,376,463,211,
0,579,524,374,459,210,
0,573,519,371,454,208,
0,568,514,368,450,207,
0,560,636,366,480,205,
0,553,625,361,475,203,
0,547,617,359,470,243,
0,542,609,356,465,241,
0,536,601,354,460,239,
0,531,593,352,455,236,
0,525,584,349,449,235,
0,519,577,347,445,232,
0,514,571,344,440,231,
0,510,563,342,485,229,
0,583,675,339,479,227,
0,575,665,336,473,224,
0,569,656,409,468,223,
0,561,647,420,463,221,
0,556,639,415,459,219,
0,548,630,412,454,217,
0,543,620,408,448,216,
0,536,612,403,444,214,
0,530,604,399,440,212,
0,524,620,396,480,211,
0,589,697,391,473,209,
0,581,687,387,468,207,
0,575,678,384,463,212,
0,568,668,381,459,210,
0,560,659,377,454,208,
0,554,650,374,449,207,
0,547,639,371,444,205,
0,541,632,368,439,204,
0,536,624,364,435,202,
0,529,704,361,471,199,
0,536,706,358,465,199,
0,530,696,354,460,239,
0,524,686,351,455,236,
0,519,676,348,451,233,
0,513,668,345,447,231,
0,508,658,343,442,229,
0,503,647,339,436,227,
0,497,639,337,432,225,
0,492,631,335,428,224,
0,487,761,332,472,222,
0,486,748,329,467,220,
0,481,736,327,462,238,
0,476,725,324,457,236,
0,472,715,413,452,234,
0,467,704,408,448,231,
0,463,692,403,443,230,
0,459,684,399,438,228,
0,455,674,396,433,226,
0,451,665,391,438,224,
0,455,729,388,477,223,
0,461,718,384,472,220,
0,455,707,380,467,223,
0,451,696,376,462,220,
0,447,688,426,457,219,
0,442,678,432,452,217,
0,438,666,427,448,216,
0,434,657,422,442,214,
0,431,649,418,438,211,
0,427,641,414,481,211,
0,583,763,409,476,208,
0,588,751,622,470,207,
0,580,739,665,465,243,
0,573,728,655,460,241,
0,567,718,647,455,240,
0,560,707,639,451,237,
0,553,695,632,446,235,
0,547,686,624,440,233,
0,540,676,617,436,231,
0,535,668,611,487,230,
0,529,659,603,482,227,
0,521,651,596,476,225,
0,515,642,588,472,224,
0,511,635,582,466,222,
0,505,627,575,462,220,
0,499,619,569,456,217,
0,495,609,563,452,216,
0,489,602,558,447,215,
0,484,595,551,441,213,
0,480,673,546,487,211,
0,476,663,540,481,209,
0,470,653,534,476,207,
0,464,644,572,472,220,
0,460,636,611,466,219,
0,455,627,604,462,217,
0,451,619,596,456,216,
0,448,609,589,451,214,
0,443,601,583,446,211,
0,440,594,575,441,210,
0,440,659,569,481,207,
0,505,649,563,476,206,
0,498,639,556,472,205,
0,492,632,550,466,203,
0,487,624,543,462,201,
0,481,615,537,456,199,
0,476,608,532,451,198,
0,472,598,527,448,197,
0,466,591,521,441,195,
0,462,583,516,457,194,
0,503,621,512,489,192,
0,523,612,507,483,191,
0,515,604,551,479,217,
0,509,596,545,473,215,
0,504,588,539,468,214,
0,497,582,532,463,211,
0,492,575,527,459,210,
0,487,567,521,454,207,
0,481,560,515,448,206,
0,476,554,511,507,204,
0,479,605,505,500,203,
0,472,596,500,495,201,
0,467,589,494,489,199,
0,462,582,536,484,198,
0,457,574,529,480,195,
0,452,568,524,474,194,
0,448,560,518,470,193,
0,444,551,512,463,192,
0,440,546,507,459,190,
0,435,585,502,497,188,
0,466,617,496,491,188,
0,460,609,492,487,186,
0,455,601,539,481,185,
0,449,593,532,476,184,
0,444,585,527,471,182,
0,440,579,520,466,181,
0,435,572,515,461,179,
0,431,563,510,455,178,
0,428,556,504,451,177,
0,423,596,499,487,176,
0,534,587,494,481,174,
0,527,579,488,476,174,
0,519,572,483,472,172,
0,513,565,479,466,171,
0,507,558,475,461,169,
0,502,551,470,456,167,
0,496,545,465,451,167,
0,491,537,462,446,166,
0,486,531,457,442,165,
0,496,588,454,489,163,
0,542,580,449,484,163,
0,535,573,446,480,196,
0,527,566,440,473,193,
0,521,559,437,468,192,
0,515,551,433,463,190,
0,510,545,430,459,188,
0,504,539,426,455,187,
0,499,531,423,448,185,
0,493,525,419,468,184,
0,495,519,415,496,182,
0,489,514,503,492,180,
0,484,509,619,486,194,
0,478,504,608,481,192,
0,473,499,601,476,190,
0,468,494,593,471,188,
0,463,488,587,465,187,
0,459,483,580,461,185,
0,454,478,574,455,184,
0,450,476,568,503,183,
0,551,599,561,496,181,
0,543,590,555,490,179,
0,536,583,549,485,192,
0,529,575,542,480,189,
0,523,568,536,475,188,
0,517,561,531,470,186,
0,511,554,526,465,184,
0,505,547,519,460,183,
0,500,540,515,455,182,
0,495,592,510,491,180,
0,519,657,504,486,179,
0,513,647,499,480,177,
0,508,639,495,475,176,
0,500,632,489,470,175,
0,496,623,665,465,174,
0,489,615,655,460,172,
0,484,607,647,455,171,
0,480,600,639,451,169,
0,475,590,632,446,168,
0,470,721,624,490,167,
0,575,711,616,484,166,
0,568,702,609,480,174,
0,560,691,603,473,188,
0,551,681,594,469,185,
0,545,672,588,463,184,
0,540,664,581,460,183,
0,533,655,575,455,181,
0,527,646,568,450,179,
0,521,636,563,445,178,
0,523,628,557,496,177,
0,551,620,551,491,175,
0,543,612,545,486,174,
0,536,604,540,480,172,
0,529,598,560,476,183,
0,523,591,552,471,181,
0,517,583,546,465,179,
0,511,576,540,461,178,
0,505,571,535,455,176,
0,500,562,529,476,176,
0,571,687,524,487,174,
0,598,677,628,482,172,
0,590,667,632,477,198,
0,580,658,624,472,196,
0,574,649,615,467,193,
0,567,639,607,462,192,
0,560,632,600,457,191,
0,553,624,593,452,189,
0,547,615,586,448,188,
0,541,607,580,494,185,
0,536,609,574,487,184,
0,529,601,568,482,183,
0,524,594,561,477,189,
0,516,588,555,472,187,
0,511,580,739,467,185,
0,505,574,728,462,184,
0,500,567,717,457,182,
0,496,560,707,453,181,
0,491,554,698,448,179,
0,486,620,690,489,178,
0,590,662,680,483,176,
0,583,652,671,478,175,
0,575,643,664,473,188,
0,567,635,655,468,187,
0,560,626,647,463,184,
0,553,618,639,459,183,
0,547,610,632,454,182,
0,540,603,624,449,179,
0,535,595,617,445,179,
0,529,713,611,483,177,
0,600,700,604,477,176,
0,591,690,598,472,271,
0,585,679,591,467,285,
0,575,671,584,462,282,
0,569,662,577,457,279,
0,563,652,571,452,276,
0,556,644,566,448,274,
0,550,636,560,444,271,
0,543,628,554,440,269,
0,537,678,548,483,267,
0,587,668,543,478,264,
0,579,659,537,472,268,
0,572,649,532,467,265,
0,563,639,527,462,263,
0,557,632,520,457,260,
0,551,624,515,452,258,
0,543,616,511,448,255,
0,538,608,505,444,254,
0,531,600,502,440,252,
0,543,790,496,482,249,
0,540,775,492,476,248,
0,534,764,487,472,246,
0,527,752,483,467,243,
0,520,741,479,462,242,
0,515,730,473,456,240,
0,510,719,470,452,238,
0,504,710,465,448,236,
0,499,700,461,443,234,
0,494,688,457,463,232,
0,590,743,454,480,231,
0,582,731,449,476,229,
0,575,720,446,470,227,
0,568,710,441,465,225,
0,559,700,438,460,224,
0,552,690,433,455,222,
0,546,680,430,451,220,
0,540,671,427,447,219,
0,534,664,423,442,216,
0,527,665,419,502,216,
0,522,655,429,494,214,
0,516,647,480,487,211,
0,511,639,473,483,236,
0,505,632,468,478,235,
0,499,624,463,472,231,
0,494,615,457,467,230,
0,488,609,454,463,228,
0,483,601,448,459,226,
0,479,595,444,454,224,
0,475,587,440,488,223,
0,542,579,435,481,221,
0,536,573,432,476,250,
0,529,567,428,472,247,
0,523,560,423,467,245,
0,515,554,419,462,243,
0,510,548,415,456,240,
0,504,543,536,452,238,
0,499,536,527,448,236,
0,494,531,521,444,234,
0,519,524,515,487,231,
0,520,519,510,481,231,
0,514,513,504,476,273,
0,508,508,558,472,270,
0,503,503,551,466,267,
0,496,498,543,461,264,
0,491,493,536,456,262,
0,485,487,531,451,259,
0,480,483,525,448,257,
0,475,479,519,444,255,
0,508,523,514,487,253,
0,504,515,508,480,251,
0,499,510,504,475,249,
0,492,504,498,470,247,
0,487,498,493,465,244,
0,481,492,487,460,243,
0,476,487,481,455,240,
0,471,481,477,451,239,
0,466,476,472,447,236,
0,462,472,468,470,235,
0,534,608,463,481,233,
0,527,600,460,474,231,
0,520,591,455,470,230,
0,515,583,451,463,227,
0,508,576,447,460,226,
0,502,569,441,455,224,
0,496,563,438,450,222,
0,491,556,433,446,220,
0,486,549,430,441,219,
0,480,547,427,492,217,
0,579,647,422,484,216,
0,572,638,419,479,214,
0,564,629,415,473,212,
0,558,620,412,468,211,
0,551,612,408,463,209,
0,543,605,403,460,207,
0,537,597,401,455,206,
0,531,590,398,449,204,
0,525,583,395,446,204,
0,519,638,391,489,201,
0,560,647,388,482,199,
0,553,639,385,476,199,
0,547,631,383,472,198,
0,540,622,380,467,196,
0,534,614,376,462,195,
0,526,606,373,457,193,
0,519,599,370,452,192,
0,515,591,368,448,190,
0,509,583,364,444,189,
0,504,644,361,494,188,
0,499,632,359,486,186,
0,494,624,435,481,192,
0,487,615,519,476,190,
0,483,608,512,471,188,
0,478,600,506,466,187,
0,472,591,499,461,185,
0,467,584,494,455,184,
0,463,577,488,451,182,
0,459,571,484,448,181,
0,548,778,479,497,179,
0,541,761,473,491,178,
0,535,750,469,486,192,
0,528,739,464,480,191,
0,522,728,460,475,189,
0,516,717,455,470,188,
0,509,707,450,465,185,
0,504,697,524,460,184,
0,498,688,518,455,183,
0,493,679,512,480,181,
0,489,744,506,486,179,
0,484,730,500,479,178,
0,480,719,496,473,178,
0,475,709,490,469,176,
0,470,699,486,463,176,
0,465,689,480,460,174,
0,459,679,474,455,172,
0,455,671,470,450,171,
0,450,662,465,446,170,
0,446,654,460,488,169,
0,559,646,455,483,167,
0,551,636,451,476,168,
0,545,627,448,471,196,
0,539,620,443,465,194,
0,532,612,439,461,192,
0,526,605,435,455,191,
0,519,598,430,451,189,
0,513,591,502,448,187,
0,508,583,496,443,185,
0,511,642,491,490,184,
0,604,673,484,484,183,
0,596,660,480,478,204,
0,588,652,475,472,201,
0,582,643,470,467,199,
0,575,635,465,463,198,
0,568,626,460,457,196,
0,560,618,455,454,195,
0,553,611,450,448,193,
0,547,603,446,444,192,
0,542,696,441,478,190,
0,536,684,437,472,188,
0,529,671,433,467,192,
0,524,664,429,462,190,
0,518,654,425,456,189,
0,512,646,422,452,187,
0,507,637,417,448,185,
0,500,628,413,443,184,
0,496,620,409,439,183,
0,491,613,406,435,181,
0,568,711,403,484,179,
0,561,700,399,479,179,
0,553,688,459,472,185,
0,547,678,586,467,184,
0,541,668,578,463,182,
0,535,659,572,457,181,
0,527,651,564,453,179,
0,521,642,556,448,177,
0,515,634,550,444,176,
0,510,626,545,486,175,
0,504,702,538,496,174,
0,499,691,532,490,172,
0,494,679,527,483,171,
0,488,670,521,479,169,
0,483,660,516,473,167,
0,480,652,511,468,167,
0,473,643,505,463,166,
0,468,635,499,459,164,
0,463,627,495,455,163,
0,460,639,490,482,163,
0,489,721,485,476,161,
0,483,710,480,472,166,
0,478,697,476,465,191,
0,472,687,472,460,189,
0,467,678,563,455,187,
0,463,668,556,451,185,
0,455,659,550,446,184,
0,451,651,542,441,182,
0,448,643,536,438,180,
0,444,723,531,496,179,
0,471,759,525,490,177,
0,465,747,519,485,194,
0,460,733,513,478,193,
0,455,722,508,473,192,
0,451,711,504,468,190,
0,446,702,498,463,189,
0,440,692,493,459,188,
0,436,683,487,455,185,
0,432,674,482,450,184,
0,493,723,478,494,182,
0,512,711,472,487,181,
0,507,702,468,483,179,
0,500,688,463,476,178,
0,495,679,476,472,176,
0,489,670,536,467,175,
0,483,660,531,462,174,
0,478,652,524,457,172,
0,472,644,518,452,171,
0,467,636,512,448,169,
0,476,652,507,484,167,
0,470,642,500,479,167,
0,464,632,496,474,173,
0,460,624,491,467,172,
0,455,615,486,463,170,
0,450,608,481,458,169,
0,446,601,476,454,167,
0,440,594,472,448,167,
0,435,588,465,444,164,
0,432,580,461,487,163,
0,428,574,510,483,162,
0,423,568,668,477,161,
0,420,560,659,472,211,
0,416,553,649,465,209,
0,413,547,641,461,207,
0,409,542,633,456,205,
0,406,536,626,451,204,
0,401,530,619,448,202,
0,399,525,609,443,199,
0,396,553,604,495,199,
0,480,627,595,488,196,
0,475,619,590,483,200,
0,470,608,583,478,211,
0,463,600,575,472,209,
0,459,593,570,467,207,
0,454,585,564,462,206,
0,449,579,558,457,204,
0,444,572,552,452,202,
0,439,564,545,448,199,
0,439,654,540,504,199,
0,492,670,535,498,199,
0,486,660,529,492,199,
0,480,648,524,487,198,
0,475,639,519,481,195,
0,470,632,532,476,194,
0,464,624,526,472,193,
0,460,615,519,466,192,
0,454,608,513,462,190,
0,449,600,508,457,188,
0,478,635,504,492,187,
0,511,625,499,487,185,
0,504,616,494,482,184,
0,499,607,489,476,182,
0,493,599,485,471,180,
0,487,591,480,465,179,
0,482,583,476,461,178,
0,477,577,472,455,176,
0,471,571,467,451,176,
0,465,563,462,448,174,
0,478,679,458,483,172,
0,472,668,454,478,171,
0,467,659,450,472,169,
0,462,647,446,467,168,
0,456,639,443,462,167,
0,452,632,439,457,166,
0,448,623,435,452,165,
0,444,615,431,448,163,
0,438,608,426,444,163,
0,433,600,423,495,161,
0,519,592,419,492,159,
0,512,585,415,487,159,
0,507,578,412,481,185,
0,500,570,409,476,184,
0,495,563,406,470,183,
0,489,556,403,464,181,
0,484,551,399,460,179,
0,480,543,396,455,178,
0,472,538,391,451,176,
0,468,540,390,494,175,
0,499,583,386,487,173,
0,494,575,384,483,172,
0,487,568,380,477,171,
0,483,559,377,472,169,
0,478,551,374,466,167,
0,472,545,371,462,167,
0,467,539,368,456,166,
0,462,532,366,451,164,
0,456,526,361,448,163,
0,479,664,359,488,161,
0,523,666,356,483,160,
0,516,656,353,478,205,
0,511,647,352,472,203,
0,504,637,348,466,200,
0,499,628,346,462,199,
0,494,620,344,456,197,
0,487,611,340,451,195,
0,483,604,339,448,193,
0,476,596,335,443,192,
0,550,719,333,480,190,
0,556,707,331,473,188,
0,548,697,327,469,222,
0,542,687,326,463,219,
0,536,675,323,457,217,
0,529,665,321,453,216,
0,524,656,319,448,213,
0,518,647,317,444,211,
0,512,639,315,440,209,
0,505,632,312,445,207,
0,589,739,310,480,206,
0,581,728,307,475,204,
0,574,717,305,470,219,
0,567,707,343,464,217,
0,560,695,338,458,215,
0,553,684,335,454,214,
0,547,675,332,449,211,
0,540,667,329,444,209,
0,535,657,326,440,207,
0,527,649,323,499,206,
0,521,689,319,493,204,
0,515,679,316,487,203,
0,510,670,313,483,203,
0,505,661,312,478,201,
0,499,649,308,472,199,
0,495,641,306,467,198,
0,489,633,304,462,196,
0,484,625,302,457,195,
0,480,617,300,452,193,
0,474,611,297,496,192,
0,499,603,295,489,190,
0,494,595,293,484,195,
0,488,589,387,479,195,
0,483,582,383,473,194,
0,478,574,379,467,192,
0,472,568,375,463,191,
0,467,561,371,458,190,
0,463,555,368,454,188,
0,459,548,364,449,187,
0,454,627,359,490,184,
0,449,617,356,484,184,
0,444,609,353,480,193,
0,440,601,351,474,192,
0,436,593,348,469,190,
0,432,583,344,463,188,
0,428,575,342,459,187,
0,424,569,338,454,185,
0,420,563,335,449,184,
0,417,556,332,445,182,
0,487,609,329,487,180,
0,480,600,326,481,179,
0,475,592,323,476,192,
0,470,584,320,472,190,
0,464,577,318,466,188,
0,460,568,442,460,187,
0,455,561,436,455,185,
0,450,555,432,451,184,
0,446,548,427,446,183,
0,440,542,423,459,181,
0,508,683,418,487,179,
0,500,671,414,482,177,
0,495,664,409,477,176,
0,489,654,406,472,175,
0,484,645,402,467,174,
0,479,635,399,461,172,
0,473,626,395,455,171,
0,468,619,391,451,169,
0,463,611,387,447,167,
0,457,603,384,493,167,
0,579,636,380,487,166,
0,570,627,376,481,165,
0,563,620,373,476,217,
0,556,611,370,471,216,
0,550,604,367,466,214,
0,543,594,364,460,211,
0,537,587,359,455,209,
0,531,579,358,451,207,
0,526,573,355,446,206,
0,519,596,352,491,204,
0,526,633,348,484,202,
0,519,625,435,480,201,
0,514,616,612,475,199,
0,508,608,603,470,198,
0,503,600,595,464,195,
0,497,591,588,459,194,
0,492,583,582,454,192,
0,487,575,575,449,192,
0,483,569,568,445,190,
0,519,649,563,492,188,
0,561,639,554,486,187,
0,555,630,548,480,206,
0,547,621,615,475,204,
0,540,613,608,470,203,
0,535,605,600,464,200,
0,528,595,593,459,199,
0,523,588,586,454,198,
0,516,581,579,449,195,
0,511,574,572,445,194,
0,543,589,567,474,192,
0,536,581,559,468,191,
0,529,574,622,464,249,
0,523,567,694,459,247,
0,516,560,684,454,243,
0,511,553,675,449,241,
0,505,545,667,444,240,
0,499,539,659,440,238,
0,495,534,651,435,236,
0,489,527,643,448,234,
0,609,705,636,462,231,
0,600,694,626,455,230,
0,592,684,704,451,227,
0,585,674,766,447,226,
0,578,665,755,442,224,
0,571,654,743,438,222,
0,564,645,734,432,220,
0,558,637,724,428,219,
0,551,628,715,423,217,
0,545,621,706,473,216,
0,575,688,696,467,214,
0,568,677,686,462,211,
0,561,668,679,457,210,
0,556,659,670,452,208,
0,549,650,663,448,207,
0,543,639,655,444,206,
0,536,632,647,438,204,
0,531,623,639,433,202,
0,525,615,632,430,201,
0,519,643,626,487,199,
0,515,660,619,481,198,
0,509,651,610,476,216,
0,504,642,819,471,216,
0,499,633,903,465,214,
0,494,625,897,460,211,
0,488,615,879,455,210,
0,483,608,865,450,208,
0,479,600,852,446,207,
0,474,592,839,441,204,
0,471,707,828,486,203,
0,568,705,816,480,201,
0,560,694,801,475,214,
0,554,684,791,470,211,
0,547,675,780,465,209,
0,540,665,769,460,207,
0,535,655,760,455,206,
0,528,646,750,449,204,
0,523,638,740,445,203,
0,517,630,731,441,201,
0,512,622,722,487,199,
0,507,615,711,482,198,
0,501,607,703,477,214,
0,496,600,694,472,211,
0,491,591,686,467,209,
0,486,585,678,462,207,
0,480,576,671,457,206,
0,476,570,663,451,204,
0,472,563,655,447,203,
0,466,557,647,473,201,
0,551,675,648,504,199,
0,577,665,683,497,198,
0,570,655,673,492,224,
0,563,647,665,487,222,
0,556,639,656,482,219,
0,550,630,647,477,217,
0,543,620,639,472,216,
0,537,612,633,466,214,
0,531,604,627,461,211,
0,526,596,620,508,211,
0,611,590,614,500,208,
0,601,583,606,495,207,
0,593,575,600,489,217,
0,586,568,593,484,216,
0,579,562,587,480,214,
0,572,556,581,475,211,
0,566,548,575,470,210,
0,560,542,569,463,207,
0,552,536,564,459,207,
0,547,641,559,498,205,
0,621,684,553,492,204,
0,610,673,547,487,201,
0,603,664,542,481,202,
0,595,655,536,476,199,
0,588,647,531,472,199,
0,582,638,527,467,198,
0,575,627,521,460,195,
0,568,620,517,455,194,
0,561,611,512,451,193,
0,556,615,508,493,192,
0,648,607,504,487,190,
0,638,600,497,483,188,
0,630,591,493,477,187,
0,622,584,489,472,185,
0,614,577,484,467,184,
0,607,572,536,463,183,
0,600,563,530,456,182,
0,591,556,524,452,180,
0,585,550,518,448,179,
0,579,618,512,498,177,
0,572,609,507,492,176,
0,563,601,500,487,188,
0,558,593,511,482,185,
0,551,586,505,477,184,
0,545,579,500,472,183,
0,540,572,495,467,180,
0,534,563,489,461,179,
0,527,556,484,455,178,
0,523,550,480,486,177,
0,571,678,476,492,175,
0,563,668,472,487,174,
0,555,658,467,481,192,
0,547,649,463,476,190,
0,541,639,460,472,188,
0,536,632,455,467,187,
0,529,624,451,462,185,
0,523,614,448,455,184,
0,518,606,444,451,183,
0,512,600,440,499,181,
0,543,591,437,492,179,
0,537,583,433,487,178,
0,529,577,429,481,186,
0,523,571,425,476,184,
0,517,563,423,472,183,
0,511,558,419,467,181,
0,505,551,415,462,179,
0,500,543,412,455,178,
0,496,537,409,451,177,
0,491,531,407,503,176,
0,560,526,403,496,174,
0,552,519,399,491,176,
0,543,515,396,486,217,
0,537,510,393,480,216,
0,531,504,390,476,213,
0,526,499,387,471,211,
0,519,495,384,465,209,
0,514,488,382,460,207,
0,508,483,379,455,206,
0,504,591,376,499,204,
0,516,582,373,494,203,
0,510,574,440,488,233,
0,503,567,433,483,232,
0,497,560,429,478,231,
0,492,552,424,472,228,
0,487,546,420,468,227,
0,482,540,416,463,225,
0,477,531,412,457,223,
0,472,526,408,454,221,
0,521,670,404,491,220,
0,618,659,400,485,217,
0,609,649,397,480,252,
0,600,639,391,475,248,
0,593,632,389,470,247,
0,585,624,385,464,244,
0,579,615,382,460,242,
0,572,608,379,455,240,
0,566,598,376,450,238,
0,559,591,372,489,236,
0,552,635,369,492,235,
0,547,625,367,487,231,
0,540,617,364,481,231,
0,533,609,360,476,228,
0,527,601,358,472,227,
0,521,593,355,467,224,
0,516,587,353,462,223,
0,511,579,350,457,221,
0,505,571,348,451,220,
0,500,565,345,500,217,
0,587,599,343,494,216,
0,579,591,340,488,214,
0,569,583,338,483,212,
0,563,575,335,479,211,
0,556,568,435,473,209,
0,550,561,431,468,207,
0,543,555,425,463,206,
0,536,548,422,459,204,
0,531,541,417,453,203,
0,525,608,414,495,201,
0,555,652,409,488,199,
0,547,643,406,483,198,
0,539,634,401,479,196,
0,533,625,396,473,195,
0,527,617,393,468,193,
0,520,609,390,463,192,
0,515,602,386,459,191,
0,510,595,383,454,189,
0,504,585,379,448,188,
0,499,718,376,503,186,
0,495,705,372,497,185,
0,489,696,369,492,189,
0,483,685,366,487,187,
0,479,675,363,481,185,
0,475,667,567,476,184,
0,470,657,557,472,183,
0,465,649,551,467,181,
0,460,639,543,462,179,
0,455,631,537,455,179,
0,518,760,532,494,177,
0,588,748,526,487,176,
0,581,737,520,483,219,
0,572,726,585,478,216,
0,565,715,575,472,214,
0,559,705,568,467,211,
0,551,696,563,463,210,
0,545,686,556,459,208,
0,540,676,550,454,207,
0,533,665,543,497,205,
0,529,667,537,497,204,
0,523,657,531,492,201,
0,518,649,527,486,199,
0,511,639,520,481,199,
0,505,633,639,476,196,
0,500,625,629,472,195,
0,495,617,621,466,193,
0,489,609,613,461,192,
0,484,600,606,456,190,
0,480,610,600,496,189,
0,598,671,591,491,188,
0,589,662,585,486,186,
0,582,652,579,480,192,
0,572,643,572,475,191,
0,566,636,564,470,188,
0,559,627,558,465,187,
0,552,619,552,460,185,
0,546,611,547,455,184,
0,540,601,541,451,183,
0,534,655,536,489,181,
0,568,646,529,483,179,
0,560,636,524,479,179,
0,553,627,519,473,182,
0,545,620,514,468,179,
0,539,611,508,463,178,
0,533,604,503,459,177,
0,527,595,498,454,176,
0,521,589,494,449,174,
0,515,580,488,445,173,
0,517,686,484,484,172,
0,668,674,480,479,171,
0,658,664,476,473,220,
0,649,655,471,468,217,
0,639,647,465,463,216,
0,632,638,462,459,214,
0,624,630,457,454,211,
0,615,621,453,449,209,
0,608,614,449,445,207,
0,601,604,446,440,207,
0,594,671,441,495,204,
0,588,662,438,489,203,
0,581,654,561,484,243,
0,574,643,691,479,240,
0,567,635,679,473,238,
0,560,627,670,468,236,
0,553,619,662,463,233,
0,547,611,653,460,231,
0,542,603,646,455,230,
0,536,603,638,451,227,
0,591,751,631,480,225,
0,583,739,623,475,224,
0,575,728,615,469,259,
0,569,717,608,464,255,
0,561,707,600,460,254,
0,554,696,593,455,251,
0,547,687,588,450,248,
0,542,678,580,446,247,
0,536,669,575,441,244,
0,529,689,569,480,243,
0,524,765,563,477,240,
0,519,753,557,472,239,
0,513,742,779,467,236,
0,508,731,837,462,234,
0,502,719,820,457,232,
0,496,710,807,452,231,
0,492,700,796,448,228,
0,487,690,785,444,227,
0,483,680,774,440,225,
0,478,758,764,489,224,
0,574,744,753,481,222,
0,566,734,792,476,220,
0,559,723,803,472,217,
0,551,711,791,466,216,
0,543,702,776,462,215,
0,537,692,766,457,212,
0,531,683,755,452,211,
0,526,674,745,448,209,
0,519,665,736,443,207,
0,515,675,727,501,207,
0,530,664,717,495,204,
0,524,655,785,490,216,
0,518,647,847,484,215,
0,512,639,834,480,212,
0,505,631,818,475,211,
0,499,623,807,470,208,
0,494,615,795,464,207,
0,489,608,783,460,205,
0,484,600,773,455,204,
0,527,600,763,488,201,
0,524,591,752,483,199,
0,519,585,743,478,231,
0,512,578,734,473,230,
0,507,572,724,468,228,
0,499,566,712,463,226,
0,494,559,704,459,224,
0,488,553,696,454,222,
0,483,547,688,449,220,
0,478,541,679,446,217,
0,510,607,671,483,216,
0,504,599,664,478,215,
0,499,591,656,473,212,
0,493,583,671,468,211,
0,487,575,678,463,209,
0,481,568,670,459,207,
0,476,562,662,454,206,
0,471,555,653,449,204,
0,467,548,646,445,203,
0,462,543,639,489,201,
0,500,572,632,483,199,
0,494,564,625,478,198,
0,488,558,619,472,198,
0,483,551,611,467,196,
0,478,543,606,463,195,
0,472,538,598,459,193,
0,466,532,591,454,192,
0,461,526,585,449,190,
0,456,521,579,444,188,
0,453,580,574,494,188,
0,487,659,568,486,185,
0,481,649,562,481,193,
0,476,639,557,476,217,
0,471,632,551,471,216,
0,465,624,546,465,214,
0,459,615,540,460,211,
0,455,608,535,455,210,
0,450,600,529,451,208,
0,446,592,524,448,207,
0,473,668,519,481,205,
0,527,680,515,475,203,
0,520,671,510,470,256,
0,515,662,505,464,253,
0,508,652,500,460,250,
0,503,643,496,455,248,
0,496,636,491,450,246,
0,491,627,487,446,243,
0,486,619,483,441,241,
0,480,611,479,437,240,
0,553,604,475,487,237,
0,547,595,470,480,236,
0,540,588,466,475,233,
0,534,580,462,470,231,
0,527,574,459,464,230,
0,521,567,455,460,227,
0,515,560,449,455,225,
0,508,554,446,451,224,
0,504,548,442,446,222,
0,497,542,439,455,220,
0,555,639,435,496,219,
0,547,628,432,488,217,
0,540,620,428,483,217,
0,534,612,424,478,216,
0,527,604,422,473,214,
0,521,596,418,468,212,
0,514,589,414,463,211,
0,508,582,411,459,209,
0,504,575,408,455,207,
0,497,568,404,504,206,
0,571,643,401,497,204,
0,563,632,398,491,203,
0,556,624,463,485,201,
0,550,615,459,480,199,
0,543,608,454,475,199,
0,536,600,449,470,197,
0,528,591,443,465,195,
0,523,584,438,460,193,
0,517,577,433,455,192,
0,512,657,430,496,191,
0,621,753,425,489,190,
0,612,738,422,483,207,
0,604,728,417,478,219,
0,597,716,414,472,217,
0,590,707,409,467,216,
0,581,696,406,463,214,
0,574,687,401,459,211,
0,568,678,398,454,209,
0,560,668,395,449,207,
0,555,771,391,489,206,
0,550,758,388,483,204,
0,543,743,385,477,242,
0,537,732,383,472,239,
0,531,721,380,467,236,
0,526,711,377,462,235,
0,519,701,374,457,232,
0,514,691,371,452,231,
0,508,681,368,448,228,
0,504,673,365,444,227,
0,569,700,363,482,225,
0,561,689,359,476,223,
0,555,678,495,470,241,
