=~=~=~=~=~=~=~=~=~=~=~= PuTTY log 2021.04.22 12:14:48 =~=~=~=~=~=~=~=~=~=~=~=
8,
0,75,642,177,84,332,
0,75,633,176,83,327,
0,75,627,174,83,64,105,397,
0,87,624,183,104,393,
0,86,615,181,103,390,
0,84,607,179,103,386,
0,116,600,178,102,383,
0,115,591,177,102,408,
0,113,583,176,100,404,
0,113,575,174,99,400,
0,112,569,172,99,396,
0,111,563,171,98,392,
0,110,556,169,97,389,
0,1bbbbªbj
0,108,617,167,101,382,
0,107,609,166,StartUp!
124,61,515,222,89,351,
0,61,512,220,89,350,
0,61,510,220,89,347,
0,60,506,219,88,345,
0,70,503,217,88,343,
0,69,498,216,88,341,
0,69,496,216,88,368,
0,68,492,214,87,364,
0,67,489,212,86,363,
0,67,486,211,86,359,
0,67,483,210,85,356,
0,66,478,209,84,354,
0,65,473,207,83,351,
0,65,551,206,88,348,
0,65,545,204,87,344,
0,63,539,202,86,342,
0,97,532,201,85,339,
0,96,526,199,84,335,
0,95,521,203,84,358,
0,94,515,200,83,355,
0,92,509,199,83,352,
0,92,504,198,82,348,
0,92,499,196,81,345,
0,91,493,195,81,343,
0,90,595,194,87,339,
0,89,585,192,86,336,
0,88,579,191,86,334,
0,88,572,190,84,332,
0,88,565,188,84,328,
0,88,559,187,83,355,
0,87,553,185,83,352,
0,86,547,185,83,350,
0,86,542,184,82,347,
0,85,536,183,81,344,
0,84,531,182,99,340,
0,83,616,180,99,337,
0,83,608,179,98,335,
0,83,600,177,97,332,
0,96,591,176,96,329,
0,95,586,175,96,364,
0,94,579,183,95,361,
0,93,572,182,94,358,
0,92,564,180,93,354,
0,92,560,178,93,351,
0,91,553,177,92,348,
0,90,549,176,112,345,
0,89,543,175,111,342,
0,89,536,173,110,339,
0,107,530,172,109,335,
0,106,524,171,108,333,
0,105,519,199,108,384,
1,103,513,195,106,379,
1,103,507,194,105,375,
1,102,502,192,104,371,
1,101,496,191,103,368,
2,100,604,189,111,364,
2,99,678,188,110,360,
2,99,668,186,108,358,
3,98,659,185,108,354,
3,97,649,184,107,351,
3,96,641,207,106,379,
3,95,632,206,105,375,
3,95,624,204,103,371,
3,94,615,203,103,368,
3,93,608,201,103,365,
3,92,604,199,117,361,
3,92,628,198,116,358,
3,91,620,196,115,355,
3,112,611,195,114,352,
3,115,603,193,113,349,
3,114,595,203,112,396,
3,113,588,199,111,391,
3,112,582,198,111,387,
3,111,575,197,109,384,
3,110,568,195,108,380,
3,110,575,193,127,376,
4,108,643,192,125,372,
4,108,633,190,124,368,
3,108,625,189,123,366,
4,108,617,188,122,363,
3,107,609,207,121,386,
4,105,601,205,120,382,
4,104,593,203,120,377,
3,103,586,201,118,374,
4,103,579,199,118,371,
4,102,671,199,117,367,
3,102,684,196,116,364,
4,101,675,195,115,359,
4,101,665,193,114,357,
3,100,655,192,113,359,
3,99,647,207,112,391,
3,99,639,206,112,387,
3,97,631,204,111,384,
3,97,623,202,110,380,
3,96,615,199,110,376,
3,96,649,199,114,372,
3,95,657,198,113,369,
3,94,647,195,112,366,
3,94,639,194,112,363,
3,93,631,192,111,381,
3,92,623,191,110,425,
3,91,614,190,109,422,
3,91,607,188,108,417,
3,90,600,187,107,414,
3,89,591,185,106,409,
3,88,627,184,116,406,
3,88,647,183,115,401,
3,88,639,181,115,398,
3,92,632,180,114,395,
3,97,624,179,113,391,
3,96,616,201,112,441,
3,96,608,199,111,435,
3,95,600,199,111,432,
3,94,593,197,109,427,
3,93,585,195,108,423,
3,92,579,194,116,419,
3,92,624,192,115,415,
3,91,615,191,113,412,
3,91,607,189,112,408,
3,112,599,188,112,404,
3,110,591,195,111,414,
3,109,583,197,110,408,
3,108,575,195,109,403,
3,108,569,193,108,399,
3,107,563,192,108,396,
3,105,555,191,109,393,
3,104,548,188,110,390,
3,103,543,187,108,386,
2,103,536,185,108,383,
2,115,531,184,108,379,
2,113,525,195,106,419,
2,112,519,193,105,414,
2,111,514,191,104,409,
2,111,508,189,103,405,
2,110,504,188,103,401,
2,108,561,187,103,398,
2,108,605,184,103,393,
2,107,597,184,102,390,
1,116,589,182,102,387,
2,115,582,180,100,384,
2,115,574,205,99,431,
2,113,568,203,99,426,
1,113,560,201,98,422,
1,112,553,199,97,417,
2,111,547,198,97,414,
1,110,606,196,111,409,
1,109,643,195,109,406,
1,108,634,193,108,401,
1,113,626,192,108,398,
1,115,617,190,107,401,
1,115,609,198,106,427,
1,113,601,196,105,423,
1,112,594,195,103,419,
1,112,587,193,103,414,
1,111,577,192,103,411,
1,110,733,190,103,407,
1,109,748,188,103,403,
1,108,736,187,102,399,
1,107,726,185,101,395,
1,107,716,184,100,413,
1,105,705,195,99,408,
1,104,696,193,99,404,
1,103,686,192,97,400,
1,103,676,191,97,397,
1,102,668,189,96,393,
1,102,676,188,106,389,
0,100,667,185,105,386,
1,99,657,184,103,383,
0,99,648,184,103,379,
1,99,639,182,103,376,
1,98,632,198,102,435,
0,97,624,196,101,430,
0,96,619,195,100,425,
1,96,611,192,99,422,
1,95,604,191,99,419,
0,94,596,190,98,415,
1,94,636,188,97,410,
0,93,630,187,97,407,
0,92,622,185,96,403,
1,92,614,184,96,399,
0,91,605,183,95,415,
0,91,600,212,94,411,
0,89,591,211,94,408,
0,89,585,209,93,404,
0,88,578,207,92,400,
0,88,572,206,92,396,
0,88,600,204,109,392,
0,87,600,203,108,390,
0,86,592,200,107,385,
0,100,585,199,106,382,
0,99,577,198,105,384,
0,99,571,209,104,445,
0,97,563,207,103,441,
0,96,558,207,103,436,
0,96,551,204,102,432,
0,95,545,203,101,428,
0,94,619,201,100,423,
0,94,663,199,99,419,
0,93,655,198,99,415,
0,92,646,196,98,412,
0,91,638,195,97,408,
0,91,629,193,97,438,
0,90,623,198,96,432,
0,89,615,195,96,428,
0,88,607,195,95,424,
0,88,600,193,94,420,
0,88,591,192,94,415,
0,87,668,190,96,412,
0,86,681,188,96,409,
0,86,671,187,95,406,
0,88,662,185,94,401,
0,90,655,184,94,398,
0,89,647,198,93,409,
0,88,638,196,92,405,
0,88,630,195,92,401,
0,87,623,193,91,398,
0,87,615,191,90,395,
0,86,608,190,95,391,
0,86,626,188,94,387,
0,84,620,187,94,384,
0,83,611,185,93,382,
0,86,604,184,92,378,
0,86,596,183,92,399,
0,84,591,183,91,421,
0,83,583,182,90,417,
0,83,575,180,89,414,
0,83,569,179,88,409,
0,82,564,177,88,406,
0,81,572,176,91,403,
0,81,707,176,90,398,
0,80,696,174,89,395,
0,79,688,173,88,391,
0,83,679,172,88,387,
0,82,670,171,88,420,
0,82,660,196,87,415,
0,81,652,195,86,411,
0,80,645,193,86,407,
0,79,636,192,85,403,
0,79,628,190,84,399,
0,79,707,188,97,396,
0,78,699,187,96,391,
0,78,688,185,96,390,
0,132,679,184,95,386,
0,131,669,183,94,383,
0,129,659,185,93,443,
0,128,651,184,92,438,
0,127,642,182,92,433,
0,126,634,180,91,429,
0,125,626,179,91,424,
0,124,618,177,90,420,
0,123,612,176,89,416,
0,122,605,175,89,412,
0,121,598,174,88,408,
0,120,590,172,88,404,
0,120,583,185,87,438,
0,118,575,184,86,432,
0,117,569,182,86,428,
0,116,563,180,85,423,
0,115,556,179,84,419,
0,115,550,177,84,415,
0,113,543,176,85,412,
0,113,538,175,84,408,
0,112,532,173,83,403,
0,112,527,172,83,399,
0,111,523,172,82,410,
0,110,518,177,82,406,
0,109,512,176,81,401,
0,108,507,175,80,398,
0,108,502,173,79,395,
0,107,496,172,79,391,
0,106,539,171,87,387,
0,105,531,169,86,384,
0,104,524,167,86,381,
0,103,519,167,84,377,
0,103,512,166,84,398,
0,103,506,207,83,425,
0,102,500,206,83,420,
0,101,495,204,82,416,
0,100,491,202,81,412,
0,99,486,199,81,408,
0,99,481,199,88,406,
0,97,476,198,88,401,
0,97,472,195,87,398,
0,103,468,194,87,394,
0,108,464,192,86,391,
0,107,460,229,85,405,
0,106,455,227,84,401,
0,105,451,224,83,398,
0,103,448,222,83,394,
0,103,443,221,82,390,
0,103,440,219,82,387,
0,102,585,217,81,384,
0,101,577,216,80,380,
0,100,570,214,79,376,
0,99,564,212,79,373,
0,99,558,211,79,422,
0,98,551,209,79,417,
0,97,543,207,78,414,
0,97,537,206,78,409,
0,96,532,205,76,406,
0,95,527,203,76,403,
0,95,524,201,77,399,
0,94,517,199,76,395,
0,93,513,199,76,391,
0,92,507,198,76,388,
0,92,502,196,75,385,
0,92,496,211,75,448,
0,91,492,209,73,443,
0,89,487,207,73,440,
0,89,482,206,73,435,
0,89,477,204,71,430,
0,88,473,203,71,427,
0,88,531,200,71,423,
0,87,524,199,71,419,
0,87,518,198,71,415,
0,87,513,196,70,411,
0,86,507,195,70,408,
0,86,501,201,69,430,
0,85,496,199,68,425,
0,84,491,198,68,421,
0,83,486,195,67,417,
0,83,480,195,67,414,
0,83,515,193,70,410,
0,82,604,192,69,406,
0,81,595,190,68,402,
0,81,587,190,67,399,
0,90,579,188,67,396,
0,89,572,186,67,445,
0,88,567,195,67,440,
0,88,560,194,65,436,
0,88,553,193,65,432,
0,87,547,192,65,427,
0,86,542,190,65,423,
0,85,560,188,76,419,
0,84,577,187,76,415,
0,84,569,185,75,412,
0,83,564,184,75,408,
0,84,557,183,73,405,
0,83,551,185,73,439,
0,83,543,195,72,433,
0,82,539,193,71,429,
0,81,532,192,71,426,
0,81,527,190,71,422,
0,80,520,188,71,417,
0,79,574,187,73,414,
0,79,566,185,72,411,
0,79,558,184,71,407,
0,115,551,184,71,403,
0,114,544,182,71,399,
0,113,539,201,70,446,
0,112,531,199,70,441,
0,111,526,197,69,436,
0,110,519,195,69,432,
0,109,515,194,68,428,
0,108,510,192,72,423,
0,107,511,191,71,419,
0,106,505,189,71,415,
0,105,500,188,71,413,
0,105,495,187,70,409,
0,104,489,185,70,462,
0,103,484,184,69,456,
0,103,480,183,68,451,
0,103,475,182,67,448,
0,102,470,179,67,443,
0,101,465,179,71,439,
0,100,462,177,71,434,
0,99,459,176,70,430,
0,99,454,175,70,427,
0,113,449,173,69,423,
0,112,446,174,68,428,
0,112,441,194,67,423,
0,111,437,192,67,419,
0,110,433,191,67,415,
0,109,429,190,66,411,
0,108,425,188,66,408,
0,107,521,187,69,403,
0,106,516,184,68,399,
0,105,510,184,68,396,
0,104,504,182,67,393,
0,103,497,180,67,400,
0,103,492,183,66,397,
0,102,487,181,65,393,
0,101,481,179,65,390,
0,100,476,179,64,386,
0,99,471,177,63,383,
0,99,586,176,81,380,
0,98,579,175,79,376,
0,97,572,173,79,374,
0,97,564,172,78,371,
0,96,558,171,78,368,
0,95,552,178,77,378,
0,95,545,176,76,376,
0,94,540,176,76,371,
0,93,533,174,75,368,
0,92,527,172,75,364,
0,92,522,171,74,363,
0,91,632,171,81,359,
0,91,622,169,80,356,
0,89,615,167,79,353,
0,89,608,167,79,352,
0,89,600,166,78,348,
0,88,591,167,78,393,
0,88,585,166,77,390,
0,87,579,164,77,387,
0,86,572,163,76,384,
0,86,564,163,76,379,
0,85,560,161,76,376,
0,84,611,159,76,373,
0,83,603,159,75,369,
0,83,595,158,74,367,
0,87,589,157,73,363,
0,86,582,170,73,417,
0,85,574,193,72,414,
0,84,568,192,71,409,
0,83,560,190,71,405,
0,83,556,188,71,401,
0,83,549,187,71,399,
0,82,543,185,85,395,
0,81,536,184,84,391,
0,81,532,182,83,387,
0,85,526,180,83,384,
0,87,519,179,82,381,
0,86,515,195,81,432,
0,85,510,193,81,427,
0,84,504,192,80,423,
0,83,499,190,79,419,
0,83,495,188,79,415,
0,83,491,187,79,411,
0,82,548,185,78,408,
0,81,540,184,77,403,
0,81,534,183,76,399,
0,80,529,182,76,396,
0,79,523,180,76,393,
0,79,516,185,75,416,
0,79,510,184,74,412,
0,78,506,183,74,408,
0,77,500,181,73,405,
0,76,495,179,73,401,
0,76,489,179,78,397,
0,76,499,177,76,393,
0,75,493,176,76,390,
0,75,487,175,76,387,
0,74,483,173,75,384,
0,73,478,172,75,412,
0,73,473,186,73,419,
0,72,468,184,73,415,
0,71,463,184,72,411,
0,71,460,182,71,408,
0,71,455,180,71,403,
0,71,451,179,79,400,
0,70,496,178,79,396,
0,70,489,176,78,392,
0,70,486,175,78,390,
0,73,480,174,77,387,
0,72,475,172,76,427,
0,71,468,171,76,422,
0,71,465,170,76,418,
0,71,460,168,75,415,
0,70,455,167,75,411,
0,70,451,167,73,407,
0,69,523,165,73,403,
0,69,560,163,72,399,
0,68,553,163,71,396,
0,68,547,161,71,391,
0,67,541,160,71,388,
0,67,536,163,71,405,
0,67,528,161,70,401,
0,66,521,159,70,398,
0,65,516,159,69,393,
0,65,511,158,68,391,
0,65,505,156,71,387,
0,64,536,156,89,384,
0,63,529,155,89,380,
0,63,524,153,88,376,
0,87,519,152,88,375,
0,86,512,152,87,371,
0,86,506,176,86,409,
0,84,502,175,86,405,
0,83,496,173,84,402,
0,83,492,172,84,398,
0,82,486,171,83,394,
0,81,482,169,83,391,
0,81,528,167,83,387,
0,79,522,167,82,384,
0,79,515,166,81,380,
0,83,511,164,81,377,
0,82,505,172,80,398,
0,82,499,183,79,397,
0,81,494,182,79,392,
0,80,489,179,79,389,
0,79,484,178,78,386,
0,79,479,177,77,383,
0,79,572,176,79,379,
0,78,599,174,79,376,
0,77,591,172,78,372,
0,96,583,172,77,369,
0,96,575,170,76,367,
0,96,568,194,76,435,
0,95,563,192,76,432,
0,94,556,190,75,428,
0,93,550,188,74,423,
0,92,543,187,73,419,
0,92,538,185,73,415,
0,91,575,184,76,412,
0,90,568,183,75,408,
0,89,560,182,74,403,
0,89,555,179,73,400,
0,88,548,178,73,398,
0,88,542,182,72,428,
0,88,536,180,71,423,
0,87,530,179,71,419,
0,86,524,177,71,416,
0,85,519,176,71,412,
0,85,513,175,83,408,
0,84,551,174,83,404,
0,83,543,172,82,401,
0,83,537,171,81,398,
0,82,531,169,80,394,
0,81,526,168,80,402,
0,81,519,219,79,399,
0,80,514,217,79,395,
0,79,508,215,78,391,
0,79,504,213,78,387,
0,78,498,211,77,384,
0,78,539,210,79,382,
0,78,638,208,78,378,
0,77,629,207,78,375,
0,77,623,205,77,371,
0,76,614,203,76,369,
0,76,607,202,76,423,
0,76,599,200,75,
07,627,186,71,391,
0,106,619,184,71,387,
0,105,611,183,71,384,
0,1073,369,
0,109,643,189,73,399,
0,108,635,188,72,396,
0,107,627,186,71,391,
0,106,619,184,71,387,
0,105,611,183,71,384,
0,104,604,181,7209,643,189,73,399,
0,108,635,188,72,396,
0,107,627,186,71,391,
0,106,619,184,71,387,
0,105,611,183,71,384,
0,104,604,181,72,380,
0,103,662,179,71,376,
0,103,652,178,71,373,
0,102,644,177,71,369,
0,108,638,176,71,367,
0,107,630,185,70,391,
0,107,621,184,70,387,
0,105,612,183,68,384,
0,104,605,181,68,380,
0,103,598,179,67,377,
0,103,590,178,70,374,
0,102,631,177,86,370,
0,102,622,175,85,367,
0,100,613,174,84,364,
0,113,605,172,83,359,
0,112,598,172,83,357,
0,111,590,190,82,354,
0,110,583,188,81,351,
0,109,577,186,81,348,
0,108,571,184,80,344,
0,108,563,183,79,342,
0,107,666,182,79,339,
0,105,684,180,79,337,
0,104,673,179,78,334,
0,106,664,177,78,332,
0,105,655,176,77,339,
0,104,646,191,76,374,
0,103,638,189,76,369,
0,103,630,188,75,366,
0,102,621,186,75,362,
0,101,614,184,73,359,
0,100,624,183,73,355,
0,99,617,182,73,352,
0,99,609,180,72,350,
0,103,601,179,71,347,
0,103,594,177,71,344,
0,102,587,201,71,406,
0,101,580,199,71,401,
0,100,573,197,70,398,
0,99,568,195,69,393,
0,99,561,194,69,390,
0,98,555,192,71,387,
0,97,577,191,72,384,
0,96,569,190,71,380,
0,96,564,188,71,376,
0,98,557,187,71,374,
0,97,551,185,71,404,
0,97,544,201,70,415,
0,96,540,199,70,411,
0,95,534,198,69,408,
0,94,527,196,68,403,
0,94,523,195,67,399,
0,93,519,193,68,396,
0,92,601,192,68,392,
0,92,592,190,67,389,
0,92,585,188,67,385,
0,96,579,188,67,382,
0,95,572,199,66,432,
0,94,565,198,65,427,
0,94,558,196,65,423,
0,92,553,195,64,418,
0,92,547,193,63,415,
0,91,540,192,63,411,
0,91,616,190,68,407,
0,90,609,188,67,403,
0,89,601,187,67,400,
0,111,593,185,67,396,
0,109,585,184,66,392,
0,108,579,183,65,390,
0,107,571,182,65,387,
0,106,564,180,64,384,
0,105,558,179,63,380,
0,103,551,177,63,376,
0,103,597,176,92,373,
0,103,711,175,90,369,
0,102,704,173,89,366,
0,101,693,172,89,364,
0,110,683,171,88,359,
0,109,674,180,87,386,
0,108,664,178,87,384,
0,107,655,177,86,379,
0,106,647,175,85,376,
0,105,638,174,84,371,
0,104,631,173,84,368,
0,103,622,172,84,365,
0,103,615,170,83,361,
0,102,607,168,83,358,
0,115,600,167,82,355,
0,113,593,186,81,406,
0,112,585,203,81,401,
0,111,580,199,80,397,
0,111,573,199,79,393,
0,110,567,197,79,390,
0,108,560,195,79,386,
0,108,575,193,79,384,
0,107,568,192,78,379,
0,105,561,191,78,376,
0,113,555,190,77,372,
0,112,547,188,76,406,
0,111,542,209,76,423,
0,110,536,207,75,420,
0,109,530,206,75,415,
0,108,524,204,73,412,
0,107,519,203,73,408,
0,106,571,201,73,403,
0,105,607,199,73,399,
0,103,599,198,72,396,
0,117,591,196,71,391,
0,115,583,194,71,390,
0,115,575,193,71,386,
0,113,568,192,70,382,
0,112,561,190,70,379,
0,112,555,188,69,376,
0,111,548,187,68,372,
0,110,543,185,71,368,
0,109,554,184,71,366,
0,108,547,183,70,362,
0,108,540,182,69,359,
0,106,536,179,69,356,
0,105,530,195,68,404,
0,104,524,193,67,401,
0,103,518,192,67,396,
0,103,512,190,67,393,
0,103,507,188,67,390,
0,101,502,188,73,387,
0,100,539,186,72,383,
0,99,532,184,71,379,
0,99,527,184,71,376,
0,100,521,182,71,372,
0,99,515,198,70,421,
0,99,509,203,70,417,
0,99,504,201,69,412,
0,97,499,199,68,408,
0,97,494,198,67,404,
0,96,488,196,67,401,
0,96,539,195,80,398,
0,95,545,193,79,393,
0,94,537,192,79,391,
0,103,531,191,78,387,
0,103,524,189,78,384,
0,102,519,202,76,431,
0,101,512,199,76,426,
0,100,507,199,76,422,
0,99,500,197,75,417,
0,99,496,195,75,414,
0,97,491,193,74,411,
0,97,601,192,76,407,
0,96,592,191,76,403,
0,96,587,190,75,399,
0,114,579,188,74,395,
0,113,572,187,73,423,
0,112,564,190,73,419,
0,111,558,188,72,415,
0,110,551,186,71,412,
0,109,543,184,71,408,
0,108,537,184,71,403,
0,108,629,182,92,399,
0,107,619,180,91,396,
0,106,610,179,89,391,
0,143,602,178,88,388,
0,141,594,176,88,385,
0,139,587,195,88,381,
0,138,581,194,87,377,
0,136,574,192,86,375,
0,135,568,191,86,371,
0,135,560,189,84,368,
0,134,630,188,195,365,
0,148,792,186,207,361,
0,167,779,184,205,359,
0,165,768,184,203,355,
0,163,752,182,200,352,
0,162,742,180,199,350,
0,160,731,179,197,347,
0,159,720,177,195,344,
0,158,711,176,194,340,
0,156,701,175,192,337,
0,156,819,173,236,335,
0,172,894,172,231,332,
0,176,876,171,230,329,
0,174,861,169,228,327,
0,172,844,167,225,323,
0,171,830,167,224,321,
0,169,817,166,222,319,
0,167,805,164,220,316,
0,167,792,163,218,314,
0,165,781,161,216,312,
0,163,893,160,240,308,
0,169,907,159,237,306,
0,167,910,158,235,304,
0,166,888,157,233,302,
0,164,871,156,231,300,
0,163,857,155,228,297,
0,162,844,153,227,295,
0,160,831,152,225,293,
0,159,818,152,223,291,
0,158,806,151,222,287,
0,156,899,149,240,286,
0,156,909,148,238,284,
0,154,911,147,236,282,
0,153,899,146,233,280,
0,152,878,145,231,279,
0,151,863,144,230,276,
0,150,849,143,227,275,
0,148,835,142,225,272,
0,147,824,141,224,271,
0,146,811,140,223,268,
0,145,902,139,221,267,
0,164,909,138,219,264,
0,163,911,137,217,263,
0,161,888,136,216,261,
0,159,872,164,214,300,
0,159,858,163,212,296,
0,157,844,161,211,294,
0,156,831,159,209,291,
0,154,818,159,207,288,
0,153,806,157,206,286,
0,152,794,156,204,283,
0,151,783,155,203,280,
0,150,771,153,201,279,
0,148,758,152,199,278,
0,147,748,200,199,348,
0,146,737,199,197,344,
0,145,728,196,195,341,
0,143,718,195,194,338,
0,143,708,193,193,335,
0,142,699,192,192,331,
0,140,690,190,190,327,
0,140,681,188,189,325,
0,139,672,187,188,323,
0,137,663,185,187,354,
0,136,655,222,185,380,
0,135,647,220,184,376,
0,135,639,217,183,372,
0,134,632,216,181,368,
0,132,624,214,179,364,
0,131,620,211,179,360,
0,130,612,210,177,358,
0,129,606,207,176,354,
0,128,599,206,175,352,
0,127,590,205,174,396,
0,127,583,203,172,391,
0,126,577,201,171,387,
0,125,571,199,170,384,
0,124,564,199,169,380,
0,123,559,196,167,376,
0,122,765,195,167,371,
0,121,751,193,166,368,
0,120,739,192,165,364,
0,120,728,191,163,361,
0,120,716,189,163,358,
0,119,705,188,161,355,
0,118,696,186,159,352,
0,116,686,184,159,348,
0,116,676,184,158,345,
0,115,668,182,164,344,
0,114,847,180,172,339,
0,139,831,179,169,335,
0,137,817,177,167,334,
0,135,805,176,167,331,
0,135,789,175,166,327,
0,134,777,174,164,326,
0,133,766,172,163,323,
0,132,755,172,161,319,
0,131,743,170,160,318,
0,129,785,167,216,315,
0,128,901,167,215,312,
0,137,905,166,212,310,
0,135,887,164,211,307,
0,135,871,163,209,305,
0,134,854,162,207,302,
0,132,839,161,206,300,
0,131,826,159,204,297,
0,130,814,159,202,295,
0,129,801,158,200,293,
0,127,874,156,219,291,
0,158,905,156,216,287,
0,169,911,154,215,286,
0,167,911,153,212,284,
0,167,898,152,211,281,
0,166,873,151,209,280,
0,163,859,150,207,278,
0,163,846,149,206,275,
0,161,831,147,204,273,
0,159,819,147,203,271,
0,159,893,145,202,270,
0,158,907,144,199,267,
0,156,908,143,199,265,
0,155,892,143,198,263,
0,153,874,142,196,262,
0,152,856,140,194,259,
0,152,843,140,193,258,
0,151,829,139,192,255,
0,149,816,137,190,254,
0,147,804,137,188,252,
0,147,896,135,190,250,
0,145,905,135,188,248,
0,144,892,134,187,247,
0,143,874,133,185,245,
0,143,860,132,184,243,
0,141,842,131,183,242,
0,140,829,131,181,240,
0,139,816,129,179,239,
0,138,803,129,178,237,
0,137,792,127,177,236,
0,135,819,127,176,233,
0,135,805,126,175,231,
0,134,792,125,174,231,
0,133,780,124,172,230,
0,132,769,124,172,227,
0,131,755,123,169,226,
0,130,745,122,168,225,
0,129,735,121,167,224,
0,127,725,120,167,222,
0,127,716,120,166,221,
0,126,854,119,164,219,
0,125,839,119,163,217,
0,124,825,123,162,216,
0,124,812,121,161,215,
0,123,799,120,159,214,
0,121,784,120,159,212,
0,121,772,119,157,211,
0,120,761,118,156,209,
0,120,751,117,155,207,
0,118,797,116,163,207,
0,118,872,115,161,205,
0,116,857,115,159,204,
0,115,843,114,159,203,
0,115,828,113,158,201,
0,114,816,113,156,199,
0,113,799,112,155,199,
0,113,788,112,154,198,
0,112,776,111,153,196,
0,111,765,110,152,195,
0,110,855,110,152,194,
0,110,851,108,152,192,
0,109,836,108,150,195,
0,108,823,119,149,198,
0,108,809,118,148,196,
0,107,798,116,147,195,
0,106,782,115,146,193,
0,105,771,115,145,192,
0,103,760,114,144,190,
0,103,748,113,143,189,
0,103,738,112,143,188,
0,102,728,111,142,187,
0,101,718,110,140,219,
0,101,708,125,140,223,
0,100,700,163,139,286,
0,99,691,167,138,283,
0,99,681,165,137,280,
0,98,673,163,135,278,
0,97,664,162,135,275,
0,97,656,160,135,273,
0,96,648,159,134,271,
0,96,639,158,132,268,
0,95,633,157,132,266,
0,94,625,156,131,263,
0,94,619,155,131,325,
0,93,611,201,129,347,
0,92,604,199,128,343,
0,92,599,198,127,339,
0,91,591,195,127,336,
0,91,585,194,126,334,
0,89,579,192,126,331,
0,89,572,191,124,327,
0,88,567,189,124,324,
0,88,560,188,124,323,
0,88,555,187,123,319,
0,87,548,227,121,398,
0,86,543,224,121,393,
0,86,537,223,120,390,
0,86,531,220,120,385,
0,84,526,219,119,382,
0,84,520,216,118,379,
0,83,516,215,118,375,
0,83,512,213,117,371,
0,82,507,211,116,368,
0,82,502,209,115,364,
0,81,497,229,115,425,
0,81,492,227,114,420,
0,80,487,224,113,415,
0,79,483,223,112,412,
0,79,478,221,112,408,
0,78,473,220,111,404,
0,78,470,217,111,400,
0,78,464,216,110,397,
0,77,460,214,109,393,
0,76,455,212,108,390,
0,76,453,225,108,440,
0,76,449,235,108,434,
0,75,445,231,107,430,
0,75,441,231,106,425,
0,73,438,228,105,421,
0,73,433,227,104,417,
0,73,492,225,103,413,
0,71,485,224,103,410,
0,71,480,222,103,407,
0,71,473,220,102,403,
0,71,468,218,102,444,
0,71,463,220,101,459,
0,70,458,219,100,454,
0,70,453,217,99,448,
0,69,449,216,99,444,
0,68,444,214,99,440,
0,68,490,212,97,436,
0,67,519,211,97,432,
0,67,513,209,97,428,
0,67,508,207,96,425,
0,67,502,206,96,421,
0,66,496,205,95,472,
0,65,492,203,95,466,
0,65,486,201,94,463,
0,65,480,199,93,457,
0,63,476,199,93,453,
0,63,472,198,92,448,
0,63,577,196,92,445,
0,63,585,195,91,440,
0,63,577,193,91,436,
0,63,572,192,91,432,
0,63,564,191,89,428,
0,62,558,190,89,425,
0,62,551,188,88,422,
0,62,543,187,88,417,
0,61,540,185,88,414,
0,61,533,184,88,411,
0,60,527,184,107,408,
0,60,631,182,108,403,
0,81,622,180,107,399,
0,81,614,179,105,396,
0,82,605,177,105,392,
0,81,600,176,103,390,
0,80,591,175,103,386,
0,79,583,174,103,383,
0,79,577,172,102,380,
0,78,570,172,100,376,
0,78,563,171,115,374,
0,77,768,169,182,371,
0,120,774,167,179,367,
0,118,761,167,178,364,
0,116,750,166,177,360,
0,115,739,164,175,358,
0,114,726,163,174,355,
0,113,716,162,172,352,
0,112,705,161,171,349,
0,111,696,159,169,346,
0,111,686,159,178,344,
0,109,849,157,197,341,
0,128,833,156,195,337,
0,127,820,155,193,335,
0,126,807,153,192,332,
0,125,795,153,191,329,
0,124,780,152,188,327,
0,123,768,151,187,324,
0,121,757,150,185,322,
0,120,746,148,184,319,
0,120,739,147,198,317,
0,119,888,147,196,315,
0,121,871,145,195,312,
0,120,856,144,193,310,
0,119,843,143,192,307,
0,118,829,143,190,305,
0,118,813,142,188,303,
0,116,800,140,187,300,
0,115,788,140,185,298,
0,114,777,139,184,295,
0,113,824,137,184,294,
0,113,899,136,183,291,
0,126,883,135,182,289,
0,124,868,135,180,287,
0,124,854,134,179,284,
0,122,839,133,177,283,
0,121,824,132,176,281,
0,120,811,131,175,279,
0,120,798,131,173,277,
0,119,787,130,172,275,
0,118,878,129,213,273,
0,116,904,127,211,271,
0,115,900,127,209,268,
0,115,880,126,207,267,
0,114,865,126,206,265,
0,113,851,124,204,263,
0,112,834,124,201,262,
0,111,821,123,199,259,
0,111,808,123,199,257,
0,110,796,121,197,255,
0,109,894,120,203,254,
0,121,907,120,201,252,
0,120,908,119,199,250,
0,119,888,118,198,248,
0,118,871,118,196,248,
0,116,857,116,195,246,
0,115,840,116,193,243,
0,115,828,115,192,242,
0,114,814,115,190,240,
0,113,802,113,191,239,
0,112,899,113,201,238,
0,115,908,112,199,235,
0,115,901,112,198,233,
0,114,880,111,196,231,
0,112,864,110,195,231,
0,112,851,109,193,229,
0,111,833,108,191,227,
0,110,820,108,190,227,
0,109,808,107,188,225,
0,108,796,107,203,223,
0,108,900,105,201,222,
0,128,898,105,199,220,
0,127,878,104,198,219,
0,126,863,103,196,217,
0,125,849,103,195,216,
0,124,835,103,193,215,
0,123,819,102,192,212,
0,121,807,102,190,211,
0,121,795,100,188,210,
0,120,839,100,200,209,
0,119,903,99,199,207,
0,118,907,99,197,206,
0,117,891,98,195,205,
0,116,874,97,194,204,
0,115,860,97,192,203,
0,115,845,97,191,201,
0,113,831,96,190,199,
0,112,823,96,188,199,
0,112,809,95,187,198,
0,111,798,94,193,196,
0,110,901,94,202,195,
0,118,908,93,199,194,
0,116,904,92,199,193,
0,115,882,92,197,192,
0,115,867,92,195,190,
0,114,853,91,193,189,
0,113,839,91,192,188,
0,112,826,90,191,187,
0,111,813,89,190,185,
0,111,801,89,188,184,
0,110,899,88,192,184,
0,127,906,88,191,183,
0,126,905,88,189,181,
0,125,884,87,188,180,
0,124,868,86,185,179,
0,123,855,86,184,178,
0,121,840,86,184,177,
0,120,828,85,182,176,
0,120,815,84,180,175,
0,119,803,84,179,174,
0,118,896,83,178,173,
0,118,908,83,177,172,
0,117,911,82,176,171,
0,115,904,82,175,169,
0,115,881,81,174,168,
0,114,870,81,172,167,
0,113,856,80,171,167,
0,112,841,79,169,166,
0,112,829,79,168,164,
0,111,816,79,167,164,
0,110,856,79,172,163,
0,125,904,78,170,162,
0,150,910,78,167,161,
0,148,909,78,167,160,
0,147,886,78,166,159,
0,145,871,77,165,159,
0,144,856,76,163,158,
0,143,843,76,163,156,
0,142,829,76,161,156,
0,140,816,75,160,155,
0,140,807,75,161,154,
0,139,897,74,160,153,
0,137,888,74,159,152,
0,135,871,93,158,195,
0,135,856,92,157,192,
0,134,843,91,156,191,
0,133,829,90,155,189,
0,132,816,89,154,188,
0,131,803,88,152,186,
0,130,792,88,152,184,
0,129,780,88,152,184,
0,128,868,87,151,182,
0,127,853,86,150,180,
0,126,839,85,149,179,
0,125,828,88,147,177,
0,124,815,88,147,176,
0,124,803,87,145,175,
0,123,791,86,145,173,
0,121,779,85,143,172,
0,120,768,84,143,171,
0,120,756,84,142,169,
0,120,868,83,142,168,
0,119,860,83,141,167,
0,118,846,82,140,166,
0,117,831,91,139,184,
0,115,819,89,138,183,
0,115,806,89,137,181,
0,114,793,88,135,179,
0,113,785,88,135,178,
0,112,773,87,135,176,
0,112,761,86,134,175,
0,111,807,86,148,174,
0,110,902,85,147,173,
0,110,900,84,145,172,
0,108,880,83,143,219,
0,108,865,83,143,216,
0,107,851,83,142,214,
0,106,837,82,141,212,
0,105,824,81,140,211,
0,104,811,81,139,208,
0,103,799,79,137,207,
0,103,815,79,138,205,
0,103,899,79,137,204,
0,103,903,78,135,201,
0,102,886,79,135,199,
0,100,870,79,134,199,
0,100,856,79,134,198,
0,99,841,79,132,196,
0,99,828,78,131,194,
0,98,818,77,131,193,
0,97,806,77,130,192,
0,97,793,76,129,190,
0,96,865,76,145,189,
0,96,849,76,143,188,
0,95,839,75,143,186,
0,94,825,75,142,185,
0,94,812,74,140,184,
0,93,799,76,140,182,
0,92,791,75,139,181,
0,92,779,75,137,179,
0,91,768,74,135,179,
0,91,756,74,135,177,
0,89,748,73,135,176,
0,89,831,72,135,175,
0,95,816,71,134,174,
0,95,803,71,133,172,
0,94,793,71,131,171,
0,93,781,86,131,170,
0,92,769,94,129,169,
0,92,758,94,129,167,
0,91,750,92,127,167,
0,90,739,92,127,166,
0,89,729,91,126,164,
0,89,766,90,126,163,
0,88,805,89,125,162,
0,88,792,89,124,161,
0,88,780,89,124,221,
0,87,768,91,123,217,
0,86,760,94,121,216,
0,85,748,93,121,214,
0,84,736,92,120,213,
0,84,727,92,120,211,
0,83,716,91,119,209,
0,83,709,90,119,207,
0,83,706,89,118,206,
0,82,696,88,116,204,
0,81,687,88,116,203,
0,81,680,87,115,201,
0,80,671,87,115,199,
0,79,664,88,114,199,
0,79,655,87,113,197,
0,79,649,86,113,195,
0,78,641,85,112,194,
0,78,634,84,111,193,
0,78,627,84,111,192,
0,76,691,83,110,190,
0,76,681,83,110,188,
0,76,671,82,108,188,
0,76,662,83,108,194,
0,75,655,83,108,192,
0,74,646,97,107,191,
0,73,638,97,106,190,
0,73,630,96,105,188,
0,73,624,95,105,187,
0,71,615,94,103,185,
0,71,609,94,103,184,
0,71,642,93,103,183,
0,71,636,92,103,182,
0,71,627,92,102,275,
0,70,618,94,101,275,
0,70,611,104,100,272,
0,69,603,122,100,270,
0,69,595,121,99,267,
0,68,591,120,99,265,
0,68,583,119,98,263,
0,67,577,118,97,261,
0,67,681,117,97,259,
0,67,671,116,96,255,
0,67,663,115,96,255,
0,66,653,114,96,253,
0,65,644,113,95,251,
0,65,638,113,94,248,
0,64,630,112,94,247,
0,63,622,112,93,245,
0,63,614,111,92,243,
0,63,608,110,92,241,
0,63,600,109,92,240,
0,63,611,108,91,238,
0,62,604,108,91,236,
0,62,595,107,89,235,
0,62,590,107,89,232,
0,61,583,105,88,245,
0,60,575,144,88,278,
0,60,569,143,88,275,
0,60,564,141,88,272,
0,60,559,140,87,271,
0,59,552,139,86,268,
0,59,583,138,102,266,
0,58,711,137,102,263,
0,110,700,135,100,262,
0,108,690,135,99,259,
0,107,679,134,99,257,
0,105,671,132,97,255,
0,105,662,131,97,253,
0,103,655,131,96,251,
0,103,647,129StartUp!
124,75,545,196,69,403,
0,74,540,195,69,401,
0,73,540,193,70,399,
0,73,542,193,69,396,
0,73,536,192,68,393,
0,72,531,191,68,391,
0,73,528,190,68,388,
0,72,524,188,67,386,
0,72,519,188,67,384,
0,71,518,188,67,414,
0,71,512,195,67,409,
0,71,507,194,66,407,
0,71,502,192,65,403,
0,70,496,191,65,399,
0,70,492,189,64,395,
0,68,527,188,67,391,
0,68,519,187,66,388,
0,67,513,185,66,384,
0,71,509,184,65,381,
0,71,503,182,65,379,
0,71,497,183,64,384,
0,71,492,182,63,380,
0,70,487,180,63,376,
0,70,483,179,63,374,
0,68,478,177,62,371,
0,68,472,176,71,368,
0,67,516,175,72,364,
0,67,510,174,71,361,
0,67,504,172,71,359,
0,75,498,172,71,355,
0,74,494,171,71,390,
0,74,490,185,70,403,
0,73,484,184,70,399,
0,73,480,184,69,395,
0,71,476,182,68,391,
0,71,471,180,68,387,
0,71,465,179,81,385,
0,71,463,177,81,381,
0,70,460,176,79,377,
0,70,455,175,79,375,
0,105,451,174,79,371,
0,103,448,216,78,420,
0,103,443,213,77,415,
0,102,440,211,77,411,
1,101,435,210,76,407,
1,100,431,207,76,403,
2,99,427,206,82,399,
3,99,545,205,97,395,
3,98,547,203,96,391,
3,97,540,201,96,388,
3,113,534,199,95,385,
4,111,527,199,94,399,
4,110,520,222,93,435,
5,109,515,220,92,431,
5,108,509,217,92,425,
6,108,504,216,91,422,
6,107,499,214,90,417,
6,105,519,212,99,414,
7,105,572,211,98,409,
7,103,564,208,97,407,
7,124,558,207,96,403,
7,123,551,206,95,399,
7,121,543,236,95,483,
7,120,537,233,94,478,
7,120,531,231,93,472,
7,119,525,230,92,467,
7,118,519,227,92,463,
7,116,513,226,112,457,
7,115,537,224,110,453,
7,115,531,222,110,449,
7,113,524,220,108,444,
7,115,518,219,108,440,
7,114,512,252,107,476,
7,113,506,249,105,471,
7,112,500,248,104,466,
7,111,495,245,103,461,
6,111,488,243,103,456,
6,110,519,241,102,452,
7,108,513,239,102,448,
6,108,507,237,100,443,
6,136,501,236,99,439,
6,143,496,233,99,435,
6,143,489,234,98,472,
6,141,484,231,97,467,
6,140,479,230,97,462,
6,139,474,228,96,457,
6,137,470,227,96,452,
6,135,481,225,96,448,
6,135,595,223,95,444,
6,134,587,222,95,440,
5,133,579,220,94,436,
6,135,572,218,93,432,
5,135,566,239,92,473,
5,134,558,237,92,467,
5,132,551,235,91,463,
6,131,545,233,90,457,
5,130,539,231,89,453,
4,129,532,230,97,449,
5,128,529,227,96,444,
5,127,523,225,95,440,
4,126,517,224,95,435,
4,140,513,222,94,432,
5,139,508,234,93,472,
4,137,502,231,92,466,
4,135,496,230,92,462,
4,135,492,227,91,458,
4,134,486,226,91,454,
4,132,481,225,89,449,
4,132,575,223,89,444,
4,131,568,221,89,440,
4,130,560,220,88,435,
4,131,553,217,88,432,
3,129,547,216,87,448,
3,128,540,231,87,444,
3,127,533,228,86,440,
3,127,528,226,86,435,
3,126,523,224,85,431,
3,124,516,223,84,426,
3,124,572,221,95,422,
3,123,564,219,94,419,
3,121,557,217,93,415,
3,132,550,216,92,412,
3,131,543,214,92,408,
3,130,536,230,91,440,
3,129,531,227,89,435,
3,127,524,225,89,430,
3,127,518,224,88,426,
3,126,512,222,88,422,
3,125,563,220,88,418,
3,124,598,218,88,414,
3,123,589,216,88,409,
3,122,582,215,87,406,
3,121,574,212,86,403,
3,121,568,236,85,424,
2,120,560,233,84,420,
3,119,553,231,83,415,
3,118,547,230,83,412,
3,118,540,228,83,408,
3,116,535,226,83,403,
2,115,608,224,81,399,
2,115,600,222,81,396,
2,114,591,220,80,393,
3,119,583,219,79,390,
2,118,579,227,79,415,
2,116,572,224,79,412,
2,115,564,222,78,408,
2,115,558,220,78,403,
2,114,551,219,77,399,
2,113,544,217,76,396,
2,112,657,216,78,391,
2,111,647,214,78,389,
1,111,639,212,77,385,
1,111,631,211,76,382,
1,110,622,209,76,409,
1,109,615,233,76,405,
1,108,607,231,75,400,
1,107,599,230,74,397,
1,107,593,227,74,393,
1,105,586,225,73,390,
1,105,673,224,74,385,
1,103,668,222,73,383,
1,103,659,220,73,380,
1,103,649,219,71,376,
1,102,639,216,71,373,
1,101,632,243,71,414,
1,100,624,240,71,409,
1,99,615,238,70,405,
1,99,611,236,70,401,
1,98,603,234,69,398,
1,98,609,233,70,395,
1,97,723,231,70,391,
1,96,715,230,69,387,
1,96,704,227,68,384,
1,95,694,226,68,381,
1,95,684,224,67,430,
1,94,675,233,67,423,
1,93,668,231,67,420,
1,92,659,229,66,416,
0,92,651,227,66,412,
1,92,643,226,65,408,
0,91,703,224,71,404,
0,90,764,222,71,401,
1,89,752,220,71,398,
0,89,740,219,70,395,
0,88,732,217,70,391,
1,88,723,230,70,444,
0,87,711,227,69,440,
0,87,702,225,68,435,
0,86,695,224,67,430,
0,85,686,222,67,427,
0,85,676,220,67,423,
0,84,734,219,76,419,
0,83,724,217,76,415,
0,83,714,216,75,412,
0,84,704,215,74,408,
0,83,694,213,73,403,
0,83,687,217,73,440,
0,82,678,216,72,438,
0,81,668,214,71,433,
0,81,659,212,71,428,
0,81,654,211,71,423,
0,79,645,209,78,420,
0,79,750,208,77,417,
0,79,738,207,77,413,
0,78,728,205,76,409,
0,78,719,204,76,405,
0,77,709,209,75,436,
0,77,699,231,74,446,
0,76,689,228,73,441,
0,76,683,227,73,436,
0,75,673,224,72,433,
0,75,664,224,71,429,
0,74,743,222,76,424,
0,73,803,220,75,420,
0,73,790,217,74,418,
0,72,777,216,74,414,
0,71,766,215,73,409,
0,71,758,219,72,441,
0,71,747,216,71,439,
0,71,736,216,71,434,
0,71,726,214,71,430,
0,70,718,211,71,425,
0,70,708,210,70,422,
0,68,732,208,72,418,
0,68,719,207,71,414,
0,68,711,206,71,410,
0,68,702,204,71,408,
0,67,692,203,71,403,
0,67,684,210,70,444,
0,67,677,207,69,439,
0,66,668,206,68,434,
0,65,659,204,68,431,
0,65,651,203,67,427,
0,65,643,201,81,423,
0,64,710,199,96,418,
0,63,699,199,95,415,
0,63,688,198,94,411,
0,63,679,196,93,408,
0,63,671,195,92,455,
0,62,663,209,92,452,
0,62,654,208,91,447,
0,62,646,206,91,443,
0,61,639,205,89,438,
0,61,632,203,89,434,
0,60,639,201,90,430,
0,60,664,199,89,425,
0,60,657,199,88,422,
0,60,647,197,88,419,
0,76,639,195,88,415,
0,76,632,222,87,414,
0,76,624,220,87,410,
0,75,617,217,86,408,
0,74,609,216,84,403,
0,73,603,215,84,399,
0,72,598,212,83,396,
0,71,715,211,90,391,
0,71,739,209,89,390,
0,71,728,207,88,387,
0,77,718,206,88,384,
0,76,710,204,88,380,
0,76,700,214,87,400,
0,75,690,212,86,397,
0,74,680,210,86,393,
0,73,673,208,85,389,
0,73,665,207,84,386,
0,72,655,206,83,383,
0,71,772,204,83,379,
0,71,763,202,83,376,
0,71,751,200,82,374,
0,71,740,199,81,370,
0,70,729,198,81,384,
0,70,722,213,80,403,
0,68,711,211,79,400,
0,68,702,209,79,396,
0,68,691,207,78,392,
0,67,685,206,78,388,
0,67,675,204,79,386,
0,66,760,203,79,382,
0,66,749,201,78,379,
0,65,740,199,78,376,
0,65,729,199,77,372,
0,65,719,198,76,430,
0,64,709,198,76,423,
0,63,702,195,75,419,
0,63,691,195,75,415,
0,63,683,193,73,412,
0,62,673,192,73,408,
0,62,783,191,79,404,
0,61,796,189,78,400,
0,61,783,188,78,398,
0,65,772,187,77,393,
0,65,760,185,76,391,
0,64,752,215,76,431,
0,63,741,211,75,427,
0,63,731,211,74,423,
0,63,719,209,73,419,
0,62,712,207,73,415,
0,62,703,205,73,411,
0,62,774,204,85,408,
0,61,762,202,84,403,
0,60,753,200,83,399,
0,60,742,199,83,396,
0,60,731,198,82,393,
0,59,720,231,81,422,
0,59,712,228,81,417,
0,58,703,226,80,414,
0,57,694,224,79,409,
0,57,684,223,79,406,
0,57,678,221,82,401,
0,56,768,219,81,399,
0,56,756,217,81,395,
0,56,744,216,80,391,
0,58,736,215,79,388,
0,57,726,212,79,440,
0,57,715,222,78,436,
0,56,705,220,78,432,
0,56,696,217,77,428,
0,56,688,216,76,423,
0,56,679,215,76,419,
0,55,716,213,88,415,
0,55,724,211,87,412,
0,55,716,209,87,408,
0,56,705,207,86,404,
0,56,696,207,85,401,
0,56,687,216,84,436,
0,55,679,214,83,432,
0,55,670,212,83,428,
0,54,662,211,83,424,
0,54,652,209,82,420,
0,54,647,207,81,416,
0,53,765,206,88,413,
0,52,753,204,88,408,
0,52,743,203,87,406,
0,73,734,201,86,401,
0,72,723,199,85,399,
0,71,713,218,84,395,
0,71,703,216,83,391,
0,71,696,214,83,387,
0,70,686,212,82,385,
0,70,676,211,82,382,
0,69,668,209,86,378,
0,68,820,207,85,375,
0,67,806,206,84,371,
0,67,793,204,83,369,
0,67,781,203,83,366,
0,66,769,201,82,399,
0,65,760,207,82,395,
0,65,750,206,81,391,
0,65,739,204,80,387,
0,64,728,203,79,384,
0,63,720,201,79,380,
0,63,730,199,79,377,
0,63,830,199,79,374,
0,62,816,197,79,371,
0,62,807,195,78,368,
0,61,794,193,77,365,
0,61,782,202,76,390,
0,60,770,219,76,385,
0,60,761,217,76,382,
0,60,751,216,75,379,
0,59,740,214,75,376,
0,58,729,212,73,371,
0,58,843,211,75,368,
0,57,868,209,74,366,
0,57,854,207,73,362,
0,57,839,206,73,359,
0,56,830,204,73,356,
0,56,816,206,71,385,
0,56,803,204,71,382,
0,55,792,203,71,377,
0,55,783,201,71,375,
0,54,771,199,70,371,
0,54,760,199,76,368,
0,54,891,197,92,364,
0,53,875,195,92,361,
0,52,863,194,91,358,
0,62,849,192,91,355,
0,61,835,192,89,356,
0,60,822,209,88,380,
0,60,812,207,88,376,
0,60,799,205,88,373,
0,59,788,204,87,369,
0,59,776,202,86,366,
0,58,768,200,98,363,
0,57,871,199,96,359,
0,57,856,198,96,356,
0,56,841,196,95,353,
0,59,831,195,94,351,
0,58,818,201,94,389,
0,57,805,206,92,384,
0,57,793,204,92,380,
0,57,783,202,92,376,
0,56,772,200,91,374,
0,56,761,199,90,371,
0,56,854,198,91,367,
0,55,864,196,90,364,
0,55,849,195,89,360,
0,54,835,193,89,358,
0,55,822,192,88,355,
0,54,813,203,88,391,
0,54,799,201,88,388,
0,52,787,199,87,385,
0,52,775,198,86,382,
0,52,765,196,86,377,
0,51,756,195,85,375,
0,51,857,193,99,371,
0,51,842,192,99,368,
0,51,828,190,97,364,
0,51,818,189,97,361,
0,51,806,188,96,359,
0,49,793,226,95,415,
0,49,781,224,95,409,
0,49,772,222,94,406,
0,49,761,220,93,403,
0,48,750,218,92,399,
0,48,748,216,96,395,
0,48,865,215,95,391,
0,48,849,213,95,388,
0,47,835,211,93,385,
0,52,823,210,92,382,
0,52,812,212,92,396,
0,51,799,242,92,391,
0,51,788,240,90,388,
0,51,775,238,90,384,
0,51,768,236,89,381,
0,50,756,234,88,377,
0,49,822,232,96,375,
0,49,902,231,95,371,
0,49,905,229,94,368,
0,48,889,227,94,365,
0,48,871,226,93,362,
0,48,859,224,92,394,
0,47,844,222,92,390,
0,47,834,220,91,386,
0,47,821,219,90,384,
0,47,808,217,89,380,
0,46,796,216,88,376,
0,46,888,214,89,372,
0,45,902,212,88,369,
0,46,884,211,88,366,
0,46,868,209,87,363,
0,45,858,208,87,359,
0,45,844,233,86,408,
0,44,831,231,85,403,
0,44,817,230,84,399,
0,44,808,227,84,395,
0,44,796,225,83,391,
0,43,784,224,84,388,
0,43,898,223,83,385,
0,43,896,221,83,381,
0,47,878,219,83,379,
0,47,863,312,81,376,
0,47,849,307,81,429,
0,46,839,304,80,457,
0,46,825,301,79,453,
0,46,812,300,79,449,
0,45,799,295,79,444,
0,44,788,294,78,440,
0,44,780,291,85,435,
0,44,822,289,84,432,
0,44,807,287,83,428,
0,52,796,285,83,423,
0,77,787,283,82,420,
0,76,775,281,81,420,
0,75,764,279,81,415,
0,75,752,276,80,412,
0,74,744,275,79,408,
0,73,735,272,79,405,
0,73,724,271,78,401,
0,71,845,269,81,398,
0,71,852,267,80,395,
0,71,838,265,79,391,
0,74,824,263,79,388,
0,73,811,262,78,385,
0,72,801,259,78,398,
0,71,789,257,77,395,
0,71,777,255,77,391,
0,71,766,254,76,387,
0,70,758,252,76,384,
0,70,747,250,75,381,
0,69,836,248,77,377,
0,69,822,247,76,374,
0,68,812,246,76,371,
0,68,799,243,76,368,
0,67,787,242,75,366,
0,67,775,240,74,399,
0,67,763,239,73,395,
0,66,755,237,73,391,
0,66,743,235,72,388,
0,65,734,234,71,384,
0,64,748,232,88,381,
0,64,841,231,87,377,
0,63,827,229,86,375,
0,63,814,227,84,371,
0,65,801,226,84,368,
0,64,792,225,83,409,
0,63,780,223,83,406,
0,63,768,222,82,401,
0,63,757,220,81,397,
0,62,748,219,81,393,
0,62,738,217,80,391,
0,61,808,216,81,387,
0,61,844,215,81,384,
0,60,833,213,80,380,
0,63,820,211,79,377,
0,63,807,211,79,374,
0,62,795,209,78,419,
0,62,785,207,78,415,
0,61,774,206,77,412,
0,60,762,205,77,408,
0,60,751,204,76,403,
0,60,743,203,76,400,
0,59,872,201,84,396,
0,59,871,199,83,393,
0,59,856,199,83,390,
0,67,843,197,83,386,
0,67,831,196,81,383,
0,66,819,195,81,380,
0,65,806,193,80,376,
0,65,794,192,79,373,
0,64,785,191,79,369,
0,63,774,190,79,367,
0,63,763,188,88,364,
0,63,872,188,88,360,
0,62,860,186,87,358,
0,62,846,185,86,355,
0,88,831,184,85,353,
0,88,819,183,84,391,
0,87,809,182,84,386,
0,86,797,180,83,384,
0,84,785,179,83,380,
0,84,774,178,82,376,
0,83,765,176,81,371,
0,83,764,176,82,369,
0,82,795,175,81,366,
0,81,782,174,81,363,
0,81,773,172,80,359,
0,83,761,172,79,356,
0,83,751,193,79,387,
0,83,739,190,78,384,
0,82,732,189,78,380,
0,81,722,187,77,376,
0,80,711,185,77,374,
0,79,703,184,76,369,
0,79,805,184,80,366,
0,79,795,182,79,363,
0,78,782,180,79,359,
0,83,770,179,79,357,
0,83,759,177,78,354,
0,83,750,206,78,384,
0,82,739,204,76,381,
0,81,728,203,76,377,
0,81,718,200,76,374,
0,79,711,199,75,370,
0,79,701,198,76,368,
0,79,768,195,76,364,
0,78,755,195,76,359,
0,78,746,193,75,358,
0,79,735,192,75,355,
0,78,724,191,74,391,
0,78,713,206,73,395,
0,76,706,204,72,391,
0,76,696,203,71,388,
0,76,688,201,71,384,
0,75,679,199,71,381,
0,75,671,198,75,377,
0,73,754,196,74,375,
0,73,743,195,73,371,
0,79,732,194,73,368,
0,139,720,192,72,364,
0,137,711,211,71,417,
0,135,700,208,71,412,
0,135,692,207,71,408,
0,134,684,205,70,404,
0,132,674,204,70,399,
0,131,665,201,70,396,
0,130,854,199,90,393,
0,129,839,198,89,390,
0,127,824,196,88,387,
0,127,811,195,88,383,
0,126,799,194,87,406,
0,125,786,207,86,401,
0,124,775,206,86,397,
0,123,764,204,85,393,
0,122,752,203,84,390,
0,121,741,200,83,385,
0,120,739,199,84,382,
0,120,728,198,83,379,
0,119,718,195,83,376,
0,121,707,195,82,371,
0,120,698,192,81,369,
0,120,689,203,81,401,
0,119,679,201,80,398,
0,118,671,199,79,394,
0,117,663,198,79,390,
0,116,654,196,78,386,
0,115,718,195,83,383,
0,114,742,193,81,379,
0,113,730,192,81,376,
0,113,719,191,80,371,
0,112,711,189,79,368,
0,112,702,220,79,399,
0,111,691,218,79,395,
0,110,682,216,78,391,
0,109,673,215,77,387,
0,108,664,212,76,384,
0,108,655,211,77,380,
0,107,765,209,76,376,
0,106,753,207,76,374,
0,105,742,206,75,370,
0,104,732,204,74,366,
0,103,721,204,73,408,
0,103,711,203,73,403,
0,102,700,200,72,399,
0,102,693,199,71,396,
0,100,683,198,71,391,
0,99,674,196,71,389,
0,99,799,195,76,385,
0,99,786,193,76,381,
0,98,777,192,75,377,
0,97,765,190,75,376,
0,96,753,190,73,371,
0,96,743,190,73,403,
0,95,734,188,73,399,
0,95,723,187,71,395,
0,94,713,185,71,391,
0,93,704,184,71,388,
0,93,709,183,82,384,
0,92,789,182,81,381,
0,92,775,180,80,378,
0,91,764,179,79,375,
0,90,752,177,79,371,
0,89,744,192,79,421,
0,89,734,231,78,417,
0,88,723,230,77,412,
0,88,712,227,77,408,
0,87,705,226,76,404,
0,87,696,224,75,401,
0,86,748,223,93,398,
0,86,736,221,92,393,
0,84,728,219,92,390,
0,85,718,217,91,387,
0,84,707,216,90,384,
0,84,697,215,89,397,
0,83,689,212,89,393,
0,83,680,211,88,390,
0,82,671,209,88,386,
0,82,663,207,87,383,
0,81,655,206,86,379,
0,80,761,204,89,376,
0,79,748,204,88,372,
0,79,736,202,88,369,
0,79,728,200,87,366,
0,78,718,199,86,401,
0,78,707,242,85,441,
0,78,697,239,84,437,
0,77,688,237,84,432,
0,76,680,235,83,428,
0,76,671,233,83,424,
0,75,663,231,87,420,
0,75,745,230,86,416,
0,74,736,227,86,412,
0,73,726,226,84,409,
0,73,715,225,83,406,
0,72,704,223,83,403,
0,71,696,222,83,399,
0,71,688,220,82,396,
0,71,678,219,81,391,
0,71,668,216,80,388,
0,71,662,215,79,385,
0,70,680,214,81,383,
0,70,753,212,80,379,
0,68,742,211,79,376,
0,70,734,209,79,372,
0,70,723,207,79,370,
0,70,711,208,78,387,
0,69,702,209,78,384,
0,68,695,207,77,380,
0,67,685,206,76,376,
0,67,675,205,76,374,
0,67,667,204,76,370,
0,66,777,201,82,367,
0,66,768,199,81,364,
0,65,755,199,81,360,
0,65,743,198,79,358,
0,65,733,196,79,355,
0,64,726,199,79,383,
0,63,715,199,78,380,
0,63,704,197,78,376,
0,63,695,195,77,372,
0,63,688,194,77,368,
0,62,678,192,79,366,
0,62,762,192,80,363,
0,61,751,190,79,359,
0,61,742,188,79,356,
0,79,731,188,78,353,
0,78,719,187,78,358,
0,78,710,204,77,369,
0,77,702,201,76,366,
0,76,692,199,76,363,
0,76,683,199,76,359,
0,75,673,197,75,356,
0,74,667,195,81,353,
0,73,735,193,80,351,
0,73,724,192,79,348,
0,72,713,191,79,345,
0,71,705,190,79,342,
0,71,696,188,78,379,
0,71,686,187,77,376,
0,71,676,185,77,371,
0,70,667,184,76,368,
0,70,660,183,76,364,
0,68,652,182,75,362,
0,68,774,180,85,359,
0,67,782,179,84,355,
0,67,773,177,84,352,
0,70,761,176,83,350,
0,68,749,176,83,347,
0,68,739,188,82,376,
0,67,731,185,81,371,
0,67,719,184,80,369,
0,67,710,183,79,365,
0,66,700,182,79,361,
0,65,692,180,79,359,
0,65,772,179,83,355,
0,64,760,177,83,352,
0,63,748,176,82,350,
0,67,739,175,81,347,
0,66,728,174,81,344,
0,65,718,172,79,377,
0,65,707,172,79,374,
0,64,700,170,79,369,
0,63,691,169,78,367,
0,63,681,167,78,364,
0,63,678,167,82,359,
0,63,780,166,81,356,
0,62,768,164,80,353,
0,62,755,164,79,352,
0,62,744,163,79,348,
0,61,734,171,79,399,
0,60,726,176,78,395,
0,60,715,175,78,391,
0,60,705,174,77,388,
0,59,696,172,76,384,
0,59,688,171,76,380,
0,59,740,169,76,377,
0,58,767,167,75,374,
0,57,755,167,74,371,
0,57,745,169,73,368,
0,57,735,169,73,364,
0,56,724,174,72,405,
0,56,713,172,71,400,
0,56,706,171,71,396,
0,56,696,169,71,393,
0,55,686,167,71,390,
0,55,677,167,70,386,
0,54,765,166,71,382,
0,54,752,164,71,380,
0,54,740,163,70,376,
0,54,729,162,70,372,
0,54,721,161,69,369,
0,53,711,176,68,389,
0,52,701,174,68,385,
0,52,691,172,67,381,
0,52,684,171,67,377,
0,51,675,169,67,374,
0,51,665,168,71,371,
0,51,745,167,71,368,
0,50,734,166,70,364,
0,50,726,164,70,361,
0,52,716,163,69,359,
0,51,705,163,68,377,
0,51,696,172,68,374,
0,51,688,170,67,369,
0,51,678,168,67,367,
0,50,669,167,67,364,
0,49,660,167,66,359,
0,49,664,165,74,356,
0,49,745,163,73,355,
0,48,734,163,71,352,
0,51,723,161,71,348,
0,54,715,159,71,345,
0,54,705,206,71,403,
0,53,695,204,70,399,
0,52,685,201,70,395,
0,52,678,199,69,391,
0,51,669,199,68,387,
0,51,659,198,69,384,
0,51,757,195,92,380,
0,51,748,194,92,376,
0,50,736,192,90,374,
0,50,725,192,89,371,
0,49,715,190,88,368,
0,49,707,199,88,386,
0,48,696,198,88,383,
0,48,687,196,87,379,
0,48,678,195,86,376,
0,48,668,193,86,372,
0,47,662,192,85,369,
0,47,752,190,84,366,
0,46,739,188,84,363,
0,46,728,187,83,359,
0,62,720,185,83,356,
0,61,710,184,82,377,
0,60,700,199,81,393,
0,60,689,197,81,390,
0,60,683,195,80,385,
0,59,673,193,79,383,
0,59,664,192,79,379,
0,58,692,191,79,376,
0,57,751,189,79,371,
0,57,739,188,78,369,
0,57,728,187,78,366,
0,59,717,185,77,363,
0,59,710,214,76,359,
0,57,699,211,76,357,
0,57,689,209,76,353,
0,56,679,207,75,351,
0,56,673,206,75,348,
0,56,664,204,73,345,
0,56,710,203,82,343,
0,55,698,201,81,339,
0,55,691,199,81,337,
0,76,680,199,80,335,
0,76,671,198,79,332,
0,75,662,231,79,382,
0,74,652,230,79,377,
0,73,647,227,78,374,
0,73,639,225,77,371,
0,71,631,224,76,368,
0,71,624,223,78,364,
0,71,726,220,78,360,
0,71,715,219,78,359,
0,70,704,217,77,355,
0,78,694,216,76,352,
0,77,686,214,76,349,
0,76,676,230,75,347,
0,76,668,228,75,344,
0,76,658,226,74,340,
0,75,652,224,73,337,
0,74,643,222,72,335,
0,73,650,221,75,332,
0,73,775,220,74,329,
0,71,766,217,73,327,
0,71,754,216,73,326,
0,71,743,214,72,323,
0,71,732,212,71,384,
0,70,723,212,71,380,
0,70,713,210,71,376,
0,69,704,209,71,372,
0,68,694,207,70,369,
0,67,687,206,70,365,
0,67,716,204,70,362,
0,67,755,203,70,359,
0,66,743,201,69,356,
0,71,732,199,69,353,
0,71,724,198,68,350,
0,71,714,199,67,390,
0,70,704,198,67,385,
0,69,694,196,67,382,
0,68,687,195,66,378,
0,67,677,193,65,376,
0,67,668,192,65,371,
0,67,752,191,71,368,
0,67,743,189,71,364,
0,66,732,188,71,363,
0,65,721,187,70,359,
0,65,710,185,70,355,
0,64,703,209,70,391,
0,63,693,207,68,387,
0,63,683,206,68,384,
0,63,674,204,67,380,
0,63,667,202,67,376,
0,62,659,200,68,374,
0,62,745,199,68,370,
0,61,733,198,67,367,
0,60,725,196,67,363,
0,61,715,195,67,359,
0,60,704,193,66,396,
0,60,694,193,65,402,
0,60,684,192,65,398,
0,59,677,191,65,393,
0,59,668,189,64,391,
0,58,659,188,63,387,
0,57,713,187,71,384,
0,57,748,184,71,380,
0,56,736,184,71,377,
0,57,726,183,70,374,
0,56,715,195,70,370,
0,56,707,192,69,413,
0,56,697,191,68,409,
0,56,688,190,68,406,
0,55,678,188,67,401,
0,54,671,187,67,398,
0,54,662,185,67,395,
0,53,791,184,68,391,
0,53,780,183,67,387,
0,52,771,181,67,384,
0,65,760,180,67,381,
0,65,748,179,66,377,
0,64,737,193,65,376,
0,63,729,191,65,372,
0,63,719,190,64,370,
0,63,708,188,63,367,
0,62,699,187,63,364,
0,62,691,185,63,359,
0,61,778,184,70,356,
0,60,765,183,68,355,
0,60,753,181,68,352,
0,65,743,179,67,348,
0,65,734,178,67,348,
0,65,723,190,67,345,
0,64,713,188,66,343,
0,63,704,187,65,339,
0,63,696,185,65,337,
0,62,686,184,64,335,
0,62,690,183,68,332,
0,62,760,182,67,329,
0,61,752,179,67,327,
0,63,739,179,67,324,
0,66,729,177,65,322,
0,66,719,207,65,375,
0,65,710,216,64,370,
0,65,700,215,64,368,
0,63,691,213,63,364,
0,63,681,211,63,359,
0,63,675,209,63,357,
0,63,739,207,63,355,
0,62,727,206,62,352,
0,62,716,204,62,348,
0,61,708,203,62,345,
0,61,698,201,61,343,
0,60,688,204,61,392,
0,60,679,203,60,388,
0,59,671,201,60,384,
0,59,663,199,59,381,
0,58,654,198,59,378,
0,58,646,196,60,375,
0,57,700,195,60,371,
0,57,691,193,60,368,
0,56,681,192,59,365,
0,59,671,191,59,361,
0,59,664,190,58,359,
0,58,655,194,57,364,
0,57,647,193,57,362,
0,57,639,192,57,359,
0,56,632,190,56,355,
0,56,625,188,56,352,
0,56,617,187,59,350,
0,55,719,186,58,347,
0,55,707,184,57,344,
0,55,700,183,57,340,
0,72,689,182,56,339,
0,71,679,180,56,388,
0,71,671,196,56,384,
0,71,664,195,56,380,
0,70,655,193,56,376,
0,69,647,192,55,373,
0,68,638,190,54,369,
0,68,633,188,65,366,
0,67,675,187,65,364,
0,67,665,186,64,359,
0,75,655,184,63,356,
0,88,649,183,63,353,
0,88,639,199,63,422,
0,87,632,198,62,418,
0,87,624,195,62,414,
0,86,615,194,61,409,
0,84,611,192,61,406,
0,83,604,191,60,403,
0,83,700,190,63,399,
0,83,689,188,63,395,
0,82,681,187,63,391,
0,81,671,185,62,388,
0,80,663,184,62,384,
0,80,653,192,62,406,
0,79,647,190,61,401,
0,79,638,188,61,399,
0,79,630,187,60,395,
0,78,622,185,60,391,
0,77,615,184,63,387,
0,76,689,182,67,384,
0,76,679,181,67,381,
0,75,669,179,67,377,
0,75,662,179,66,374,
0,74,653,177,65,417,
0,74,644,176,65,441,
0,73,636,175,64,437,
0,73,630,174,64,432,
0,71,621,172,63,429,
0,71,614,172,63,425,
0,71,706,171,79,421,
0,71,776,169,78,416,
0,70,764,167,77,413,
0,80,752,167,76,410,
0,79,741,166,76,406,
0,79,731,195,76,463,
0,79,722,193,75,458,
0,78,711,192,74,455,
0,77,702,190,73,449,
0,76,692,188,72,445,
0,76,685,187,72,440,
0,76,771,185,75,438,
0,75,759,184,74,433,
0,75,747,183,73,429,
0,73,739,181,73,425,
0,73,728,179,72,422,
0,72,717,182,71,418,
0,71,707,180,71,414,
0,71,700,179,71,410,
0,71,689,177,71,408,
0,70,679,176,70,403,
0,70,671,175,79,400,
0,70,800,174,79,396,
0,68,787,172,79,393,
0,68,774,171,78,390,
0,67,763,169,77,387,
0,67,754,168,76,428,
0,67,743,167,76,423,
0,66,732,167,76,419,
0,66,721,166,75,415,
0,65,714,164,74,412,
0,65,704,163,73,408,
0,63,695,162,75,404,
0,63,765,161,75,400,
0,63,753,159,74,397,
0,63,744,159,73,393,
0,62,734,158,72,391,
0,62,723,185,71,408,
0,62,712,217,71,404,
0,61,705,216,71,400,
0,60,695,214,71,397,
0,60,686,212,70,393,
0,60,676,211,69,390,
0,59,723,209,83,386,
0,59,729,207,83,384,
0,58,719,206,82,380,
0,59,708,204,81,376,
0,58,700,203,81,374,
0,57,691,206,80,371,
0,57,680,204,79,368,
0,56,671,203,79,364,
0,56,665,201,79,361,
0,56,656,199,78,359,
0,56,647,199,77,356,
0,56,754,197,77,353,
0,55,745,195,76,351,
0,54,734,194,76,348,
0,58,723,193,75,345,
0,57,711,192,75,343,
0,57,704,217,73,366,
0,56,695,216,73,363,
0,56,685,214,73,359,
0,56,675,212,71,356,
0,56,667,211,71,353,
0,55,660,208,74,350,
0,54,752,207,73,348,
0,54,739,206,73,344,
0,54,728,204,72,342,
0,54,721,203,71,339,
0,54,710,201,71,380,
0,53,700,199,71,375,
0,53,690,199,70,371,
0,52,683,197,70,367,
0,52,673,195,70,364,
0,51,664,194,69,361,
0,51,740,192,69,358,
0,51,751,192,68,355,
0,51,739,190,67,352,
0,51,728,188,67,349,
0,51,718,188,66,345,
0,51,710,225,66,351,
0,50,700,222,65,348,
0,50,690,220,65,344,
0,49,680,219,64,342,
0,49,673,217,63,339,
0,48,664,216,63,335,
0,48,709,214,74,334,
0,48,698,211,73,331,
0,48,688,211,73,328,
0,52,680,208,72,326,
0,51,671,207,71,324,
0,51,662,209,71,380,
0,51,653,207,71,376,
0,50,647,205,70,372,
0,49,639,204,70,369,
0,49,631,203,69,366,
0,49,623,201,73,363,
0,48,756,199,71,359,
0,48,743,198,71,356,
0,48,733,196,71,353,
0,50,722,195,70,351,
0,49,714,193,70,380,
0,49,704,196,69,377,
0,48,694,195,68,373,
0,48,684,193,68,369,
0,48,678,192,67,366,
0,48,668,191,67,364,
0,47,694,190,71,359,
0,47,737,188,71,356,
0,46,728,187,71,353,
0,57,718,185,71,351,
0,56,707,184,70,348,
0,56,697,183,70,355,
0,56,690,183,68,352,
0,55,680,182,68,348,
0,55,671,180,67,346,
0,54,662,179,67,343,
0,54,654,178,67,339,
0,54,721,176,75,337,
0,53,710,175,73,335,
0,52,699,174,73,332,
0,95,689,173,72,329,
0,93,681,172,71,327,
0,92,671,175,71,348,
0,92,664,174,71,344,
0,91,654,173,70,341,
0,89,647,172,70,338,
0,89,639,170,69,335,
0,88,632,169,79,333,
0,88,719,167,79,329,
0,87,711,167,79,327,
0,86,700,166,78,324,
0,86,690,164,77,322,
0,86,679,163,77,332,
0,84,673,189,76,337,
0,83,664,187,76,335,
0,83,655,185,75,332,
0,83,647,184,74,329,
0,82,639,183,73,326,
0,81,632,182,75,323,
0,80,743,180,75,320,
0,79,732,179,73,318,
0,79,724,177,73,316,
0,80,713,176,72,313,
0,79,704,178,71,369,
0,79,693,190,71,364,
0,79,684,188,71,360,
0,78,676,187,71,358,
0,77,667,185,70,355,
0,77,658,184,69,352,
0,76,782,183,82,348,
0,76,771,181,81,344,
0,75,760,179,80,343,
0,92,748,179,79,339,
0,92,736,177,79,336,
0,91,728,199,79,384,
0,89,718,196,78,380,
0,88,707,195,78,376,
0,88,697,194,77,372,
0,88,691,192,76,369,
0,87,681,191,76,367,
0,86,734,189,79,363,
0,86,723,188,79,359,
0,85,715,186,78,356,
0,84,704,185,78,354,
0,83,694,184,77,366,
0,83,684,184,76,399,
0,82,677,182,76,395,
0,81,668,180,75,391,
0,81,659,179,74,388,
0,80,651,177,73,384,
0,79,644,176,74,381,
0,79,717,175,73,376,
0,79,706,174,73,375,
0,78,696,172,71,371,
0,80,686,171,71,368,
0,79,679,181,71,401,
0,79,670,191,71,398,
0,79,660,190,70,393,
0,78,652,188,69,390,
0,77,645,186,69,387,
0,77,636,185,68,384,
0,76,698,184,68,380,
0,76,731,182,67,376,
0,75,723,180,67,373,
0,75,711,179,67,370,
0,74,702,178,66,367,
0,73,692,198,66,368,
0,72,684,195,65,364,
0,71,675,194,65,361,
0,71,665,193,64,359,
0,71,657,192,63,355,
0,71,651,190,63,352,
0,70,716,188,70,350,
0,70,704,187,70,347,
0,69,695,185,69,344,
0,69,687,184,68,341,
0,68,678,183,67,339,
0,67,668,203,67,376,
0,67,659,200,67,371,
0,67,652,199,66,368,
0,66,643,197,65,364,
0,65,636,195,65,362,
0,65,627,194,67,359,
0,65,753,192,67,355,
0,64,743,191,67,352,
0,63,733,190,66,350,
0,63,722,188,65,347,
0,63,711,187,65,391,
0,63,704,206,64,385,
0,63,694,204,63,384,
0,62,684,202,63,380,
0,62,675,200,63,376,
0,61,668,199,63,372,
0,61,662,198,71,369,
0,60,721,196,70,366,
0,60,711,195,70,363,
0,59,703,193,70,359,
0,60,693,192,68,356,
0,59,684,193,68,396,
0,59,673,196,67,391,
0,58,667,194,67,387,
0,57,657,192,67,384,
0,57,649,192,66,380,
0,57,639,190,65,377,
0,56,742,188,71,374,
0,56,787,187,71,369,
0,56,775,185,71,368,
0,102,764,184,70,364,
0,100,752,183,69,360,
0,99,740,199,68,391,
0,98,732,196,68,387,
0,97,721,195,67,384,
0,96,711,194,67,381,
0,96,702,192,66,377,
0,95,695,191,71,374,
0,94,686,189,74,371,
0,93,676,188,73,368,
0,93,668,187,72,364,
0,92,661,185,71,361,
0,92,652,185,71,385,
0,91,643,207,71,390,
0,91,636,205,70,386,
0,89,630,203,70,383,
0,89,622,201,70,380,
0,88,615,199,68,376,
0,88,664,199,86,372,
0,87,742,196,85,369,
0,87,730,195,84,366,
0,86,719,194,83,363,
0,85,708,192,83,359,
0,84,699,222,82,396,
0,84,691,220,81,391,
0,83,681,217,81,389,
0,83,671,216,80,385,
0,82,664,214,79,381,
0,81,656,212,79,377,
0,81,754,211,84,375,
0,79,752,209,83,371,
0,79,740,207,83,368,
0,81,732,206,82,364,
0,80,721,204,81,362,
0,79,711,203,81,406,
0,79,701,201,80,401,
0,78,694,199,79,398,
0,78,684,198,79,395,
0,77,675,197,79,391,
0,77,665,195,83,387,
0,76,737,194,83,384,
0,76,726,192,82,381,
0,75,715,192,81,377,
0,76,704,190,80,374,
0,75,696,211,79,401,
0,74,687,214,79,396,
0,73,677,212,79,393,
0,73,668,211,78,390,
0,72,662,209,78,385,
0,71,652,207,77,382,
0,71,644,206,89,380,
0,71,703,204,88,376,
0,71,692,203,88,372,
0,70,685,201,87,369,
0,78,675,199,86,366,
0,77,665,198,86,408,
0,76,656,196,84,403,
0,76,650,195,84,399,
0,75,641,193,83,396,
0,75,633,192,83,391,
0,74,625,191,82,388,
0,73,658,190,87,384,
0,73,664,188,86,382,
0,71,655,187,85,379,
0,72,646,185,84,375,
0,71,639,184,83,371,
0,71,631,220,83,369,
0,71,622,218,82,366,
0,70,615,216,81,363,
0,70,608,215,81,359,
0,69,601,212,80,356,
0,68,595,211,82,354,
0,68,728,209,97,351,
0,67,719,207,97,348,
0,67,707,206,96,344,
0,69,697,205,95,343,
0,68,688,203,95,346,
0,67,678,201,94,371,
0,67,671,199,93,367,
0,67,662,199,92,364,
0,66,653,197,92,360,
0,65,644,195,91,358,
0,65,638,194,91,354,
0,64,630,192,90,352,
0,63,622,192,89,348,
0,63,615,190,88,345,
0,63,608,188,88,343,
0,63,601,204,88,394,
0,63,594,207,87,389,
0,62,588,207,86,385,
0,62,582,204,86,381,
0,62,575,203,85,379,
0,60,569,201,84,375,
0,60,641,199,87,371,
0,60,654,198,86,368,
0,60,645,197,86,365,
0,79,636,195,84,362,
0,78,627,198,83,359,
0,78,622,204,83,402,
0,76,614,201,83,399,
0,76,605,199,82,395,
0,76,598,199,81,391,
0,75,591,197,81,387,
0,74,584,195,80,384,
0,73,728,195,103,381,
0,73,717,193,103,377,
0,72,707,191,102,374,
0,72,696,190,100,370,
0,71,687,188,99,401,
0,71,679,193,99,417,
0,71,670,192,99,413,
0,70,661,191,97,409,
0,70,652,189,97,406,
0,69,643,188,96,401,
0,68,637,187,96,398,
0,68,738,184,95,395,
0,67,727,184,94,391,
0,67,716,183,93,387,
0,75,708,180,93,384,
0,74,698,207,92,386,
0,73,688,206,92,382,
0,73,679,204,91,379,
0,72,671,201,90,376,
0,71,663,199,89,372,
0,71,654,199,89,369,
0,71,739,197,88,366,
0,70,729,195,88,363,
0,70,719,194,88,359,
0,76,707,193,87,358,
0,76,697,192,86,354,
0,76,691,249,85,408,
0,75,679,246,84,403,
0,74,671,244,84,399,
0,73,662,242,83,396,
0,72,655,240,83,391,
0,71,647,238,83,389,
0,71,739,236,82,385,
0,71,727,235,82,382,
0,71,718,232,81,379,
0,71,707,231,80,375,
0,70,697,230,79,372,
0,70,688,227,79,408,
0,69,679,225,79,403,
0,68,671,224,78,399,
0,68,662,222,78,397,
0,67,654,221,77,393,
0,67,645,220,76,390,
0,67,732,217,76,385,
0,66,721,216,76,384,
0,65,711,215,75,380,
0,73,700,213,75,376,
0,72,692,211,74,396,
0,71,683,210,73,392,
0,71,673,209,72,389,
0,71,664,207,72,385,
0,70,657,206,71,382,
0,70,649,204,71,379,
0,69,672,203,71,376,
0,68,671,201,71,371,
0,67,664,199,71,368,
0,68,655,199,71,366,
0,73,647,198,70,363,
0,72,639,198,70,406,
0,71,632,196,69,401,
0,71,624,195,68,398,
0,71,615,194,67,393,
0,70,609,192,67,390,
0,70,604,191,67,387,
0,69,684,190,67,383,
0,68,671,189,67,380,
0,67,663,187,66,376,
0,71,654,185,66,372,
0,71,647,184,65,369,
0,70,638,187,65,390,
0,70,630,185,64,385,
0,69,621,184,63,382,
0,68,615,184,63,378,
0,67,608,182,63,376,
0,67,600,180,81,372,
0,67,679,179,79,368,
0,66,671,178,79,365,
0,65,663,177,79,363,
0,75,653,176,78,359,
0,75,644,175,77,391,
0,74,638,195,76,385,
0,73,630,193,76,384,
0,72,621,192,76,380,
0,71,614,191,75,376,
0,71,608,190,74,371,
0,71,600,188,89,369,
0,70,664,187,88,366,
0,70,654,185,87,363,
0,70,647,184,87,359,
0,71,638,183,86,357,
0,71,630,203,84,393,
0,71,621,207,84,389,
0,70,615,205,83,385,
0,70,607,203,83,381,
0,69,600,201,82,379,
0,68,592,199,81,375,
0,67,683,199,83,371,
0,67,675,197,82,368,
0,67,665,195,81,365,
0,71,655,194,80,361,
0,71,647,192,79,359,
0,70,641,191,79,409,
0,70,632,190,79,406,
0,69,624,188,78,401,
0,68,615,187,77,398,
0,67,609,185,77,393,
0,67,602,184,78,391,
0,67,688,183,87,387,
0,66,677,182,86,384,
0,65,670,179,85,380,
0,65,660,179,84,377,
0,65,652,177,83,374,
0,64,643,218,83,407,
0,63,636,216,82,402,
0,63,628,214,81,399,
0,63,620,212,81,396,
0,63,611,211,80,391,
0,62,606,209,82,387,
0,62,700,207,81,384,
0,61,690,206,80,381,
0,60,679,204,79,377,
0,73,673,203,79,374,
0,72,664,201,79,409,
0,71,655,202,78,406,
0,71,646,199,78,402,
0,71,638,199,77,398,
0,70,631,198,76,394,
0,70,624,195,76,391,
0,69,704,195,81,387,
0,68,735,192,80,384,
0,67,727,192,79,380,
0,83,716,190,79,377,
0,82,705,189,78,374,
0,82,696,199,78,401,
0,81,688,196,77,397,
0,80,679,195,77,394,
0,79,669,193,76,391,
0,79,660,192,75,387,
0,78,654,191,75,384,
0,78,760,189,90,380,
0,77,747,188,89,376,
0,76,735,186,88,373,
0,77,727,184,88,369,
0,76,716,184,87,367,
0,76,705,183,86,364,
0,75,696,181,86,360,
0,74,689,179,85,358,
0,73,679,178,84,355,
0,72,670,177,83,352,
0,72,662,176,83,350,
0,71,756,175,83,346,
0,71,745,174,82,344,
0,71,734,172,81,342,
0,71,723,171,80,339,
0,71,712,172,80,398,
0,70,704,206,79,393,
0,70,696,204,79,390,
0,69,686,203,78,386,
0,68,676,201,78,382,
0,67,669,199,77,379,
0,67,704,198,77,376,
0,66,758,196,76,372,
0,66,745,195,76,369,
0,70,737,193,75,366,
0,71,727,192,75,363,
0,71,716,204,74,387,
0,71,705,204,73,384,
0,70,699,201,73,380,
0,69,688,199,72,376,
0,68,679,199,71,374,
0,67,670,197,71,370,
0,67,738,195,77,366,
0,67,726,194,76,364,
0,66,715,192,76,359,
0,75,705,192,75,358,
0,73,697,190,75,354,
0,73,688,207,74,384,
0,72,678,206,73,380,
0,71,668,204,72,376,
0,71,662,203,71,372,
0,71,653,200,71,369,
0,70,645,199,79,367,
0,70,747,198,78,363,
0,69,735,196,78,359,
0,68,727,195,77,356,
0,96,716,193,77,354,
0,95,705,192,76,351,
0,94,696,229,76,348,
0,94,688,227,75,345,
0,93,679,225,74,343,
0,92,670,224,73,340,
0,91,660,221,73,337,
0,91,654,220,86,335,
0,89,688,217,84,332,
0,89,678,216,84,329,
0,88,668,215,83,327,
0,88,661,213,83,324,
0,87,652,211,82,368,
0,87,643,210,81,364,
0,86,636,208,80,359,
0,85,630,207,80,356,
0,84,622,205,79,353,
0,83,614,204,79,351,
0,83,716,203,78,348,
0,83,707,200,78,344,
0,81,696,199,78,341,
0,81,686,198,77,339,
0,80,676,196,76,335,
0,79,668,204,76,384,
0,79,660,203,75,380,
0,79,652,200,75,377,
0,78,643,199,73,374,
0,78,635,198,73,370,
0,77,628,196,72,367,
0,76,734,195,74,364,
0,76,722,193,73,360,
0,76,711,192,73,358,
0,76,704,191,72,354,
0,75,694,189,71,353,
0,75,684,212,71,399,
0,74,674,211,71,396,
0,73,668,208,71,391,
0,73,659,207,70,389,
0,71,649,206,70,385,
0,71,651,204,76,382,
0,71,743,203,75,377,
0,71,731,200,74,376,
0,71,719,199,73,371,
0,70,710,198,73,368,
0,69,702,196,72,414,
0,68,692,195,71,409,
0,68,683,195,71,406,
0,67,673,193,71,401,
0,67,667,192,70,397,
0,67,657,190,70,393,
0,66,725,189,70,391,
0,65,747,188,69,387,
0,65,736,186,68,384,
0,65,728,184,67,380,
0,64,716,184,67,377,
0,63,706,208,67,374,
0,63,696,206,66,371,
0,63,688,204,66,367,
0,63,679,203,65,365,
0,62,670,201,65,361,
0,62,662,199,65,359,
0,61,736,198,71,355,
0,61,724,196,70,353,
0,60,713,195,70,350,
0,76,704,193,69,347,
0,75,696,192,68,352,
0,74,686,192,68,382,
0,73,676,190,67,377,
0,73,667,188,67,374,
0,71,660,187,67,371,
0,71,652,185,66,368,
0,71,643,184,69,364,
0,71,750,184,68,361,
0,70,742,182,67,358,
0,70,730,180,67,355,
0,69,719,179,67,352,
0,68,709,178,67,377,
0,67,702,216,65,374,
0,67,691,213,65,369,
0,67,682,211,65,367,
0,67,673,210,63,364,
0,65,664,207,63,359,
0,65,673,207,63,356,
0,64,739,204,63,354,
0,63,728,204,63,351,
0,63,718,202,62,348,
0,63,710,199,62,344,
0,63,700,231,62,412,
0,62,689,228,61,407,
0,62,679,227,60,402,
0,61,673,224,60,398,
0,60,664,223,60,396,
0,60,655,222,59,391,
0,60,739,220,66,387,
0,60,729,217,65,384,
0,59,719,216,65,382,
0,62,708,215,64,378,
0,61,697,212,63,375,
0,61,691,212,63,391,
0,60,680,211,63,388,
0,60,671,209,63,384,
0,59,662,207,62,381,
0,59,655,206,62,377,
0,58,647,204,62,375,
0,57,740,203,67,371,
0,57,728,201,65,368,
0,57,719,199,65,364,
0,79,710,199,65,361,
0,78,700,198,64,371,
0,77,689,199,63,387,
0,76,679,199,63,384,
0,76,673,197,63,380,
0,75,664,195,62,376,
0,75,655,194,62,374,
0,74,737,192,69,370,
0,73,812,191,68,367,
0,73,799,190,68,364,
0,71,786,188,67,359,
0,71,774,188,67,358,
0,71,765,192,66,429,
0,71,754,195,65,425,
0,70,743,195,65,420,
0,70,732,193,64,416,
0,69,724,191,63,412,
0,68,715,190,63,409,
0,68,775,188,71,406,
0,67,763,187,71,401,
0,67,754,185,70,398,
0,67,743,184,70,395,
0,67,732,183,69,391,
0,67,721,182,68,387,
0,66,713,180,67,384,
0,65,704,179,67,382,
0,65,694,178,67,378,
0,64,684,176,66,375,
0,63,678,176,66,371,
0,63,729,174,75,368,
0,63,718,173,74,366,
0,63,707,172,73,362,
0,64,697,171,73,359,
0,63,689,169,72,356,
0,63,679,225,71,354,
0,63,671,223,71,351,
0,62,662,221,71,348,
0,62,655,219,71,345,
0,61,647,217,70,343,
0,60,639,216,76,340,
0,60,732,214,76,337,
0,60,723,212,75,334,
0,61,712,211,74,332,
0,79,702,209,73,329,
0,78,692,207,73,335,
0,77,685,207,72,332,
0,76,675,206,71,329,
0,76,667,205,71,327,
0,76,657,203,71,324,
0,75,651,201,70,321,
0,74,705,199,70,319,
0,73,736,199,70,317,
0,73,726,198,69,315,
0,72,718,195,68,312,
0,71,707,194,68,311,
0,71,697,195,67,366,
0,71,687,194,67,362,
0,70,679,192,67,359,
0,70,671,191,66,355,
0,69,662,190,65,352,
0,68,653,188,65,350,
0,68,755,187,75,346,
0,67,746,185,73,344,
0,67,735,184,73,341,
0,67,723,184,72,337,
0,67,713,182,71,335,
0,65,705,207,71,343,
0,65,696,205,71,339,
0,64,686,204,71,337,
0,63,676,202,70,334,
0,63,670,200,69,331,
0,63,661,199,73,329,
0,63,749,198,73,326,
0,63,737,196,72,323,
0,62,729,194,71,319,
0,63,719,193,71,318,
0,63,707,192,71,369,
0,63,697,236,71,368,
0,62,691,234,70,364,
0,62,681,231,70,361,
0,61,671,230,68,358,
0,61,663,228,68,355,
0,60,656,227,76,352,
0,60,711,224,75,349,
0,59,701,224,75,345,
0,61,691,222,73,343,
0,63,684,220,73,339,
0,62,674,223,72,361,
0,61,664,221,71,359,
0,61,655,219,71,355,
0,60,647,217,71,352,
0,60,641,216,71,348,
0,60,632,214,70,347,
0,59,718,213,70,343,
0,59,705,211,70,339,
0,58,698,209,70,337,
0,73,688,207,69,335,
0,72,678,207,68,332,
0,71,669,219,67,378,
0,71,662,216,67,374,
0,71,653,215,67,371,
0,70,644,214,66,368,
0,70,636,211,65,364,
0,69,630,210,65,361,
0,68,728,208,67,359,
0,67,716,207,67,355,
0,67,706,205,67,352,
0,70,699,204,66,349,
0,69,688,202,65,350,
0,68,679,207,65,381,
0,67,670,206,64,376,
0,67,663,204,63,373,
0,67,654,203,63,369,
0,66,645,201,63,367,
0,65,675,199,70,364,
0,65,772,198,69,359,
0,64,763,196,68,356,
0,71,752,195,67,354,
0,79,739,194,67,351,
0,79,729,218,67,389,
0,78,721,222,66,384,
0,77,711,220,65,382,
0,77,701,219,65,378,
0,76,691,216,64,375,
0,76,684,215,63,371,
0,75,766,213,66,368,
0,75,793,211,65,364,
0,73,781,210,65,361,
0,76,771,208,64,358,
0,75,760,207,63,355,
0,74,749,271,63,357,
0,74,738,268,63,353,
0,73,729,265,63,351,
0,72,719,263,62,348,
0,71,710,262,62,344,
0,71,700,259,71,342,
0,71,774,257,71,339,
0,71,760,255,70,336,
0,70,749,254,69,334,
0,70,738,252,68,331,
0,69,729,249,68,327,
0,68,719,248,67,326,
0,67,709,246,67,323,
0,67,699,244,66,321,
0,67,689,242,66,318,
0,66,683,240,65,316,
0,65,673,239,75,313,
0,65,742,237,74,312,
0,64,731,236,73,308,
0,64,723,233,73,307,
0,71,711,231,71,304,
0,71,702,231,71,364,
0,71,692,229,71,359,
0,70,685,227,71,356,
0,70,675,225,70,354,
0,68,667,224,70,351,
0,68,657,223,68,348,
0,67,691,221,71,344,
0,67,728,219,71,342,
0,67,718,217,70,339,
0,70,707,216,70,335,
0,70,700,215,69,333,
0,69,690,215,68,378,
0,68,679,214,68,374,
0,68,671,212,67,370,
0,67,664,211,67,367,
0,67,655,209,66,364,
0,66,647,207,66,359,
0,65,700,206,79,357,
0,65,692,204,78,354,
0,64,683,203,77,351,
0,76,673,202,76,348,
0,75,664,200,76,345,
0,74,654,226,75,381,
0,73,647,224,75,377,
0,73,639,222,74,374,
0,72,632,220,73,371,
0,71,624,219,73,367,
0,71,617,216,79,364,
0,71,831,215,79,361,
0,70,816,214,78,358,
0,70,803,211,77,355,
0,70,793,210,77,352,
0,69,782,208,76,390,
0,68,769,209,75,398,
0,68,758,207,75,393,
0,67,750,206,75,390,
0,67,739,204,73,387,
0,66,728,203,73,384,
0,65,780,201,71,380,
0,65,785,199,71,376,
0,65,773,199,71,373,
0,65,761,198,71,369,
0,64,750,196,71,367,
0,63,742,228,70,406,
0,63,731,225,70,402,
0,63,720,224,68,398,
0,63,711,222,68,394,
0,62,704,220,67,390,
0,61,694,217,67,387,
0,61,760,216,68,384,
0,61,748,215,68,380,
0,60,737,212,67,376,
0,60,729,211,67,373,
0,60,718,210,66,371,
0,60,708,243,66,401,
0,59,698,240,65,397,
0,59,691,238,65,393,
0,57,681,236,64,391,
0,57,672,235,63,387,
0,57,664,232,81,384,
0,56,748,231,81,380,
0,56,736,229,79,376,
0,56,724,227,79,374,
0,61,715,225,79,370,
0,61,707,224,78,423,
0,60,696,222,78,423,
0,60,686,221,77,419,
0,59,677,220,76,414,
0,59,671,217,76,409,
0,58,662,216,75,407,
0,57,653,215,78,403,
0,57,775,213,77,399,
0,57,765,211,76,396,
0,56,753,209,76,392,
0,58,742,208,75,389,
0,57,732,207,75,438,
0,57,723,206,74,432,
0,56,712,204,73,428,
0,56,703,203,73,424,
0,56,692,201,72,420,
0,56,684,199,71,416,
0,55,766,199,80,412,
0,55,793,197,79,409,
0,54,780,196,79,406,
0,58,768,195,78,401,
0,57,760,193,78,398,
0,57,749,223,77,440,
0,56,737,220,76,434,
0,56,728,219,76,430,
0,56,719,216,76,425,
0,55,710,215,75,423,
0,55,700,214,79,419,
0,54,759,211,83,414,
0,54,750,210,83,410,
0,54,739,208,82,408,
0,94,728,207,81,403,
0,92,717,206,81,399,
0,92,710,204,80,396,
0,91,700,202,79,394,
0,90,689,201,79,391,
0,89,679,199,78,387,
0,88,673,198,78,384,
0,88,664,196,78,381,
0,87,717,195,77,377,
0,87,706,194,76,374,
0,86,699,192,76,371,
0,88,688,191,76,368,
0,87,679,190,75,404,
0,87,670,216,74,399,
0,86,660,214,74,396,
0,85,654,211,73,391,
0,84,646,209,72,390,
0,83,638,208,71,385,
0,83,728,207,72,382,
0,83,728,204,71,379,
0,82,717,203,71,376,
0,81,707,202,71,372,
0,81,696,199,71,368,
0,80,689,199,70,399,
0,79,679,199,70,396,
0,79,670,198,68,391,
0,79,661,195,68,388,
0,78,655,194,68,384,
0,77,646,192,67,382,
0,76,800,192,82,378,
0,76,787,190,81,375,
0,75,777,188,81,371,
0,75,766,188,79,368,
0,74,754,187,79,365,
0,73,743,217,79,362,
0,73,735,216,78,359,
0,72,724,214,78,355,
0,71,713,212,77,353,
0,71,704,211,76,351,
0,71,697,209,78,348,
0,71,783,207,81,345,
0,70,771,206,79,343,
0,70,760,204,79,339,
0,70,748,203,79,337,
0,70,739,201,79,390,
0,69,728,199,78,387,
0,68,719,199,77,383,
0,67,708,197,76,379,
0,67,701,195,76,376,
0,67,691,193,76,372,
0,66,718,193,83,369,
0,65,739,191,81,366,
0,65,731,190,81,362,
0,73,720,188,80,359,
0,76,710,187,79,356,
0,76,700,206,79,374,
0,75,692,203,78,369,
0,74,683,201,78,367,
0,73,673,199,77,364,
0,73,664,198,76,359,
0,71,658,196,76,357,
0,71,706,195,82,354,
0,71,696,193,81,351,
0,71,684,192,80,348,
0,81,678,191,79,345,
0,80,668,190,79,345,
0,79,659,201,79,388,
0,79,650,199,78,384,
0,79,642,198,77,380,
0,78,636,196,77,376,
0,78,628,195,76,374,
0,76,620,193,76,371,
0,76,678,192,75,367,
0,76,670,190,75,364,
0,75,660,189,74,361,
0,83,651,188,73,358,
0,83,643,186,73,408,
0,81,636,201,72,406,
0,81,627,199,71,403,
0,80,620,198,71,399,
0,79,611,196,71,395,
0,79,607,195,70,391,
0,78,600,193,95,387,
0,78,667,192,94,384,
0,77,657,190,93,380,
0,77,651,188,92,377,
0,112,641,187,92,374,
0,111,633,195,91,371,
0,110,624,193,89,368,
0,109,616,192,89,364,
0,108,608,190,88,361,
0,107,601,189,88,358,
0,106,593,188,88,355,
0,105,697,186,87,352,
0,104,686,184,86,348,
0,103,676,184,85,345,
0,104,667,182,84,343,
0,103,657,182,83,387,
0,103,651,184,83,382,
0,102,642,183,82,378,
0,101,633,182,81,375,
0,100,625,179,81,371,
0,99,617,179,80,368,
0,99,691,177,83,365,
0,98,679,176,82,361,
0,97,672,175,82,358,
0,98,664,174,81,355,
0,97,654,172,80,352,
0,97,645,193,79,376,
0,96,639,192,79,372,
0,95,631,190,79,369,
0,94,622,188,78,366,
0,94,614,187,78,363,
0,93,608,185,77,359,
0,92,687,184,78,356,
0,92,676,183,78,353,
0,91,667,182,77,350,
0,96,660,180,76,348,
0,95,651,179,76,351,
0,95,642,177,75,393,
0,94,633,176,75,390,
0,93,627,175,75,385,
0,92,619,174,73,384,
0,92,611,172,73,379,
0,91,615,172,83,376,
0,90,715,169,83,372,
0,89,704,168,82,368,
0,88,694,167,81,366,
0,88,684,167,81,363,
0,88,674,187,80,412,
0,87,667,207,79,407,
0,86,657,206,79,403,
0,86,648,205,79,399,
0,85,639,203,78,396,
0,84,635,201,77,391,
0,84,691,199,78,390,
0,83,729,199,77,385,
0,83,719,196,76,382,
0,82,711,195,76,379,
0,81,700,193,76,376,
0,81,691,204,75,427,
0,80,680,201,75,422,
0,79,673,199,73,417,
0,79,664,198,73,415,
0,79,655,196,72,411,
0,78,647,195,73,407,
0,78,647,193,83,402,
0,77,639,192,83,399,
0,76,631,191,82,396,
0,76,623,189,81,391,
0,76,617,188,81,388,
0,75,609,198,80,414,
0,74,601,196,79,409,
0,73,595,194,79,406,
0,73,590,192,78,401,
0,72,583,191,78,398,
0,71,575,190,78,395,
0,71,727,188,77,391,
0,71,715,187,76,387,
0,71,707,185,76,384,
0,70,697,184,75,382,
0,70,687,183,75,377,
0,69,678,184,73,375,
0,68,671,182,73,371,
0,68,661,180,73,368,
0,67,652,179,72,365,
0,67,643,178,71,362,
0,66,671,177,72,359,
0,66,760,176,71,356,
0,65,749,174,71,353,
0,65,738,173,71,351,
0,65,729,172,71,348,
0,64,719,194,70,390,
0,63,708,192,69,385,
0,63,699,191,69,382,
0,63,691,189,68,377,
0,62,682,188,67,375,
0,62,673,186,67,371,
0,62,774,185,69,368,
0,61,764,184,68,364,
0,61,752,182,67,361,
0,60,740,181,67,359,
0,60,729,179,67,355,
0,60,722,199,66,390,
0,59,711,199,65,385,
0,59,701,197,65,383,
0,58,691,195,64,379,
0,57,682,193,64,376,
0,57,675,192,65,371,
0,57,755,191,70,369,
0,56,743,189,69,366,
0,56,732,188,69,363,
0,56,723,186,68,359,
0,56,713,184,67,358,
0,56,703,184,67,363,
0,55,693,182,67,359,
0,55,686,180,66,355,
0,54,676,179,65,353,
0,54,668,178,65,350,
0,54,692,177,76,347,
0,53,733,176,76,344,
0,52,721,174,75,342,
0,63,711,173,75,339,
0,65,701,172,73,336,
0,63,694,179,73,425,
0,63,684,188,72,422,
0,63,675,186,71,417,
0,63,665,185,71,412,
0,62,659,184,71,408,
0,61,650,182,71,404,
0,61,675,180,71,401,
0,60,665,179,71,398,
0,60,655,177,70,393,
0,79,649,176,70,391,
0,78,641,175,69,387,
0,77,632,174,68,422,
0,76,625,172,67,417,
0,75,619,171,67,413,
0,75,611,170,67,409,
0,74,604,168,66,406,
0,73,597,167,67,402,
0,73,708,167,69,398,
0,72,697,166,68,395,
0,71,688,164,67,391,
0,71,678,163,67,388,
0,71,670,163,67,384,
0,71,661,190,66,382,
0,70,652,188,65,378,
0,70,643,187,65,375,
0,69,637,185,65,371,
0,68,629,184,64,369,
0,68,621,183,73,366,
0,67,719,181,71,363,
0,67,710,179,71,359,
0,66,700,178,71,357,
0,67,690,177,71,354,
0,66,679,176,70,387,
0,65,673,187,70,382,
0,65,664,184,69,378,
0,64,655,184,68,376,
0,63,646,182,67,371,
0,63,637,180,67,368,
0,63,667,179,67,365,
0,63,674,177,67,363,
0,62,664,176,67,359,
0,68,655,175,66,355,
0,71,648,174,65,352,
0,71,639,213,65,406,
0,70,632,211,65,401,
0,70,623,209,63,397,
0,68,617,207,63,393,
0,68,609,206,63,390,
0,67,602,204,65,387,
0,67,739,203,74,384,
0,67,729,200,73,380,
0,66,718,199,73,376,
0,66,707,199,71,373,
0,65,697,196,71,371,
0,65,690,195,71,414,
0,64,680,193,71,411,
0,63,671,192,70,406,
0,63,662,191,70,402,
0,63,655,189,69,398,
0,63,647,188,72,396,
0,62,736,187,71,391,
0,62,724,185,71,387,
0,61,716,184,71,384,
0,61,705,183,71,380,
0,60,696,182,70,379,
0,60,686,197,69,375,
0,60,676,195,69,371,
0,59,669,193,68,368,
0,59,660,192,67,366,
0,58,652,191,67,362,
0,57,707,190,73,359,
0,57,710,188,73,355,
0,57,700,187,72,353,
0,61,689,185,71,351,
0,61,679,184,71,348,
0,60,673,215,71,391,
0,60,664,212,71,388,
0,59,654,211,70,384,
0,59,646,209,69,380,
0,59,639,207,68,376,
0,57,632,206,68,374,
0,57,736,204,76,370,
0,57,723,203,76,367,
0,56,716,201,76,364,
0,57,705,199,75,360,
0,56,696,199,74,358,
0,56,686,201,73,369,
0,56,678,199,73,366,
0,55,668,198,72,363,
0,55,659,196,71,359,
0,55,651,195,71,356,
0,54,644,193,71,353,
0,54,642,192,80,350,
0,53,633,191,79,348,
0,52,625,189,79,345,
0,53,617,188,78,342,
0,52,611,187,78,343,
0,52,604,195,77,340,
0,51,598,194,76,337,
0,51,590,192,76,335,
0,51,585,191,76,332,
0,51,578,189,75,329,
0,50,622,188,82,327,
0,50,719,186,81,324,
0,49,711,184,81,321,
0,56,700,184,79,319,
0,61,690,183,79,318,
0,60,680,184,78,369,
0,60,673,184,78,364,
0,60,664,184,78,361,
0,59,655,182,76,359,
0,59,647,180,76,355,
0,57,639,179,76,352,
0,57,719,178,81,350,
0,56,725,177,81,347,
0,56,714,176,80,344,
0,104,704,174,79,340,
0,103,694,172,79,337,
0,102,687,211,78,379,
0,100,676,208,78,375,
0,99,668,207,77,371,
0,99,659,205,76,368,
0,98,649,204,76,365,
0,97,643,201,80,361,
0,96,728,199,82,359,
0,96,716,199,81,355,
0,95,705,198,81,352,
0,95,697,195,80,349,
0,94,688,195,79,391,
0,94,678,207,79,387,
0,93,668,206,79,384,
0,92,659,204,78,380,
0,92,652,202,77,376,
0,91,644,199,77,372,
0,90,671,199,82,369,
0,89,688,198,81,366,
0,88,679,195,81,363,
0,88,670,194,79,359,
0,88,660,193,79,356,
0,87,652,225,79,412,
0,86,645,222,78,408,
0,86,636,220,78,404,
0,84,628,219,77,399,
0,84,620,216,76,396,
0,83,615,215,76,391,
0,83,728,213,93,390,
0,83,755,211,92,385,
0,82,743,210,92,382,
0,81,735,208,91,379,
0,81,724,207,89,376,
0,80,713,206,89,373,
0,79,704,204,88,369,
0,79,696,202,88,366,
0,79,686,200,88,364,
0,78,677,199,87,359,
0,78,668,198,87,358,
0,77,784,196,86,354,
0,76,771,195,85,351,
0,76,760,193,84,349,
0,76,748,209,83,345,
0,76,737,207,83,396,
0,75,729,206,83,395,
0,75,718,204,82,391,
0,74,707,203,81,387,
0,73,698,201,80,384,
0,73,691,199,80,380,
0,71,682,198,82,377,
0,71,759,196,81,374,
0,71,747,195,81,371,
0,71,738,193,81,367,
0,71,728,192,79,364,
0,70,717,222,79,408,
0,70,707,257,79,403,
0,69,699,255,78,399,
0,68,689,252,78,396,
0,68,679,251,77,391,
0,67,671,248,76,388,
0,67,745,247,77,384,
0,67,787,244,76,382,
0,66,775,243,76,379,
0,66,764,241,75,375,
0,65,755,240,75,371,
0,65,744,238,74,419,
0,64,733,236,73,415,
0,63,723,234,72,410,
0,63,715,231,72,406,
0,63,704,231,71,402,
0,62,696,230,71,399,
0,62,774,227,71,396,
0,61,761,225,71,391,
0,61,752,224,71,388,
0,63,741,222,71,385,
0,62,730,221,70,399,
0,62,719,220,70,436,
0,61,711,217,70,432,
0,60,702,216,68,428,
0,60,692,215,68,423,
0,60,683,213,67,420,
0,59,676,211,71,415,
0,59,716,210,71,413,
0,58,705,209,71,409,
0,58,696,207,71,405,
0,63,688,206,70,401,
0,63,678,204,70,431,
0,62,668,203,68,425,
0,62,660,201,68,421,
0,61,654,199,67,416,
0,61,646,199,67,414,
0,60,638,198,67,409,
0,60,630,196,74,406,
0,60,624,195,73,401,
0,59,615,193,73,399,
0,59,609,192,72,395,
0,58,601,191,71,391,
0,57,596,241,71,446,
0,57,589,239,71,441,
0,56,582,237,70,438,
0,56,575,235,70,433,
0,56,569,233,70,428,
0,56,564,231,68,424,
0,55,686,230,89,422,
0,55,675,228,88,417,
0,54,665,226,88,413,
0,54,658,224,87,409,
0,54,649,223,86,407,
0,54,639,221,86,429,
0,53,632,219,85,424,
0,53,625,217,84,420,
0,52,617,216,83,417,
0,52,610,215,83,413,
0,51,624,214,82,409,
0,51,828,211,82,404,
0,51,813,209,81,402,
0,57,799,208,80,398,
0,71,787,207,79,395,
0,71,778,205,79,467,
0,70,767,204,79,462,
0,70,755,203,78,455,
0,69,743,201,77,451,
0,68,736,199,77,447,
0,68,726,198,76,443,
0,67,743,197,79,440,
0,67,818,195,78,435,
0,66,804,194,78,431,
0,66,795,192,77,427,
0,65,783,191,76,423,
0,64,771,216,76,462,
0,63,760,231,75,456,
0,63,752,228,75,451,
0,63,740,227,73,448,
0,63,729,225,73,444,
0,62,719,223,72,440,
0,62,807,222,75,435,
0,61,828,220,74,432,
0,60,814,218,73,428,
0,61,801,216,73,423,
0,60,792,215,71,419,
0,60,780,266,71,426,
0,60,768,263,71,422,
0,59,756,261,71,417,
0,59,748,259,70,414,
0,58,737,255,70,411,
0,57,728,255,71,408,
0,57,867,253,71,403,
0,56,855,251,71,399,
0,57,840,249,70,396,
0,102,827,247,69,393,
0,100,814,245,68,407,
0,99,801,243,68,415,
0,99,788,241,67,412,
0,97,780,240,67,408,
0,96,768,238,67,404,
0,96,758,236,67,400,
0,95,747,235,68,397,
0,95,739,232,67,393,
0,94,728,231,67,391,
0,98,719,230,67,387,
0,97,708,227,67,384,
0,96,702,226,66,401,
0,96,692,224,65,398,
0,95,684,223,65,393,
0,94,675,222,64,390,
0,93,668,220,63,386,
0,93,659,217,63,384,
0,92,743,216,69,380,
0,91,731,216,68,376,
0,91,722,214,68,373,
0,89,712,283,67,370,
0,89,702,359,67,368,
0,88,691,361,66,412,
0,88,681,357,65,408,
0,88,675,353,65,404,
0,87,665,350,64,401,
0,86,657,348,63,397,
0,86,648,344,64,393,
0,84,643,342,64,390,
0,83,635,339,63,387,
0,83,627,336,63,384,
0,83,620,334,63,380,
0,82,614,332,63,431,
0,81,607,395,62,425,
0,81,600,391,61,422,
0,80,593,387,61,417,
0,79,588,384,60,413,
0,79,581,380,60,409,
0,79,627,378,65,407,
0,78,751,375,64,402,
0,77,742,371,63,398,
0,77,731,368,63,396,
0,76,719,365,63,391,
0,76,710,363,62,390,
0,75,702,359,62,386,
0,75,692,356,62,384,
0,74,683,354,61,380,
0,73,673,351,60,376,
0,73,667,348,60,374,
0,72,744,345,61,369,
0,71,830,344,61,368,
0,71,816,340,60,364,
0,105,803,337,60,361,
0,103,791,335,60,358,
0,103,778,332,59,407,
0,102,769,329,59,402,
0,101,758,327,58,398,
0,100,748,324,57,395,
0,99,736,322,57,391,
0,99,727,319,63,387,
0,98,777,318,62,384,
0,97,768,315,62,380,
0,96,756,312,61,377,
0,96,745,312,61,375,
0,96,735,308,60,382,
0,95,727,306,60,377,
0,94,716,304,60,375,
0,93,706,302,59,371,
0,92,697,300,58,368,
0,92,690,297,58,364,
0,91,729,295,67,361,
0,90,819,294,67,359,
0,89,806,291,66,355,
0,89,796,307,66,353,
0,88,783,332,65,350,
0,88,771,342,64,348,
0,88,760,339,63,345,
0,87,749,335,63,342,
0,86,741,332,63,339,
0,85,731,329,63,337,
0,84,719,327,62,335,
0,84,795,324,66,332,
0,83,784,321,65,329,
0,83,772,319,65,327,
0,82,760,317,64,324,
0,82,750,315,63,322,
0,81,741,312,63,369,
0,81,730,310,63,366,
0,79,719,307,62,363,
0,79,710,305,62,359,
0,79,703,303,61,355,
0,78,694,300,68,353,
0,78,739,299,68,350,
0,77,728,295,68,347,
0,77,719,294,67,344,
0,101,710,425,67,340,
0,99,699,419,66,353,
0,99,689,415,65,366,
0,98,679,411,65,361,
0,97,673,408,64,359,
0,96,664,403,64,355,
0,96,655,400,63,352,
0,95,647,396,65,349,
0,94,641,393,64,346,
0,93,634,390,63,344,
0,98,626,387,63,340,
0,98,619,398,63,337,
0,97,614,583,63,391,
0,96,606,574,62,387,
0,96,599,568,61,384,
0,95,591,562,60,380,
0,94,587,556,60,376,
0,93,580,550,60,372,
0,93,660,544,60,370,
0,92,651,539,60,366,
0,91,641,533,59,363,
0,91,635,527,59,359,
0,90,626,523,58,358,
0,89,617,519,57,396,
0,88,610,513,57,391,
0,88,604,508,57,387,
0,87,596,504,56,385,
0,86,589,499,56,382,
0,86,582,495,63,378,
0,85,735,489,63,374,
0,84,723,486,62,371,
0,116,711,481,62,368,
0,159,702,478,61,365,
0,157,691,473,61,423,
0,156,681,469,60,419,
0,154,671,465,60,415,
0,152,664,460,60,412,
0,152,654,456,59,408,
0,150,646,452,59,403,
0,149,739,448,66,399,
0,147,784,444,65,396,
0,146,771,440,65,391,
0,145,760,536,64,388,
0,144,749,529,63,385,
0,143,738,523,63,427,
0,142,728,518,63,423,
0,141,717,513,62,418,
0,140,707,508,62,414,
0,139,697,503,61,409,
0,137,688,497,64,406,
0,136,679,492,64,401,
0,135,670,487,63,398,
0,166,661,483,63,395,
0,163,655,526,63,391,
0,161,647,519,62,430,
0,159,638,515,62,425,
0,159,631,508,61,421,
0,157,623,504,60,417,
0,156,615,498,60,414,
0,155,608,494,63,409,
0,153,723,489,62,406,
0,152,711,484,62,401,
0,152,701,480,61,398,
0,150,691,476,60,395,
0,149,681,471,60,391,
0,147,671,466,60,387,
0,146,663,462,59,384,
0,145,655,457,59,380,
0,144,647,454,58,376,
0,143,639,449,57,374,
0,142,769,445,57,370,
0,141,756,441,57,368,
0,140,745,438,56,364,
0,140,734,434,56,361,
0,139,723,431,56,402,
0,138,712,428,56,397,
0,137,703,423,55,393,
0,135,693,420,55,390,
0,135,684,417,54,385,
0,134,675,413,54,382,
0,134,665,409,61,378,
0,132,656,407,60,375,
0,131,650,403,60,371,
0,153,642,399,59,368,
0,152,633,397,59,415,
0,151,626,452,59,409,
0,150,618,447,57,407,
0,148,611,444,57,403,
0,147,604,440,57,399,
0,146,596,436,56,395,
0,145,674,432,58,391,
0,143,731,428,57,387,
0,143,719,423,57,384,
0,142,709,420,57,380,
0,140,699,472,56,376,
0,140,688,467,56,418,
0,138,681,462,56,414,
0,137,671,457,55,409,
0,135,664,452,55,406,
0,135,654,448,54,401,
0,134,646,444,55,399,
0,133,755,440,54,395,
0,132,743,435,54,391,
0,131,732,432,54,387,
0,159,721,428,53,384,
0,158,711,423,52,401,
0,156,701,420,52,397,
0,155,691,416,51,393,
0,153,682,413,51,390,
0,152,672,409,51,385,
0,151,666,406,52,382,
0,150,739,401,63,379,
0,148,728,399,62,375,
0,147,717,396,62,372,
0,146,707,589,61,369,
0,145,696,580,60,409,
0,143,687,692,60,404,
0,143,677,683,60,400,
0,142,668,673,59,396,
0,141,659,665,59,392,
0,140,651,656,58,390,
0,139,792,648,66,385,
0,137,778,641,65,382,
0,136,766,658,65,378,
0,135,758,649,64,375,
0,135,746,641,63,423,
0,134,736,633,63,417,
0,132,724,627,63,413,
0,131,715,620,62,410,
0,131,704,612,62,406,
0,129,695,606,61,402,
0,129,702,600,61,398,
0,127,691,594,60,394,
0,127,682,588,60,391,
0,134,672,582,60,387,
0,133,664,575,59,384,
0,131,655,624,59,390,
0,131,647,615,58,385,
0,129,639,608,57,382,
0,128,632,600,57,379,
0,127,625,594,56,375,
0,126,617,588,57,371,
0,125,732,580,57,368,
0,124,720,574,56,366,
0,124,710,568,56,363,
0,123,700,564,56,359,
0,122,691,793,56,408,
0,121,679,799,55,403,
0,120,671,788,55,399,
0,120,662,777,54,396,
0,118,654,766,54,391,
0,118,644,756,56,387,
0,116,719,745,56,384,
0,115,711,736,56,380,
0,115,700,727,55,377,
0,114,690,718,55,374,
0,113,680,709,54,413,
0,113,671,700,54,409,
0,112,662,691,54,406,
0,111,653,684,52,401,
0,111,644,677,52,398,
0,110,636,669,52,393,
0,109,769,662,55,390,
0,108,756,654,55,386,
0,108,745,647,54,383,
0,107,734,639,53,379,
0,106,723,633,53,414,
0,105,716,626,53,408,
0,103,705,620,52,404,
0,103,696,612,51,400,
0,103,686,606,51,396,
0,102,676,600,51,393,
0,102,760,594,64,390,
0,100,791,588,63,386,
0,100,779,583,63,384,
0,149,767,616,63,379,
0,147,755,608,62,376,
0,145,743,600,62,425,
0,144,733,593,61,421,
0,143,723,587,60,417,
0,142,711,580,60,412,
0,140,705,574,60,408,
0,140,696,568,75,404,
0,138,714,563,74,400,
0,137,704,652,73,397,
0,171,694,792,72,394,
0,209,684,780,71,391,
0,207,675,769,71,419,
0,204,666,760,71,415,
0,203,657,751,70,411,
0,201,649,740,70,407,
0,199,641,731,69,402,
0,198,633,721,73,399,
0,196,625,711,72,395,
0,195,617,704,71,391,
0,193,611,695,71,387,
0,192,604,686,71,384,
0,190,598,679,71,432,
0,188,591,670,70,427,
0,187,583,663,69,423,
0,185,577,655,68,419,
0,184,571,647,67,415,
0,183,564,642,67,411,
0,182,604,635,68,407,
0,180,595,628,67,403,
0,179,588,622,67,399,
0,177,580,615,67,396,
0,176,574,692,66,410,
0,175,566,835,65,406,
0,174,559,822,65,401,
0,172,555,809,64,398,
0,171,549,799,63,393,
0,170,543,787,63,390,
0,168,655,776,67,387,
0,167,694,766,67,384,
0,166,683,755,67,380,
0,166,673,748,66,377,
0,165,664,893,65,376,
0,163,655,903,65,417,
0,163,646,911,64,412,
0,161,638,915,63,408,
0,159,630,916,63,404,
0,159,621,907,63,399,
0,158,630,883,65,396,
0,156,623,870,64,392,
0,156,615,856,63,389,
0,155,607,844,63,385,
0,153,600,831,63,382,
0,152,592,821,63,403,
0,152,585,809,62,399,
0,150,578,799,62,394,
0,150,572,791,60,391,
0,148,565,780,60,387,
0,147,585,770,64,384,
0,146,695,760,63,380,
0,145,684,751,63,376,
0,147,675,741,63,372,
0,180,665,732,62,369,
0,179,659,723,62,423,
0,177,649,892,61,419,
0,176,641,881,60,415,
0,174,632,867,60,411,
0,172,624,854,60,408,
0,171,615,841,61,403,
0,169,609,829,65,399,
0,168,601,820,63,396,
0,167,594,808,63,391,
0,166,587,797,63,388,
0,165,579,786,63,436,
0,163,573,775,62,431,
0,162,567,765,62,427,
0,161,560,755,61,422,
0,159,555,745,60,418,
0,159,548,736,60,414,
0,158,659,728,61,409,
0,156,652,718,60,406,
0,156,643,710,60,403,
0,154,634,701,60,399,
0,152,625,693,59,397,
0,152,617,687,59,433,
0,151,609,679,58,429,
0,150,601,671,57,424,
0,148,594,664,57,420,
0,147,587,657,56,415,
0,147,679,649,59,412,
0,145,668,643,59,408,
0,144,659,636,58,404,
0,143,652,630,57,400,
0,142,643,623,57,397,
0,142,635,616,56,399,
0,140,627,610,56,396,
0,140,619,604,56,391,
0,139,611,598,56,388,
0,137,603,593,55,385,
0,136,595,588,59,382,
0,135,630,582,58,377,
0,135,620,575,58,375,
0,134,613,670,57,371,
0,221,604,666,57,368,
0,218,596,657,56,417,
0,216,589,649,56,413,
0,214,583,639,56,408,
0,212,577,633,55,404,
0,211,570,625,55,400,
0,208,563,619,56,397,
0,207,737,611,56,393,
0,205,726,604,55,390,
0,204,715,597,55,387,
0,203,704,591,54,384,
0,200,696,790,53,391,
0,199,684,775,53,387,
0,198,675,765,52,384,
0,196,666,753,52,380,
0,195,657,743,51,376,
0,193,648,734,51,373,
0,192,786,724,55,369,
0,190,790,715,54,366,
0,188,776,705,54,363,
0,187,765,696,53,359,
0,185,753,795,52,376,
0,184,742,782,52,412,
0,183,732,771,51,408,
0,182,721,763,51,403,
0,180,711,752,51,399,
0,179,701,742,50,396,
0,178,812,732,51,391,
0,176,826,722,51,388,
0,175,812,713,51,384,
0,174,799,704,51,381,
0,172,791,696,50,377,
0,172,779,687,49,387,
0,170,768,679,49,384,
0,169,755,671,49,380,
0,167,744,663,48,376,
0,167,734,655,48,374,
0,166,724,647,57,370,
0,164,766,641,56,367,
0,163,753,635,56,364,
0,162,743,627,55,359,
0,161,732,621,55,357,
0,159,721,615,55,400,
0,159,711,608,54,396,
0,158,702,601,53,392,
0,156,695,595,53,388,
0,156,685,588,52,385,
0,155,676,583,57,382,
0,153,811,575,57,377,
0,152,797,571,57,375,
0,152,785,647,56,371,
0,150,773,647,56,368,
0,150,761,641,56,403,
0,148,750,633,55,399,
0,147,739,626,55,395,
0,147,729,619,54,391,
0,145,719,611,54,387,
0,144,709,604,54,384,
0,143,700,597,53,380,
0,143,690,590,52,376,
0,142,683,583,52,373,
0,141,674,577,52,369,
0,140,665,571,51,409,
0,151,656,565,51,404,
0,149,648,560,51,401,
0,148,639,554,50,398,
0,147,632,550,50,393,
0,145,625,545,49,390,
0,144,700,540,58,386,
0,143,688,536,57,383,
0,142,679,530,57,379,
0,141,669,525,56,376,
0,140,660,566,56,372,
0,139,651,558,56,408,
0,138,645,639,55,403,
0,137,636,655,55,399,
0,135,627,646,54,396,
0,135,620,638,54,391,
0,135,686,631,59,390,
0,134,768,622,59,385,
0,132,755,615,58,382,
0,132,743,609,57,378,
0,131,733,603,57,375,
0,130,722,595,56,398,
0,129,711,588,56,393,
0,128,702,582,56,390,
0,127,692,575,55,385,
0,127,683,569,55,382,
0,126,675,563,56,379,
0,125,689,558,56,376,
0,124,679,551,56,371,
0,123,670,546,56,368,
0,123,661,540,55,366,
0,135,653,639,54,397,
0,188,643,631,54,392,
0,185,636,625,53,389,
0,184,627,617,53,385,
0,182,620,609,52,381,
0,180,612,603,52,377,
0,179,740,595,54,375,
0,178,729,588,54,371,
0,176,718,582,53,367,
0,175,710,575,52,364,
0,174,700,594,52,403,
0,172,690,635,51,399,
0,171,680,627,51,395,
0,169,671,619,51,391,
0,167,662,611,50,388,
0,167,654,604,50,384,
0,166,646,599,51,380,
0,164,637,591,51,377,
0,163,629,584,50,374,
0,162,621,578,49,370,
0,161,614,572,49,392,
0,159,606,566,49,407,
0,159,600,560,48,402,
0,157,593,553,48,399,
0,156,587,547,48,395,
0,155,580,542,47,391,
0,154,623,536,52,387,
0,153,723,531,52,384,
0,152,711,526,51,380,
0,151,701,520,51,376,
0,150,691,518,51,374,
0,149,681,513,50,414,
0,147,671,508,50,409,
0,147,663,504,49,406,
0,145,654,499,49,401,
0,144,646,495,48,398,
0,143,652,491,51,393,
0,142,748,487,51,390,
0,142,739,483,50,386,
0,140,728,479,49,383,
0,140,718,474,49,379,
0,138,707,471,49,408,
0,137,697,467,48,406,
0,135,688,463,48,401,
0,135,678,460,47,398,
0,135,668,455,47,393,
0,134,660,452,59,390,
0,133,710,448,59,386,
0,131,699,445,58,383,
0,131,688,441,57,379,
0,131,679,600,57,376,
0,129,669,591,57,404,
0,128,663,583,56,399,
0,127,654,576,56,396,
0,127,645,569,56,391,
0,126,637,563,55,387,
0,124,628,557,55,385,
0,124,775,551,57,382,
0,123,761,545,57,377,
0,123,750,540,56,374,
0,121,739,557,56,371,
0,120,728,550,56,391,
0,121,718,543,55,406,
0,120,707,537,55,401,
0,120,697,531,54,398,
0,119,688,527,54,393,
0,118,681,521,54,390,
0,117,703,515,53,386,
0,116,742,511,52,382,
0,115,730,505,52,379,
0,137,719,500,51,376,
0,135,710,496,51,372,
0,135,699,491,51,409,
0,134,689,487,50,405,
0,132,679,483,50,401,
0,131,670,478,49,397,
0,131,662,473,49,393,
0,129,678,470,52,390,
0,128,751,464,52,385,
0,127,739,460,51,382,
0,127,732,455,51,379,
0,126,719,452,51,376,
0,124,711,472,51,417,
0,124,700,466,50,412,
0,123,691,461,49,409,
0,121,680,455,49,406,
0,120,671,451,48,401,
0,120,664,448,49,398,
0,120,862,444,49,393,
0,119,846,440,48,390,
0,117,831,437,48,386,
0,116,819,433,48,383,
0,115,806,430,47,409,
0,115,793,427,47,404,
0,114,784,423,47,400,
0,113,773,420,47,396,
0,112,761,417,46,392,
0,112,751,414,46,390,
0,111,816,410,49,386,
0,110,802,408,49,383,
0,110,790,404,48,379,
0,108,777,402,48,376,
0,108,766,467,48,372,
0,108,754,600,47,371,
0,107,743,591,47,368,
0,106,733,583,46,364,
0,105,723,577,46,361,
0,104,712,571,46,358,
0,103,806,564,55,355,
0,103,796,558,54,352,
0,103,783,551,54,349,
0,188,771,546,54,345,
0,209,760,540,53,374,
0,207,748,535,52,398,
0,205,737,529,52,394,
0,203,727,524,51,390,
0,201,716,519,51,386,
0,199,707,514,51,383,
0,199,716,510,54,379,
0,196,749,504,53,376,
0,195,738,499,52,371,
0,193,728,495,52,368,
0,192,716,489,51,365,
0,191,709,485,51,406,
0,189,699,480,51,401,
0,188,689,476,50,398,
0,186,679,472,49,393,
0,184,671,467,49,391,
0,184,663,463,54,387,
0,182,707,459,53,384,
0,180,696,455,52,380,
0,179,687,451,51,376,
0,178,677,448,51,372,
0,177,668,444,51,432,
0,176,659,440,51,427,
0,174,651,435,50,422,
0,172,642,432,50,417,
0,172,636,428,49,414,
0,170,628,424,49,409,
0,168,664,420,60,406,
0,167,655,417,59,402,
0,167,646,414,59,399,
0,203,636,411,57,396,
0,200,628,408,57,403,
0,199,620,462,56,401,
0,198,612,475,56,397,
0,195,606,470,56,393,
0,194,599,465,56,390,
0,192,591,460,55,386,
0,192,739,455,55,383,
0,190,728,451,55,380,
0,188,719,447,54,376,
0,187,710,442,54,372,
0,185,700,438,54,387,
0,184,689,433,53,399,
0,182,679,430,52,397,
0,180,671,425,52,393,
0,179,662,422,51,390,
0,178,653,419,51,385,
0,177,692,415,66,382,
0,176,766,411,65,378,
0,174,754,408,65,375,
0,173,743,403,64,371,
0,172,732,400,63,368,
0,171,721,398,63,424,
0,169,711,536,63,419,
0,167,704,688,63,415,
0,167,693,678,62,412,
0,166,684,668,61,408,
0,164,675,659,61,404,
0,163,780,652,60,400,
0,162,768,643,60,396,
0,161,755,638,60,392,
0,159,743,631,59,390,
0,159,734,624,58,432,
0,158,723,615,58,428,
0,156,711,608,57,423,
0,156,703,601,57,419,
0,155,693,595,56,415,
0,153,684,588,56,411,
0,152,771,582,70,407,
0,151,759,575,68,403,
0,150,747,570,68,399,
0,149,736,564,67,396,
0,147,726,559,67,436,
0,147,716,707,66,433,
0,146,705,795,66,428,
0,145,696,786,65,423,
0,144,686,775,64,419,
0,143,676,764,63,415,
0,142,746,753,65,412,
0,141,734,743,65,408,
0,140,723,733,64,404,
0,142,712,723,64,399,
0,140,705,715,63,399,
0,139,696,705,63,406,
0,138,685,696,62,401,
0,137,675,688,62,397,
0,135,667,679,62,395,
0,135,658,671,61,391,
0,135,666,664,63,387,
0,134,656,659,63,384,
0,132,647,651,62,380,
0,137,639,643,62,376,
0,135,632,636,61,374,
0,135,624,641,60,411,
0,134,615,633,60,406,
0,132,608,625,60,402,
0,131,604,619,59,398,
0,131,596,611,59,394,
0,129,589,606,62,391,
0,128,742,600,61,387,
0,127,729,592,60,384,
0,127,719,608,60,380,
0,126,708,777,59,376,
0,125,698,768,59,396,
0,124,688,757,59,391,
0,124,679,747,57,388,
0,123,670,736,57,384,
0,122,660,727,57,380,
0,121,652,717,56,377,
0,120,785,707,56,373,
0,120,775,699,56,370,
0,119,764,691,56,367,
0,118,752,734,55,364,
0,117,741,724,55,411,
0,116,730,714,54,408,
0,115,719,704,54,403,
0,115,710,696,53,399,
0,114,700,689,52,396,
0,113,689,680,52,391,
0,113,831,672,56,387,
0,112,816,664,56,384,
0,111,803,656,55,380,
0,110,791,649,54,376,
0,110,778,641,54,422,
0,109,767,635,53,439,
0,108,758,627,53,434,
0,108,747,620,52,430,
0,107,736,614,52,425,
0,106,726,608,51,422,
0,105,716,601,53,418,
0,104,706,595,53,414,
0,103,696,590,52,411,
0,103,688,583,51,407,
0,103,679,578,51,403,
0,102,670,572,51,456,
0,102,661,567,51,451,
0,101,652,560,50,448,
0,100,644,556,49,443,
0,99,638,550,49,438,
0,99,631,545,52,435,
0,98,735,540,51,430,
0,97,723,536,51,426,
0,97,716,531,51,422,
0,96,705,526,50,419,
0,96,696,521,50,430,
0,96,685,517,49,425,
0,95,678,512,49,420,
0,94,669,508,49,417,
0,94,659,504,48,414,
0,93,651,499,48,409,
0,92,692,496,54,406,
0,92,788,491,53,403,
0,91,775,487,52,399,
0,91,764,483,52,396,
0,91,755,479,51,391,
0,89,743,475,51,428,
0,89,733,472,51,424,
0,88,723,467,51,420,
0,88,711,463,50,415,
0,88,705,460,49,412,
0,87,696,455,50,409,
0,87,782,453,59,405,
0,86,769,449,59,401,
0,85,760,446,59,398,
0,180,749,441,58,393,
0,177,738,472,57,394,
0,176,728,571,56,441,
0,174,716,563,56,437,
0,173,707,559,56,432,
0,172,697,551,56,428,
0,170,688,545,55,423,
0,167,737,540,59,419,
0,167,743,534,59,415,
0,166,732,527,58,412,
0,169,721,523,57,408,
0,167,714,518,57,404,
0,166,704,512,56,439,
0,164,694,507,56,433,
0,163,684,502,56,430,
0,162,675,496,55,426,
0,161,666,492,55,422,
0,159,657,487,59,418,
0,159,781,483,58,414,
0,158,768,479,58,409,
0,156,756,474,57,406,
0,155,745,470,56,403,
0,154,735,465,56,432,
0,153,723,514,56,428,
0,152,713,508,56,423,
0,151,705,502,55,419,
0,150,696,497,55,415,
0,148,687,492,55,411,
0,147,835,487,60,407,
0,146,819,481,60,403,
0,145,806,476,59,399,
0,143,793,472,59,396,
0,143,781,468,58,450,
0,142,769,463,57,444,
0,141,759,459,57,440,
0,140,747,455,56,435,
0,139,737,451,56,431,
0,137,727,447,56,427,
0,137,716,443,57,423,
0,135,707,439,57,418,
0,135,699,435,56,415,
0,134,689,432,56,411,
0,133,681,428,56,433,
0,132,671,424,56,432,
0,131,664,421,55,428,
0,130,655,417,54,423,
0,129,647,415,54,420,
0,129,639,412,53,415,
0,127,741,408,54,412,
0,127,815,406,54,408,
0,126,801,402,53,404,
0,125,789,399,52,400,
0,124,776,396,52,396,
0,124,766,474,51,403,
0,123,756,487,51,399,
0,121,745,481,51,395,
0,121,735,476,51,391,
0,120,724,472,50,388,
0,120,715,467,53,385,
0,119,747,462,52,382,
0,118,736,457,52,379,
0,117,726,560,51,376,
0,116,715,637,51,372,
0,115,705,628,51,436,
0,115,696,621,50,432,
0,114,686,613,50,427,
0,113,676,606,49,423,
0,112,668,599,49,418,
0,111,662,591,54,415,
0,111,737,585,64,410,
0,110,726,579,63,407,
0,121,716,572,63,403,
0,219,705,567,63,399,
0,216,695,560,62,434,
0,214,685,554,62,429,
0,212,675,550,61,423,
0,211,666,543,60,420,
0,209,657,539,60,415,
0,207,649,534,60,412,
0,205,753,527,59,408,
0,204,740,523,59,403,
0,202,729,518,58,400,
0,199,721,631,57,396,
0,199,711,622,57,441,
0,197,700,615,56,435,
0,195,691,607,56,431,
0,194,681,600,56,428,
0,192,671,592,56,423,
0,191,664,586,55,419,
0,190,717,582,56,415,
0,188,705,575,56,411,
0,187,696,568,56,407,
0,185,685,563,56,403,
0,184,675,556,55,399,
0,183,666,551,55,412,
0,182,657,544,54,408,
0,180,651,539,54,403,
0,179,642,534,54,399,
0,177,635,527,53,396,
0,176,627,524,52,391,
0,175,711,518,52,390,
0,174,700,512,51,385,
0,172,690,508,51,383,
0,171,679,504,51,379,
0,170,671,513,50,385,
0,169,661,508,50,382,
0,167,652,502,50,378,
0,167,643,497,49,375,
0,166,636,492,49,371,
0,164,647,487,51,368,
0,163,816,483,50,364,
0,161,806,479,49,361,
0,161,792,475,49,359,
0,188,780,542,49,355,
0,185,768,675,48,390,
0,184,757,666,48,387,
0,183,745,657,48,384,
0,181,735,648,47,380,
0,179,724,643,47,376,
0,179,715,635,47,372,
0,177,775,627,47,368,
0,176,763,620,47,365,
0,174,751,613,47,362,
0,172,740,606,46,359,
0,172,729,600,46,416,
0,170,721,593,46,412,
0,169,711,587,45,408,
0,167,702,580,44,403,
0,166,692,574,44,399,
0,164,683,568,44,396,
0,163,792,562,52,391,
0,163,785,556,51,388,
0,161,773,551,51,385,
0,160,761,546,50,381,
0,159,750,540,50,377,
0,158,739,536,49,410,
0,157,728,530,49,406,
0,156,718,524,49,401,
0,155,707,519,48,398,
0,153,700,515,48,394,
0,152,691,510,68,390,
0,152,788,504,67,387,
0,151,776,499,67,384,
0,184,764,496,67,380,
0,191,753,491,66,376,
0,189,742,487,65,412,
0,188,731,483,65,408,
0,186,720,479,64,403,
0,184,711,475,63,399,
0,183,700,470,63,396,
0,182,702,466,65,391,
0,180,839,462,64,388,
0,179,825,457,63,384,
0,177,816,454,63,381,
0,176,803,449,63,377,
0,174,790,446,62,384,
0,173,778,441,62,380,
0,172,767,438,61,377,
0,171,755,434,60,374,
0,169,744,431,60,370,
0,167,734,428,60,367,
0,167,865,423,60,364,
0,166,849,421,60,359,
0,164,835,417,59,358,
0,163,823,414,59,354,
0,162,809,411,59,403,
0,160,797,436,57,398,
0,159,785,431,57,394,
0,159,775,427,57,391,
0,158,764,422,56,387,
0,156,753,418,56,383,
0,155,790,414,57,379,
0,153,776,409,56,376,
0,152,765,483,56,373,
0,190,753,591,56,369,
0,188,742,583,55,368,
0,187,732,576,55,407,
0,185,721,569,55,403,
0,184,711,563,54,399,
0,182,702,556,53,395,
0,180,693,551,52,391,
0,179,777,544,57,387,
0,177,767,539,56,384,
0,176,755,533,56,380,
0,174,743,527,56,376,
0,173,732,522,55,373,
0,172,722,516,55,427,
0,170,711,511,55,423,
0,169,702,506,54,418,
0,167,691,503,53,414,
0,167,683,497,53,409,
0,166,679,493,56,406,
0,164,748,487,56,402,
0,163,736,483,56,398,
0,162,726,479,55,394,
0,161,715,474,55,391,
0,159,707,542,55,387,
0,158,697,535,54,384,
0,157,688,528,53,380,
0,156,678,523,53,376,
0,155,669,518,52,374,
0,153,660,512,52,371,
0,152,654,506,53,368,
0,152,646,503,52,364,
0,151,638,497,51,360,
0,150,630,492,51,358,
0,148,623,487,51,409,
0,147,615,482,51,405,
0,147,608,478,50,401,
0,145,601,492,50,397,
0,144,595,609,49,393,
0,143,589,601,49,390,
0,143,671,594,49,385,
0,142,663,587,48,382,
0,140,653,580,48,380,
0,140,644,574,48,376,
0,139,636,568,47,380,
0,137,627,563,47,412,
0,137,619,556,47,408,
0,135,611,551,46,403,
0,135,604,544,46,399,
0,135,595,539,46,395,
0,134,694,534,47,391,
0,132,691,527,47,387,
0,131,684,523,47,384,
0,131,673,517,46,380,
0,129,664,512,46,377,
0,128,655,507,46,403,
0,127,646,502,45,399,
0,127,638,497,45,396,
0,126,630,492,44,391,
0,125,621,488,44,388,
0,125,617,484,57,384,
0,124,704,480,56,381,
0,123,694,475,56,377,
0,122,684,471,56,374,
0,121,674,466,55,371,
0,120,665,505,54,409,
0,120,655,499,54,404,
0,119,649,493,53,400,
0,119,639,487,53,396,
0,118,632,483,52,392,
0,116,624,478,54,389,
0,115,679,472,53,386,
0,115,670,468,53,383,
0,115,660,464,52,379,
0,114,652,460,52,376,
0,113,642,455,51,430,
0,113,633,451,51,423,
0,112,625,448,51,420,
0,111,617,444,50,415,
0,111,609,440,49,412,
0,110,603,435,49,408,
0,109,597,432,54,403,
0,108,590,428,53,399,
0,108,583,480,52,396,
0,108,575,558,52,391,
0,107,569,551,51,404,
0,106,563,543,51,429,
0,105,558,537,51,424,
0,105,551,534,51,420,
0,103,545,527,49,415,
0,103,540,521,49,412,
0,103,600,516,53,408,
0,102,591,511,52,404,
0,102,583,505,51,400,
0,100,576,500,51,396,
0,100,571,496,51,392,
0,99,563,491,50,390,
0,99,557,487,50,387,
0,98,551,482,49,384,
0,97,543,478,49,380,
0,97,539,472,49,376,
0,96,533,468,50,374,
0,96,588,465,49,370,
0,96,581,460,49,367,
0,95,575,492,49,364,
0,94,568,724,48,361,
0,94,561,757,48,416,
0,93,553,745,48,419,
0,92,548,736,47,415,
0,92,542,726,47,412,
0,92,536,719,46,408,
0,91,530,708,46,404,
0,90,566,700,50,399,
0,89,610,691,50,397,
0,89,602,684,49,393,
0,88,594,676,49,390,
0,88,588,668,48,386,
0,88,581,660,48,433,
0,87,574,655,48,428,
0,87,567,647,48,423,
0,86,561,639,47,419,
0,86,555,632,47,416,
0,84,547,627,46,412,
0,84,611,620,47,408,
0,83,604,613,47,404,
0,83,596,607,46,400,
0,97,588,601,46,398,
0,96,581,595,45,394,
0,95,574,589,45,435,
0,94,568,583,44,430,
0,94,561,577,44,427,
0,93,555,572,44,422,
0,92,548,567,44,418,
0,92,543,561,44,414,
0,91,563,556,44,411,
0,90,556,551,44,408,
0,104,550,546,44,403,
0,103,543,540,43,399,
0,103,536,536,43,440,
0,102,530,529,43,434,
0,100,526,525,42,430,
0,99,520,519,41,425,
0,99,515,516,41,422,
0,99,510,512,41,418,
0,97,553,507,42,414,
0,97,547,502,42,409,
0,96,540,497,41,407,
0,132,534,606,41,403,
0,140,527,641,41,399,
0,138,520,633,40,411,
0,136,515,625,40,407,
0,135,509,617,39,402,
0,135,504,610,39,398,
0,133,498,603,39,395,
0,132,495,596,53,391,
0,131,624,590,52,387,
0,130,615,583,51,384,
0,129,607,575,51,380,
0,127,599,570,51,377,
0,127,591,644,51,420,
0,126,583,659,50,415,
0,125,575,653,49,411,
0,124,569,644,49,407,
0,123,562,637,48,403,
0,123,556,629,48,399,
0,121,599,622,48,395,
0,120,591,615,48,391,
0,120,583,608,47,387,
0,119,577,600,47,384,
0,118,570,647,46,437,
0,117,563,747,46,432,
0,116,556,736,46,427,
0,115,550,726,45,423,
0,114,543,716,44,419,
0,113,536,707,44,415,
0,113,636,700,49,412,
0,112,626,691,48,408,
0,111,617,683,48,403,
0,110,609,674,48,399,
0,109,601,666,47,396,
0,108,593,658,47,402,
0,108,586,650,46,398,
0,107,581,643,46,394,
0,106,574,636,46,391,
0,105,568,628,45,387,
0,104,603,636,49,384,
0,103,599,627,49,381,
0,103,591,620,48,377,
0,216,583,613,48,374,
0,211,575,608,48,371,
0,211,568,601,47,400,
0,207,561,595,47,396,
0,207,555,588,46,391,
0,204,548,582,46,388,
0,203,542,575,46,384,
0,201,591,571,59,381,
0,199,626,564,57,377,
0,198,620,559,57,374,
0,196,611,553,56,371,
0,195,603,547,56,367,
0,193,595,542,56,407,
0,192,588,536,56,403,
0,190,580,531,55,399,
0,188,574,527,54,395,
0,188,567,523,54,391,
0,185,560,518,55,387,
0,184,622,513,55,384,
0,184,614,508,54,380,
0,182,606,681,53,376,
0,180,598,691,52,372,
0,179,590,681,52,428,
0,177,584,671,52,423,
0,176,577,664,51,419,
0,175,570,655,51,415,
0,174,563,647,51,410,
0,172,556,639,51,408,
0,171,694,632,51,403,
0,169,682,625,51,399,
0,169,671,620,51,396,
0,167,664,612,50,391,
0,167,654,606,49,403,
0,166,646,599,50,415,
0,164,637,592,49,411,
0,163,628,585,48,407,
0,162,620,579,48,403,
0,160,615,574,48,399,
0,159,721,568,48,396,
0,158,755,561,48,391,
0,158,743,556,47,387,
0,156,732,551,47,385,
0,155,721,579,46,382,
0,154,711,600,46,440,
0,153,701,595,46,435,
0,152,691,588,45,431,
0,152,682,582,45,427,
0,151,672,575,44,423,
0,149,717,568,52,419,
0,147,750,561,52,414,
0,147,738,556,51,410,
0,146,729,550,51,406,
0,145,719,543,51,403,
0,143,709,538,50,458,
0,143,699,532,50,452,
0,142,689,527,49,449,
0,141,679,523,49,444,
0,140,671,518,49,440,
0,139,662,513,51,435,
0,139,669,509,50,432,
0,137,659,504,49,428,
0,135,651,499,49,423,
0,135,643,495,49,419,
0,135,635,491,48,448,
0,134,627,657,48,443,
0,132,620,716,48,438,
0,131,613,707,47,433,
0,131,606,697,47,429,
0,130,599,688,49,425,
0,129,662,679,56,422,
0,127,652,670,55,418,
0,127,643,663,55,414,
0,127,635,656,54,410,
0,126,625,648,54,454,
0,125,618,641,53,455,
0,124,610,633,53,450,
0,124,602,626,52,445,
0,123,595,619,51,440,
0,121,587,611,51,436,
0,121,659,605,51,432,
0,120,652,599,51,428,
0,120,643,591,50,423,
0,119,634,585,49,419,
0,118,625,579,49,447,
0,131,617,574,49,471,
0,130,609,568,48,465,
0,129,601,563,48,460,
0,127,594,558,48,455,
0,127,587,551,47,451,
0,126,643,546,50,447,
0,125,636,540,49,442,
0,124,627,536,49,438,
0,123,619,530,48,433,
0,122,611,525,48,429,
0,129,605,519,48,425,
0,159,597,515,47,421,
0,157,589,510,47,417,
0,156,582,505,47,414,
0,153,575,501,46,411,
0,152,579,496,51,407,
0,152,683,492,51,403,
0,151,672,487,51,399,
0,150,664,484,50,396,
0,148,654,480,49,391,
0,147,646,476,49,440,
0,146,637,472,48,435,
0,145,628,467,48,430,
0,143,620,463,48,425,
0,143,615,460,48,422,
0,141,607,455,55,417,
0,140,659,451,57,414,
0,140,649,448,56,409,
0,138,641,444,56,407,
0,137,632,448,56,403,
0,135,624,559,55,438,
0,201,615,552,55,440,
0,198,608,546,54,436,
0,196,600,540,54,432,
0,195,593,534,53,427,
0,192,585,527,52,423,
0,192,711,523,54,419,
0,189,700,516,54,415,
0,188,693,511,53,411,
0,187,684,506,53,407,
0,185,673,501,52,431,
0,184,664,496,51,445,
0,182,655,491,51,441,
0,180,647,486,51,436,
0,179,638,481,51,432,
0,177,630,478,50,428,
0,176,659,473,50,423,
0,176,650,468,49,419,
0,174,641,537,49,415,
0,172,632,626,48,412,
0,172,624,617,48,408,
0,170,615,610,48,423,
0,169,610,603,48,419,
0,167,603,595,47,414,
0,167,595,589,47,411,
0,165,588,582,46,407,
0,164,601,575,47,403,
0,163,678,569,46,399,
0,161,668,563,46,396,
0,160,659,655,46,391,
0,159,649,646,45,388,
0,158,639,637,45,386,
0,157,632,629,44,383,
0,156,624,622,44,380,
0,155,615,614,44,376,
0,153,608,607,43,372,
0,152,600,600,44,369,
0,152,733,593,51,367,
0,151,721,587,50,364,
0,150,711,580,49,359,
0,148,700,574,49,358,
0,147,690,568,49,365,
0,147,680,561,48,361,
0,145,671,556,48,358,
0,144,663,551,47,355,
0,143,654,545,47,352,
0,143,645,540,48,349,
0,142,732,535,49,346,
0,141,721,638,49,344,
0,140,710,815,48,340,
0,139,700,802,48,337,
0,137,692,790,47,380,
0,136,683,779,47,389,
0,135,673,768,47,385,
0,135,664,758,46,382,
0,134,655,747,46,379,
0,132,647,737,46,375,
0,131,671,728,48,371,
0,131,661,721,47,368,
0,130,652,711,46,364,
0,129,643,704,46,361,
0,128,635,695,46,358,
0,127,627,686,45,401,
0,127,619,678,45,397,
0,126,611,670,44,393,
0,125,605,663,44,389,
0,124,598,655,44,385,
0,123,605,647,46,382,
0,123,701,639,45,378,
0,121,691,633,44,376,
0,121,680,626,44,371,
0,120,671,619,44,368,
0,120,663,724,44,383,
0,129,653,771,43,379,
0,127,644,760,43,375,
0,127,636,750,42,371,
0,125,628,739,41,368,
0,124,620,730,46,364,
0,124,689,719,45,361,
0,123,681,711,45,358,
0,121,671,703,44,355,
0,179,664,739,44,352,
0,177,654,756,44,403,
0,176,645,745,43,399,
0,175,636,736,43,396,
0,173,628,726,43,391,
0,172,620,718,42,388,
0,171,612,710,42,384,
0,169,734,700,42,381,
0,167,723,691,41,377,
0,167,711,683,41,374,
0,166,702,675,41,371,
0,164,691,667,40,423,
0,163,682,659,39,421,
0,162,675,723,39,417,
0,160,665,870,39,412,
0,159,657,855,39,408,
0,158,648,841,39,404,
0,156,719,829,47,401,
0,156,707,816,46,398,
0,154,697,807,45,393,
0,153,688,796,45,390,
0,152,678,786,45,387,
0,152,668,828,44,433,
0,242,659,815,44,428,
0,239,651,867,44,423,
0,236,642,906,43,419,
0,233,634,910,43,415,
0,231,628,899,46,412,
0,230,697,880,46,408,
0,227,687,866,46,404,
0,226,678,854,45,399,
0,224,668,840,44,398,
0,223,659,828,44,440,
0,221,649,817,44,435,
0,219,641,808,43,431,
0,217,633,797,43,427,
0,216,624,787,42,423,
0,214,622,776,49,419,
0,212,708,766,49,414,
0,211,698,756,48,410,
0,209,688,747,48,406,
0,207,680,737,47,403,
0,206,671,881,47,440,
0,204,662,900,47,435,
0,203,653,883,46,431,
0,201,644,870,46,428,
0,199,636,856,45,423,
0,199,627,844,48,419,
0,197,719,833,51,415,
0,195,709,822,50,411,
0,194,699,810,50,408,
0,225,689,799,49,403,
0,224,679,788,49,453,
0,221,670,886,48,448,
0,220,660,907,48,442,
0,217,654,909,48,438,
0,216,646,892,47,433,
0,214,637,876,47,429,
0,212,704,863,46,424,
0,211,692,849,46,422,
0,209,682,837,46,417,
0,207,672,825,45,414,
0,206,664,816,45,409,
0,204,654,805,45,454,
0,203,646,794,45,449,
0,201,637,783,56,444,
0,199,629,773,56,440,
0,198,621,763,56,435,
0,196,744,753,55,431,
0,195,804,743,55,427,
0,193,792,735,54,423,
0,192,780,726,54,419,
0,191,768,717,53,415,
0,190,756,708,52,457,
0,188,745,700,52,451,
0,187,735,691,51,448,
0,185,724,686,51,443,
0,184,714,678,51,438,
0,183,716,671,71,433,
0,182,817,663,71,429,
0,180,804,655,70,425,
0,179,792,647,70,421,
0,178,780,641,69,417,
0,176,768,634,68,455,
0,176,760,627,67,449,
0,174,748,621,67,444,
0,172,737,615,67,440,
0,172,728,608,66,436,
0,171,718,707,65,433,
0,169,862,696,65,428,
0,167,847,688,65,423,
0,167,833,679,63,420,
0,166,820,671,63,415,
0,165,807,663,63,475,
0,163,795,655,63,468,
0,163,783,647,62,463,
0,161,771,639,62,459,
0,160,760,632,61,454,
0,159,752,624,61,449,
0,158,742,616,60,444,
0,157,731,609,60,440,
0,156,721,603,60,436,
0,225,711,639,59,433,
0,222,702,638,58,429,
0,285,692,630,58,458,
0,283,684,624,57,454,
0,280,675,615,57,448,
0,277,665,609,56,444,
0,275,657,601,56,440,
0,272,799,595,57,435,
0,270,862,589,56,431,
0,268,847,583,56,427,
0,265,836,577,56,423,
0,263,824,572,56,419,
0,262,811,566,55,464,
0,259,798,560,55,460,
0,256,785,556,54,455,
0,255,774,604,54,451,
0,252,763,596,54,447,
0,251,777,591,53,442,
0,249,895,583,52,438,
0,248,878,577,52,433,
0,246,863,571,51,429,
0,243,849,563,51,425,
0,241,835,558,51,481,
0,240,823,551,50,476,
0,238,813,547,50,471,
0,236,800,542,49,466,
0,234,788,536,49,461,
0,232,776,531,49,456,
0,231,898,526,48,453,
0,229,890,521,48,448,
0,227,872,516,48,444,
0,225,859,634,47,440,
0,224,844,624,47,468,
0,339,831,615,47,463,
0,363,817,608,46,457,
0,359,806,600,46,453,
0,355,793,639,46,448,
0,352,782,631,53,444,
0,348,888,623,56,440,
0,344,904,615,55,435,
0,342,896,700,54,431,
0,339,876,690,54,427,
0,335,862,680,53,423,
0,391,847,671,52,455,
0,387,834,664,52,449,
0,384,821,655,51,444,
0,381,808,649,51,440,
0,377,796,641,51,435,
0,374,891,633,51,432,
0,370,907,626,50,428,
0,367,911,619,49,423,
0,363,908,611,49,419,
0,359,883,605,49,415,
0,357,871,598,48,469,
0,354,857,667,48,463,
0,351,844,803,48,459,
0,348,831,791,47,455,
0,344,818,779,47,451,
0,342,849,768,47,446,
0,339,903,757,46,441,
0,337,910,750,46,438,
0,334,908,739,45,433,
0,332,886,731,45,430,
0,344,871,721,44,497,
0,451,856,711,44,491,
0,446,843,703,44,486,
0,440,829,695,44,480,
0,435,819,686,43,476,
0,432,807,678,43,471,
0,427,900,670,43,465,
0,423,909,662,42,461,
0,419,910,654,42,457,
0,415,892,647,41,453,
0,412,874,716,41,487,
0,408,860,783,41,480,
0,405,846,771,42,476,
0,401,831,760,42,470,
0,398,819,750,41,465,
0,394,807,739,41,460,
0,391,900,729,41,455,
0,387,909,720,39,451,
0,384,911,711,39,448,
0,380,907,702,39,443,
0,377,883,694,39,494,
0,455,867,685,39,487,
0,451,854,676,39,483,
0,446,839,668,39,478,
0,441,827,660,39,473,
0,436,814,655,38,468,
0,433,893,647,38,463,
0,429,907,639,38,459,
0,424,911,632,38,455,
0,420,913,700,37,450,
0,417,897,726,37,446,
0,413,876,716,36,475,
0,409,865,707,36,470,
0,406,851,697,36,465,
0,401,838,688,35,460,
0,398,824,679,35,455,
0,395,868,671,35,451,
0,391,904,663,35,447,
0,387,908,655,35,443,
0,384,890,649,34,439,
0,382,873,641,34,435,
0,379,859,633,34,480,
0,376,845,627,34,474,
0,372,831,620,76,469,
0,369,819,613,87,463,
0,366,806,606,85,460,
0,363,850,600,84,455,
0,359,901,593,83,450,
0,357,909,588,83,446,
0,354,911,770,82,441,
0,352,902,758,81,438,
0,348,879,747,81,462,
0,345,864,736,80,456,
0,343,850,728,79,451,
0,341,836,719,79,448,
0,339,824,788,78,443,
0,335,811,776,78,439,
0,333,900,765,77,434,
0,330,908,755,76,430,
0,327,905,743,76,426,
0,326,883,734,75,422,
0,323,871,725,75,498,
0,410,857,716,74,491,
0,404,843,706,73,486,
0,399,830,697,72,481,
0,396,817,689,71,477,
0,391,804,679,71,472,
0,388,888,671,71,467,
0,385,897,666,71,462,
0,382,879,658,70,457,
0,379,864,651,69,454,
0,376,849,643,69,449,
0,371,836,636,68,471,
0,369,823,719,67,465,
0,366,809,708,67,460,
0,363,800,699,67,455,
0,359,788,689,66,451,
0,356,812,680,65,446,
0,353,850,671,65,442,
0,350,835,664,65,439,
0,347,822,655,64,435,
0,344,808,647,63,431,
0,342,796,642,63,500,
0,339,784,635,63,494,
0,335,773,627,62,488,
0,334,761,620,62,483,
0,331,751,614,61,479,
0,327,741,607,61,473,
0,326,731,600,60,468,
0,323,723,594,60,463,
0,319,713,588,60,459,
0,318,705,582,59,455,
0,316,696,632,59,474,
0,321,687,624,58,471,
0,318,678,615,57,465,
0,316,670,608,57,460,
0,312,662,603,57,455,
0,312,653,595,57,451,
0,309,788,588,56,447,
0,307,775,582,56,443,
0,304,764,575,56,439,
0,302,752,569,56,434,
0,300,742,563,55,509,
0,297,733,558,55,502,
0,295,722,552,54,496,
0,294,711,547,54,491,
0,291,702,542,53,486,
0,289,692,536,55,482,
0,287,825,531,56,477,
0,285,810,527,56,472,
0,283,797,523,56,467,
0,281,784,518,55,463,
0,280,772,513,55,459,
0,278,761,593,54,475,
0,275,750,585,54,470,
0,273,739,578,53,465,
0,271,728,572,53,460,
0,270,719,565,52,455,
0,268,734,559,52,451,
0,266,739,551,51,447,
0,263,728,546,51,443,
0,263,718,540,51,438,
0,260,707,535,51,435,
0,259,698,529,51,468,
0,257,688,524,50,463,
0,255,679,519,49,458,
0,254,671,514,49,454,
0,252,662,509,49,448,
0,251,735,504,48,444,
0,249,781,499,48,440,
0,248,768,496,48,435,
0,246,756,491,48,432,
0,244,748,556,47,428,
0,243,737,639,47,448,
0,241,727,632,47,443,
0,240,716,623,46,438,
0,238,705,615,46,435,
0,236,696,608,45,430,
0,235,687,601,62,427,
0,233,743,595,60,422,
0,231,732,588,60,419,
0,231,721,582,60,415,
0,228,711,575,59,411,
0,227,701,569,59,422,
0,226,691,563,58,416,
0,224,681,557,58,412,
0,223,675,551,57,408,
0,222,665,545,56,404,
0,220,657,540,57,401,
0,219,695,534,70,398,
0,217,684,529,69,396,
0,216,675,524,68,391,
0,215,665,615,67,388,
0,214,655,755,67,394,
0,212,647,802,66,415,
0,211,639,831,65,411,
0,209,632,818,65,407,
0,207,624,806,64,403,
0,207,615,795,63,399,
0,206,718,783,66,395,
0,204,710,772,65,391,
0,203,699,761,65,387,
0,201,688,752,64,384,
0,199,679,742,63,380,
0,199,670,732,63,393,
0,198,660,723,63,390,
0,196,652,714,63,386,
0,195,643,707,62,382,
0,195,635,699,62,379,
0,193,684,691,61,376,
0,192,707,682,60,372,
0,191,696,674,60,369,
0,190,686,666,60,366,
0,188,676,659,59,363,
0,188,670,651,59,381,
0,186,660,643,59,376,
0,185,652,636,57,373,
0,184,643,630,57,369,
0,183,635,623,57,367,
0,182,627,615,62,364,
0,180,622,609,61,359,
0,179,614,604,60,358,
0,179,607,598,60,355,
0,177,600,591,59,352,
0,176,593,585,59,377,
0,176,587,580,58,372,
0,174,580,574,57,369,
0,173,574,568,57,366,
0,172,568,563,57,362,
0,172,563,557,56,359,
0,170,671,551,56,355,
0,169,661,547,56,352,
0,167,652,541,56,350,
0,167,643,536,55,347,
0,166,634,531,55,367,
0,166,625,526,54,380,
0,164,617,522,54,376,
0,163,609,518,53,371,
0,163,602,512,52,368,
0,161,595,508,52,365,
0,161,679,504,57,361,
0,159,668,499,56,358,
0,159,659,494,56,355,
0,158,652,489,56,352,
0,157,643,486,55,370,
0,156,635,481,55,406,
0,155,627,477,54,401,
0,154,619,473,54,398,
0,153,611,469,53,393,
0,152,603,465,53,391,
0,152,668,462,63,387,
0,151,686,537,63,384,
0,150,675,530,62,380,
0,149,666,524,62,376,
0,148,657,518,61,372,
0,147,648,610,61,401,
0,146,639,690,60,397,
0,145,633,680,60,393,
0,144,625,671,59,389,
0,143,617,663,59,385,
0,143,609,655,76,382,
0,142,681,647,76,379,
0,141,671,639,75,376,
0,140,662,632,74,372,
0,140,652,625,73,368,
0,139,643,619,72,366,
0,138,636,614,71,362,
0,137,627,607,71,359,
0,136,619,600,71,355,
0,135,611,593,70,352,
0,135,604,587,70,350,
0,134,598,580,69,347,
0,133,591,575,68,344,
0,132,583,568,68,341,
0,131,576,563,67,338,
0,131,569,557,67,390,
0,130,563,551,67,407,
0,129,557,545,66,402,
0,129,551,541,65,398,
0,127,545,536,65,395,
0,127,540,530,64,391,
0,127,617,525,63,387,
0,126,608,519,63,384,
0,125,600,515,63,380,
0,124,591,510,63,376,
0,124,584,505,62,376,
0,123,579,502,62,399,
0,123,572,496,61,395,
0,121,564,492,60,391,
0,121,558,487,60,387,
0,120,551,483,60,384,
0,120,563,479,63,380,
0,119,555,475,63,376,
0,118,547,471,63,374,
