=~=~=~=~=~=~=~=~=~=~=~= PuTTY log 2021.04.22 11:48:16 =~=~=~=~=~=~=~=~=~=~=~=
07,154,290,
0,384,66,697,324,146,321,
0,361,688,321,145,319,
0,358,678,318,143,315,
0,354,831,315,159,312,
0,351,815,312,159,309,
0,348,802,366,697,324,146,321,790,307,688,321,145,319,
0,358,678,318,143,315,
0,354,831,315,159,312,
0,351,815,312,159,309,
0,348,802,309,157,307,
0,401,790,307,156,304,
0,436,775,304,155,345,
0,415,
0,354,831,315,159,312,
0,351,815,312,159,309,
0,348,802,309,157,307,
0,401,790,307,156,304,
0,436,775,304,155,345,
0,432,763,327,153,342,
0,427,751,323,152,339,
0,423,740,3bbbj
0,417,729,318,150,332,
0,413,719,314,148,327,StartUp!
125,496,606,348,87,398,
0,492,603,345,87,396,
0,489,688,343,86,393,
0,486,682,340,86,391,
0,482,675,338,85,388,
0,478,668,337,84,385,
0,475,660,335,84,384,
0,472,654,332,84,382,
0,468,649,332,83,412,
0,505,643,353,83,411,
0,499,635,350,83,407,
0,493,627,347,82,403,
0,487,619,344,81,399,
0,483,611,342,80,395,
0,479,702,338,89,391,
0,473,690,335,88,387,
0,468,679,332,88,384,
0,463,671,329,88,380,
0,460,662,327,87,376,
0,455,652,335,86,387,
0,452,646,332,86,383,
0,448,637,329,84,379,
0,444,629,327,83,376,
0,440,621,323,83,372,
0,436,672,321,89,369,
0,432,708,318,89,367,
0,428,697,316,88,364,
0,425,688,313,88,360,
0,422,678,312,87,358,
0,418,668,324,86,396,
0,415,659,321,85,391,
0,411,651,319,84,387,
0,408,646,317,84,385,
0,406,637,315,84,382,
0,403,632,312,100,377,
0,399,721,310,102,375,
0,396,710,307,100,371,
0,392,700,304,99,368,
0,390,690,302,99,364,
0,387,680,347,98,403,
0,413,671,343,97,398,
0,408,664,339,96,394,
0,404,655,335,96,391,
0,400,647,333,95,387,
0,396,639,330,126,383,
0,392,742,327,134,379,
0,388,731,324,132,376,
0,385,717,321,131,371,
1,384,707,318,129,368,
1,380,697,352,127,404,
2,396,687,348,127,400,
2,391,678,344,126,396,
3,387,668,340,125,391,
3,384,659,337,124,387,
3,380,678,334,144,384,
3,376,755,331,143,380,
3,374,743,327,141,376,
4,370,729,326,140,374,
4,369,719,322,138,369,
4,367,709,363,137,396,
4,402,699,359,135,391,
4,398,689,355,135,387,
4,392,679,351,134,383,
4,390,671,348,132,379,
5,385,753,345,159,376,
5,382,769,342,156,371,
5,377,757,339,155,368,
5,374,743,335,153,365,
5,371,732,333,152,361,
5,390,721,363,151,384,
5,417,711,359,150,380,
5,413,701,355,148,376,
5,408,691,352,147,371,
5,403,683,348,147,368,
5,399,796,345,152,364,
5,396,781,342,150,360,
5,391,769,339,149,358,
5,388,755,335,147,355,
5,384,743,334,147,402,
5,428,732,367,145,399,
5,422,722,363,144,395,
5,417,711,359,143,391,
5,412,702,355,142,386,
5,408,692,352,143,383,
5,403,796,349,155,379,
5,399,783,345,153,375,
5,396,771,343,152,371,
4,391,756,339,151,368,
4,388,745,339,150,401,
4,439,734,358,148,396,
5,433,723,354,147,392,
4,428,713,351,146,388,
4,423,704,347,145,384,
4,419,694,344,150,380,
4,415,798,340,150,376,
4,411,783,337,148,372,
4,407,772,335,147,369,
4,403,758,332,145,366,
4,399,747,371,144,379,
4,451,736,366,143,376,
4,446,725,362,142,371,
4,440,715,359,141,368,
4,435,704,355,140,364,
4,431,728,352,153,359,
3,427,793,348,152,357,
3,422,780,345,151,353,
3,417,768,343,149,352,
3,414,754,339,147,348,
3,410,743,360,147,391,
3,451,732,357,145,387,
3,447,721,353,143,384,
3,441,711,350,143,380,
3,436,702,346,142,376,
3,432,796,344,153,371,
3,428,798,339,152,368,
3,423,785,337,151,364,
3,419,773,334,150,361,
3,415,759,331,148,371,
3,416,748,350,147,398,
3,415,736,347,146,394,
3,411,726,344,144,390,
3,406,716,340,143,387,
3,402,705,336,143,382,
3,398,799,334,150,378,
3,395,785,331,148,375,
3,391,773,327,147,371,
3,387,761,324,146,367,
3,384,747,322,144,399,
3,381,736,350,143,396,
3,377,726,345,142,391,
3,374,715,343,141,387,
3,369,705,339,140,384,
3,367,696,335,143,379,
3,364,812,332,159,376,
3,360,798,329,157,371,
3,358,785,327,156,368,
3,390,770,323,155,365,
2,385,760,340,153,370,
2,381,748,341,152,366,
2,377,736,338,150,363,
2,374,726,335,149,359,
2,369,716,332,148,355,
2,366,706,327,164,352,
2,361,811,326,163,349,
2,359,797,322,161,346,
2,355,784,319,159,344,
2,376,769,317,159,340,
2,372,759,332,157,387,
2,368,747,327,156,384,
2,364,736,326,155,380,
2,361,726,323,154,376,
1,357,715,319,152,371,
1,354,758,316,159,368,
1,351,814,313,158,364,
1,348,800,311,156,360,
1,345,787,307,155,358,
1,343,772,305,153,354,
1,340,761,332,152,386,
1,374,750,327,151,382,
1,370,739,324,150,379,
1,367,728,321,148,375,
1,362,718,319,147,371,
1,359,824,316,158,367,
1,355,816,312,156,363,
1,352,803,310,156,359,
1,349,791,307,154,356,
1,345,775,304,152,353,
1,377,764,319,152,350,
1,377,752,317,151,347,
0,374,742,313,150,344,
1,370,731,311,148,341,
1,366,720,307,147,338,
1,361,829,305,152,335,
0,358,815,302,151,332,
0,355,801,300,150,329,
1,352,789,297,148,327,
1,348,774,295,147,345,
0,381,763,326,146,342,
0,376,751,322,145,338,
0,372,739,319,143,335,
0,369,729,316,143,332,
0,364,719,313,147,329,
0,361,835,310,159,326,
0,358,820,307,158,323,
0,354,807,305,156,319,
0,351,795,302,155,318,
0,348,780,312,154,355,
0,388,768,327,152,352,
0,384,755,324,151,348,
0,380,744,321,150,344,
0,376,734,319,148,342,
0,371,723,316,159,338,
0,368,831,312,158,335,
0,364,816,310,156,332,
0,360,803,307,155,327,
0,358,792,304,153,326,
0,355,776,332,152,351,
0,392,764,327,151,347,
0,388,753,324,150,344,
0,384,742,321,148,340,
0,381,731,319,147,337,
0,376,776,315,152,334,
0,372,817,312,151,330,
0,368,803,310,150,327,
0,365,792,307,148,324,
0,361,779,304,147,321,
0,367,764,335,146,344,
0,448,753,332,145,339,
0,441,742,329,143,336,
0,438,731,326,143,334,
0,432,721,323,142,331,
0,428,799,319,147,327,
0,423,786,316,145,323,
0,419,774,313,144,320,
0,415,762,311,143,318,
0,411,751,308,142,324,
0,463,737,340,140,331,
0,478,727,336,140,327,
0,472,716,334,139,324,
0,467,706,331,137,321,
0,462,696,327,136,319,
0,455,799,323,150,316,
0,451,786,320,148,312,
0,446,774,318,147,310,
0,441,761,315,146,307,
0,438,750,312,145,359,
0,499,736,327,143,354,
0,492,726,324,142,351,
0,487,716,321,141,348,
0,481,705,318,140,344,
0,476,696,316,142,342,
0,470,792,312,152,337,
0,464,779,309,150,334,
0,460,766,307,149,331,
0,455,755,304,147,327,
0,451,743,327,147,348,
0,499,729,324,145,344,
0,494,719,321,143,341,
0,487,709,319,143,338,
0,483,699,316,142,335,
0,478,704,313,163,332,
0,471,808,310,161,327,
0,466,795,307,159,326,
0,461,783,304,159,322,
0,456,771,302,158,319,
0,451,760,324,156,324,
0,477,745,321,155,321,
0,472,734,318,153,318,
0,466,723,315,152,316,
0,461,713,312,152,312,
0,456,782,310,167,310,
0,451,816,306,165,307,
0,446,803,304,163,304,
0,441,790,301,163,302,
0,438,777,299,161,300,
0,433,766,317,159,323,
0,430,752,314,158,319,
0,426,740,312,157,316,
0,422,729,308,156,313,
0,418,719,305,155,312,
0,415,840,303,172,308,
0,409,824,300,171,304,
0,406,811,297,169,302,
0,403,798,295,167,300,
0,399,785,292,167,312,
0,399,774,322,165,310,
0,395,760,319,163,307,
0,391,748,316,162,304,
0,387,737,313,161,301,
0,384,727,311,159,299,
0,381,840,307,165,295,
0,376,825,304,163,294,
0,374,812,302,162,291,
0,371,799,299,161,289,
0,368,787,295,159,300,
0,388,775,311,158,296,
0,384,760,308,157,294,
0,380,749,305,156,291,
0,376,738,303,155,289,
0,372,728,300,159,287,
0,369,840,297,163,284,
0,364,826,294,161,282,
0,361,813,291,160,280,
0,359,799,289,159,278,
0,355,787,317,158,305,
0,375,775,313,156,302,
0,371,760,311,155,299,
0,367,749,307,154,295,
0,364,738,305,152,294,
0,359,750,303,163,291,
0,355,835,300,161,288,
0,352,822,295,159,286,
0,350,808,294,159,283,
0,347,796,291,157,280,
0,344,783,315,156,301,
0,359,771,312,155,299,
0,356,757,309,153,295,
0,352,745,306,152,293,
0,349,735,304,151,291,
0,346,812,301,159,287,
0,342,831,297,157,285,
0,339,818,295,156,282,
0,336,805,292,155,280,
0,334,792,289,153,278,
0,336,780,293,152,276,
0,345,768,291,152,274,
0,342,754,287,150,271,
0,339,743,286,148,270,
0,335,732,284,147,268,
0,333,856,281,167,266,
0,329,840,280,167,263,
0,327,827,276,165,262,
0,326,814,275,163,260,
0,329,799,272,163,295,
0,342,788,278,161,291,
0,339,775,275,159,288,
0,335,761,273,158,286,
0,332,750,271,157,283,
0,329,739,269,156,281,
0,326,850,267,156,279,
0,323,835,265,155,275,
0,319,821,263,153,273,
0,318,807,260,153,271,
0,315,796,271,152,307,
0,363,783,299,151,303,
0,359,771,295,150,300,
0,355,757,294,148,297,
0,352,745,291,147,295,
0,349,736,288,155,292,
0,345,836,286,155,289,
0,342,822,284,153,287,
0,338,808,280,152,284,
0,335,796,278,152,281,
0,332,783,310,151,304,
0,373,771,305,149,301,
0,369,756,303,148,298,
0,365,745,300,147,295,
0,361,736,297,145,293,
0,359,752,295,147,290,
0,355,820,292,146,287,
0,351,807,289,145,286,
0,348,794,287,143,282,
0,344,782,284,143,280,
0,342,771,318,142,323,
0,377,758,314,140,319,
0,374,743,312,140,316,
0,370,734,308,138,313,
0,367,723,305,137,311,
0,363,814,303,156,307,
0,359,823,300,154,305,
0,355,808,297,152,303,
0,352,796,295,152,300,
0,348,783,291,150,296,
0,368,772,317,149,300,
0,380,760,314,148,297,
0,376,746,312,147,295,
0,372,736,308,145,292,
0,368,725,305,144,290,
0,366,838,303,147,287,
0,361,822,300,145,285,
0,358,809,297,144,283,
0,354,796,295,143,280,
0,351,783,292,142,304,
0,384,771,318,141,301,
0,379,760,315,140,299,
0,376,746,312,139,295,
0,371,736,309,137,293,
0,368,724,306,137,291,
0,364,838,304,145,287,
0,360,824,301,143,286,
0,356,809,297,143,283,
0,353,797,295,142,280,
0,350,785,304,140,327,
0,390,773,324,140,323,
0,385,761,321,138,320,
0,381,748,318,137,317,
0,377,736,315,135,315,
0,374,727,312,145,312,
0,370,834,310,145,309,
0,367,820,307,143,306,
0,362,807,304,143,304,
0,359,795,301,142,300,
0,355,782,311,140,327,
0,369,770,307,140,323,
0,366,759,304,138,319,
0,361,743,302,137,317,
0,358,734,299,135,313,
0,355,769,295,148,312,
0,352,831,294,147,308,
0,348,817,291,146,305,
0,344,804,288,144,303,
0,342,792,286,143,300,
0,339,780,321,142,316,
0,366,768,318,142,313,
0,361,756,315,140,311,
0,359,743,312,139,307,
0,355,732,309,137,305,
0,352,825,307,148,302,
0,348,825,304,147,300,
0,344,812,301,145,296,
0,340,799,297,144,295,
0,337,786,295,143,301,
0,354,775,328,142,321,
0,356,763,326,141,319,
0,352,751,322,140,316,
0,350,737,319,138,312,
0,345,728,316,137,310,
0,343,835,313,152,307,
0,339,819,311,151,304,
0,336,807,308,150,302,
0,333,793,304,148,299,
0,329,781,302,147,342,
0,333,769,329,146,337,
0,329,758,326,145,334,
0,327,747,323,143,331,
0,323,734,319,143,327,
0,321,723,317,142,325,
0,319,830,314,145,321,
0,316,816,312,143,319,
0,313,803,308,143,316,
0,311,791,305,142,313,
0,308,778,321,140,337,
0,343,767,329,140,334,
0,339,755,326,139,331,
0,335,743,323,137,327,
0,332,730,319,135,324,
0,329,719,317,155,322,
0,326,831,314,155,319,
0,323,817,312,153,316,
0,319,804,308,152,313,
0,317,792,305,151,311,
0,315,780,323,150,307,
0,337,768,319,148,304,
0,334,756,316,147,302,
0,331,745,313,145,299,
0,327,732,311,144,296,
0,324,775,308,151,295,
0,321,824,305,150,291,
0,318,811,303,148,289,
0,316,798,300,147,287,
0,313,785,297,146,284,
0,312,774,319,144,318,
0,341,761,316,143,314,
0,337,750,312,143,312,
0,335,739,310,141,308,
0,331,726,307,140,305,
0,327,836,304,150,303,
0,324,824,302,149,300,
0,322,811,299,147,297,
0,319,798,295,147,295,
0,316,785,293,145,304,
0,350,774,310,143,311,
0,345,761,307,143,307,
0,342,751,304,142,304,
0,339,739,302,141,302,
0,335,727,299,140,300,
0,332,824,295,146,295,
0,329,810,294,145,294,
0,326,797,291,143,291,
0,323,784,289,143,289,
0,319,772,286,142,327,
0,348,761,310,140,324,
0,345,750,307,140,321,
0,342,739,304,138,318,
0,338,728,301,137,315,
0,335,715,299,135,312,
0,332,826,295,135,310,
0,328,812,293,135,307,
0,326,799,291,135,304,
0,327,786,288,133,302,
0,323,774,313,132,313,
0,352,762,312,131,310,
0,348,751,310,130,307,
0,344,740,307,129,304,
0,341,729,304,128,302,
0,337,716,302,142,299,
0,335,814,299,140,295,
0,332,800,295,139,294,
0,327,787,294,137,291,
0,326,775,291,136,288,
0,321,764,323,135,328,
0,361,752,319,135,325,
0,358,742,316,134,322,
0,354,731,313,132,319,
0,351,719,310,131,316,
0,348,775,307,141,313,
0,344,807,305,140,310,
0,341,794,302,139,307,
0,338,782,300,137,305,
0,334,770,297,136,302,
0,332,759,324,135,337,
0,370,747,321,135,334,
0,366,736,318,133,331,
0,363,726,316,132,327,
0,359,715,312,131,324,
0,355,834,310,142,321,
0,352,819,307,141,319,
0,349,805,304,140,316,
0,345,792,302,139,313,
0,342,780,299,137,311,
0,380,768,337,136,321,
0,376,756,334,135,319,
0,372,745,331,134,316,
0,368,735,327,133,312,
0,364,724,324,132,310,
0,361,825,321,141,307,
0,358,812,319,140,304,
0,354,798,316,139,302,
0,351,785,313,137,300,
0,347,774,311,137,318,
0,387,762,321,135,335,
0,383,751,319,135,333,
0,379,739,316,134,329,
0,375,728,312,132,327,
0,371,719,310,131,323,
0,368,812,307,135,320,
0,364,799,304,135,318,
0,360,786,302,134,315,
0,358,774,300,132,312,
0,353,762,296,131,348,
0,379,751,322,130,343,
0,375,739,319,129,339,
0,371,729,316,127,336,
0,367,719,313,127,333,
0,364,709,311,127,330,
0,359,809,307,135,327,
0,356,796,304,133,324,
0,353,783,302,132,321,
0,350,771,300,131,319,
0,346,760,327,130,349,
0,391,748,331,129,344,
0,387,737,327,127,341,
0,384,727,324,127,337,
0,379,716,321,126,335,
0,376,777,319,135,332,
0,371,803,316,132,328,
0,368,790,312,131,326,
0,364,777,311,131,323,
0,361,766,307,129,319,
0,364,755,331,128,357,
0,387,743,327,127,352,
0,384,732,323,127,349,
0,380,721,320,126,345,
0,376,711,318,124,343,
0,372,803,315,145,339,
0,368,790,312,143,335,
0,364,776,309,142,333,
0,361,765,307,141,330,
0,358,753,304,140,327,
0,415,742,324,139,324,
0,411,731,319,137,321,
0,407,720,317,135,318,
0,402,711,313,135,316,
0,398,700,312,135,312,
0,394,785,308,142,310,
0,391,772,306,140,307,
0,387,760,303,139,304,
0,384,748,300,138,302,
0,380,737,297,137,332,
0,447,727,327,135,340,
0,441,716,323,135,336,
0,436,706,320,134,333,
0,432,696,318,133,329,
0,427,687,315,131,327,
0,423,778,312,140,323,
0,419,766,309,139,321,
0,415,753,306,138,318,
0,410,743,304,137,316,
0,407,732,302,135,342,
0,455,721,332,135,338,
0,450,711,329,134,334,
0,446,701,327,132,331,
0,440,691,323,131,327,
0,436,681,319,133,325,
0,432,788,317,148,321,
0,428,775,315,146,319,
0,423,764,312,145,316,
0,419,752,309,143,313,
0,415,742,331,143,363,
0,456,729,326,142,359,
0,451,719,323,140,355,
0,447,709,319,140,352,
0,441,700,316,139,348,
0,438,689,313,140,344,
0,432,754,312,139,342,
0,428,743,308,137,339,
0,423,732,305,135,335,
0,420,719,303,135,332,
0,415,711,339,134,344,
0,463,700,335,134,340,
0,457,690,332,132,335,
0,452,681,327,131,333,
0,448,671,325,130,330,
0,444,741,322,143,327,
0,439,764,319,143,324,
0,435,752,316,141,321,
0,430,741,313,140,319,
0,425,729,312,139,316,
0,427,719,337,137,353,
0,464,709,334,135,349,
0,459,699,331,135,344,
0,454,689,327,134,342,
0,449,679,324,133,339,
0,445,794,321,140,335,
0,440,777,319,138,332,
0,435,765,316,137,329,
0,431,753,313,135,327,
0,427,742,311,135,323,
0,476,731,331,134,321,
0,467,720,327,132,318,
0,463,711,324,131,315,
0,457,700,321,131,312,
0,452,691,318,129,310,
0,448,780,316,131,307,
0,443,764,312,130,304,
0,439,753,310,129,302,
0,435,741,307,127,299,
0,430,731,305,127,348,
0,451,719,335,126,344,
0,444,710,331,125,339,
0,440,700,327,124,335,
0,435,689,324,123,333,
0,431,680,322,147,329,
0,426,783,319,153,327,
0,422,768,316,152,323,
0,418,755,313,151,321,
0,414,743,311,149,318,
0,411,734,337,147,343,
0,432,722,333,147,339,
0,427,711,329,145,335,
0,422,702,326,144,332,
0,417,692,323,143,329,
0,414,702,319,145,326,
0,409,783,317,143,323,
0,406,767,314,142,319,
0,401,755,312,141,318,
0,398,743,308,140,314,
0,395,733,327,139,319,
0,437,722,323,137,316,
0,431,711,319,136,312,
0,427,702,316,135,310,
0,422,692,313,135,307,
0,418,761,311,140,304,
0,414,780,308,139,302,
0,409,765,305,137,299,
0,406,753,303,135,296,
0,401,742,300,135,300,
0,404,731,329,134,331,
0,408,720,327,133,327,
0,403,710,323,132,323,
0,399,700,319,131,321,
0,395,691,316,130,318,
0,391,786,313,137,315,
0,387,772,312,135,312,
0,384,758,308,135,310,
0,422,746,305,134,307,
0,422,736,303,133,344,
0,418,724,334,131,339,
0,414,713,331,131,335,
0,408,704,327,129,332,
0,404,694,323,129,328,
0,399,684,321,127,326,
0,396,793,318,135,323,
0,391,780,315,135,319,
0,388,765,312,133,317,
0,401,753,310,132,314,
0,396,743,312,131,349,
0,396,731,321,130,345,
0,391,720,319,129,342,
0,387,711,315,127,337,
0,384,700,312,127,335,
0,380,691,310,130,332,
0,376,784,307,132,327,
0,373,772,304,131,326,
0,370,758,301,130,323,
0,376,745,299,129,319,
0,372,736,326,127,359,
0,375,724,322,127,355,
0,371,713,319,126,351,
0,366,704,315,125,347,
0,363,694,312,124,344,
0,359,709,310,138,340,
0,357,775,307,136,337,
0,354,764,304,135,334,
0,352,749,301,135,331,
0,348,737,299,133,327,
0,345,728,324,132,333,
0,382,716,321,131,329,
0,377,706,319,130,327,
0,374,696,315,129,323,
0,369,687,312,127,319,
0,366,765,309,137,318,
0,363,752,306,136,315,
0,359,740,304,135,312,
0,356,727,301,134,310,
0,352,716,299,133,307,
0,376,705,328,131,304,
0,407,696,326,131,302,
0,401,686,322,129,300,
0,396,676,319,12StartUp!
126,423,771,327,121,326,
0,420,763,324,120,323,
0,417,755,323,120,321,
0,415,747,319,119,319,
0,412,760,319,125,317,
0,408,856,316,124,315,
0,405,844,314,124,312,
0,402,833,312,123,311,
0,399,823,310,121,308,
0,396,812,308,121,307,
0,393,799,305,120,308,
0,417,787,323,120,305,
0,412,775,319,118,303,
0,408,764,317,118,300,
0,403,752,314,116,297,
0,399,742,312,115,295,
0,396,856,308,115,292,
0,391,837,305,115,289,
0,387,824,304,113,287,
0,384,810,301,113,285,
0,381,798,315,112,313,
0,406,784,312,111,311,
0,400,772,307,111,307,
0,396,761,304,110,304,
0,391,750,302,109,302,
0,388,739,300,111,299,
0,385,849,297,110,295,
0,381,831,295,108,294,
0,377,817,292,108,291,
0,384,804,289,107,288,
0,380,796,315,107,312,
0,393,783,312,106,310,
0,388,771,308,105,306,
0,385,760,305,104,304,
0,381,748,303,103,300,
0,377,813,300,133,297,
0,374,877,297,131,295,
0,371,858,295,129,292,
0,368,844,292,129,290,
0,390,830,290,127,297,
0,415,816,331,127,331,
0,409,803,327,126,327,
0,403,792,323,125,323,
0,399,779,319,124,319,
0,396,768,318,123,318,
1,391,881,315,135,314,
1,387,899,312,135,312,
2,384,877,309,133,308,
3,381,862,307,132,306,
3,377,847,304,131,358,
3,412,833,345,130,352,
4,408,820,343,129,348,
4,401,807,338,127,344,
4,398,795,335,127,341,
5,393,783,332,126,339,
6,390,893,329,145,335,
6,386,886,327,144,332,
6,382,865,323,143,329,
6,379,851,319,142,326,
6,376,838,332,140,371,
7,411,824,359,139,367,
7,406,810,356,138,364,
7,400,798,352,136,359,
7,396,786,349,135,355,
7,392,774,345,147,352,
7,389,896,343,156,349,
7,385,883,339,155,345,
7,382,864,337,153,344,
7,377,850,334,152,339,
7,374,837,374,150,368,
7,408,822,369,149,364,
7,403,809,365,147,359,
7,398,796,361,147,355,
7,394,784,358,145,352,
7,391,798,355,153,350,
7,386,899,351,152,346,
7,383,886,348,151,343,
7,379,866,345,150,339,
7,376,851,342,148,337,
7,372,838,379,147,368,
7,412,824,375,145,364,
7,407,811,371,144,361,
7,403,798,366,143,357,
6,399,786,363,143,353,
6,395,860,359,150,350,
6,391,903,356,148,347,
6,387,891,353,147,344,
6,384,870,350,146,340,
6,380,856,347,144,345,
6,412,841,376,143,380,
6,414,827,372,143,376,
6,408,814,368,142,372,
6,404,801,364,140,368,
6,400,790,361,140,364,
6,396,890,358,153,360,
6,392,905,355,152,358,
6,388,893,352,151,354,
5,385,871,348,150,352,
5,382,856,345,148,369,
5,422,843,363,147,365,
5,416,829,359,146,361,
5,411,816,355,145,358,
5,407,803,352,143,354,
5,403,791,348,143,351,
5,399,896,345,161,348,
5,395,903,342,159,344,
5,391,887,339,158,342,
5,387,867,336,156,338,
5,384,853,356,155,354,
4,419,838,376,153,350,
5,414,824,371,152,347,
4,408,812,368,152,344,
4,404,799,364,150,339,
4,400,787,361,152,337,
4,396,899,358,155,334,
4,392,894,354,153,331,
4,388,875,352,152,327,
4,385,856,348,151,325,
4,382,843,367,149,353,
4,403,828,363,148,350,
4,399,816,359,147,346,
4,393,803,355,146,343,
4,390,791,352,144,339,
4,386,813,348,155,335,
4,382,900,345,153,332,
4,379,891,342,152,329,
4,375,870,339,151,327,
4,371,855,335,149,324,
4,369,841,368,147,327,
3,393,827,365,147,324,
4,389,814,361,145,322,
4,384,801,358,144,319,
4,380,790,353,143,316,
4,377,867,351,153,313,
4,373,902,348,152,311,
3,369,888,344,151,307,
3,366,867,342,149,305,
3,363,852,338,148,327,
3,396,839,366,147,346,
3,391,825,361,145,343,
3,387,812,359,144,339,
3,382,799,355,143,335,
3,378,787,351,142,332,
3,375,892,348,157,329,
3,371,906,344,156,326,
3,367,904,342,154,323,
4,364,879,339,153,319,
3,360,864,335,152,351,
3,396,849,367,151,347,
3,391,835,363,150,344,
3,387,822,359,148,339,
3,383,809,355,147,337,
3,379,797,352,146,332,
3,375,899,348,152,329,
3,371,908,345,152,327,
3,368,905,343,150,323,
3,364,879,339,148,321,
3,361,864,358,147,350,
3,392,849,363,146,347,
3,388,835,359,145,343,
3,384,822,355,143,339,
3,380,809,352,143,335,
3,376,797,348,152,332,
3,372,902,345,150,329,
3,369,908,342,149,327,
3,365,895,339,147,323,
3,361,871,335,146,320,
3,359,858,374,145,343,
3,393,843,369,143,339,
3,389,829,366,143,335,
3,385,816,363,142,332,
2,380,803,358,140,329,
2,376,845,355,143,326,
2,372,903,352,142,323,
2,369,907,348,141,319,
3,366,890,345,140,318,
2,363,869,343,139,315,
2,366,855,359,137,361,
2,399,840,356,136,358,
1,395,827,353,135,354,
2,391,814,350,135,351,
2,385,801,345,134,348,
1,382,880,343,140,344,
2,378,905,339,140,340,
1,375,903,337,138,337,
2,371,881,334,137,334,
1,368,862,331,135,359,
1,398,847,355,135,371,
1,393,834,352,134,368,
1,389,820,348,132,364,
1,385,807,344,131,359,
1,380,796,340,131,356,
1,376,893,337,141,352,
1,373,905,335,140,350,
1,369,899,332,139,346,
1,366,878,328,137,344,
1,363,860,327,136,342,
1,390,845,363,135,338,
0,385,831,359,134,335,
1,381,818,356,134,332,
0,377,805,353,132,329,
0,372,793,349,131,327,
1,369,898,345,135,323,
0,366,903,343,135,319,
1,362,885,339,134,318,
1,359,870,336,132,315,
1,355,852,352,131,342,
0,387,837,351,130,338,
0,383,824,348,129,335,
0,379,811,344,129,332,
0,375,799,341,127,327,
0,370,798,337,140,326,
0,367,902,334,138,321,
0,363,908,332,137,319,
0,359,899,328,135,316,
0,356,878,326,135,313,
0,353,859,356,134,311,
0,377,845,352,132,308,
0,374,831,349,131,305,
0,370,817,346,130,303,
0,367,805,343,129,300,
0,362,860,339,135,299,
0,359,904,335,135,295,
0,355,909,333,134,293,
0,352,903,329,132,291,
0,349,880,327,131,288,
0,363,862,345,130,324,
0,377,847,343,129,321,
0,374,833,339,127,319,
0,369,820,335,127,316,
0,366,807,333,126,312,
0,361,888,329,129,309,
0,358,906,327,127,307,
0,355,910,323,127,304,
0,352,900,321,126,301,
0,348,878,318,124,330,
0,388,860,355,124,329,
0,384,845,351,123,326,
0,380,831,348,121,323,
0,376,818,344,121,319,
0,372,806,342,120,317,
0,368,896,337,129,313,
0,364,908,334,127,311,
0,361,910,332,127,307,
0,358,897,327,126,305,
0,354,876,326,125,321,
0,384,857,355,124,318,
0,380,844,352,123,315,
0,376,830,348,121,312,
0,371,816,344,120,308,
0,368,804,342,120,306,
0,364,900,337,126,303,
0,359,908,335,125,300,
0,357,901,332,124,297,
0,354,879,329,123,295,
0,351,864,352,122,307,
0,377,846,348,121,304,
0,374,831,344,120,300,
0,369,819,342,120,298,
0,366,807,339,119,295,
0,362,807,335,125,293,
0,358,903,332,124,289,
0,355,908,328,123,287,
0,352,896,326,121,285,
0,348,876,323,120,283,
0,345,862,352,120,333,
0,373,843,348,119,329,
0,369,829,344,118,327,
0,366,816,340,116,323,
0,362,803,337,116,319,
0,359,868,335,120,317,
0,355,904,331,120,313,
0,351,908,327,119,311,
0,348,891,326,118,308,
0,344,873,322,116,305,
0,368,859,361,115,327,
0,376,840,358,115,324,
0,371,827,355,114,321,
0,368,814,352,113,318,
0,364,801,348,112,315,
0,359,889,345,120,312,
0,356,906,340,119,308,
0,353,908,337,118,306,
0,350,888,335,117,304,
0,347,871,332,115,351,
0,368,857,352,115,352,
0,364,839,348,114,348,
0,359,825,345,113,344,
0,356,813,342,112,342,
0,353,799,339,112,339,
0,349,896,335,131,335,
0,345,907,332,130,332,
0,343,904,329,128,327,
0,339,883,326,127,326,
0,336,867,324,127,352,
0,371,852,352,126,348,
0,367,835,349,124,344,
0,363,822,345,124,342,
0,359,809,343,123,339,
0,355,796,339,124,335,
0,352,900,335,125,332,
0,348,908,332,124,327,
0,345,902,329,123,326,
0,342,880,327,122,323,
0,339,864,348,121,358,
0,369,849,344,120,354,
0,366,832,340,120,351,
0,362,819,337,118,348,
0,359,807,334,117,344,
0,355,824,332,126,341,
0,351,903,327,124,337,
0,348,908,324,124,334,
0,344,899,321,123,331,
0,342,878,319,121,327,
0,338,864,355,120,339,
0,371,847,352,120,336,
0,368,831,348,118,333,
0,364,817,344,117,329,
0,360,805,342,116,327,
0,357,871,339,118,324,
0,353,904,335,117,321,
0,350,907,332,115,318,
0,347,888,328,115,316,
0,344,871,326,114,319,
0,371,857,358,113,352,
0,369,839,353,112,349,
0,366,826,351,111,345,
0,363,813,348,111,343,
0,359,800,344,110,339,
0,355,891,340,115,335,
0,351,906,337,115,333,
0,348,906,334,114,329,
0,344,885,331,113,326,
0,342,869,327,112,356,
0,363,855,339,111,352,
0,359,836,336,110,348,
0,355,824,334,109,345,
0,352,811,331,108,342,
0,348,798,327,108,339,
0,344,897,325,123,335,
0,340,907,322,121,332,
0,337,901,319,120,329,
0,335,880,316,120,327,
0,332,864,322,119,358,
0,364,849,344,118,353,
0,359,831,339,116,350,
0,356,819,337,115,347,
0,353,807,334,115,344,
0,350,794,331,118,339,
0,347,901,327,120,337,
0,342,908,324,118,334,
0,339,895,321,117,329,
0,335,876,318,116,327,
0,333,861,352,115,355,
0,364,847,348,115,352,
0,359,829,344,113,348,
0,356,816,342,112,345,
0,353,803,339,112,342,
0,350,827,335,115,339,
0,346,903,332,113,335,
0,343,908,327,113,332,
0,339,892,326,112,329,
0,335,873,323,111,326,
0,333,860,347,110,323,
0,361,844,344,110,319,
0,358,828,340,108,318,
0,354,815,337,108,315,
0,351,802,334,107,312,
0,348,875,331,123,310,
0,344,904,327,121,307,
0,340,907,324,120,304,
0,337,888,321,120,302,
0,334,871,319,119,310,
0,365,856,352,118,318,
0,360,843,348,117,315,
0,357,825,345,115,312,
0,353,812,343,115,308,
0,350,799,339,114,306,
0,347,892,335,122,303,
0,344,905,333,121,300,
0,339,902,329,120,297,
0,336,881,327,119,295,
0,333,865,323,118,333,
0,361,851,342,118,329,
0,358,837,338,116,326,
0,353,820,335,115,323,
0,350,807,332,114,319,
0,347,795,329,113,317,
0,344,898,326,120,314,
0,340,908,323,118,312,
0,336,911,319,117,308,
0,333,904,317,116,305,
0,331,880,329,115,310,
0,364,864,339,115,306,
0,359,850,336,113,304,
0,355,833,333,112,301,
0,352,820,329,112,298,
0,349,807,327,121,295,
0,345,902,324,120,293,
0,343,908,321,120,291,
0,339,902,318,119,288,
0,335,880,315,118,286,
0,332,865,343,116,318,
0,366,850,339,115,315,
0,363,836,335,115,312,
0,359,819,332,113,309,
0,355,807,329,112,306,
0,352,838,327,129,304,
0,348,903,323,127,300,
0,345,906,320,126,298,
0,342,887,317,126,295,
0,338,870,315,124,292,
0,342,856,344,124,337,
0,368,841,341,123,333,
0,364,828,337,121,329,
0,360,812,335,120,327,
0,358,799,332,120,323,
0,354,879,327,127,321,
0,351,905,326,127,318,
0,347,903,323,126,315,
0,344,881,319,124,312,
0,339,866,316,124,327,
0,371,851,343,123,335,
0,367,838,339,121,332,
0,363,824,335,120,329,
0,359,808,332,120,326,
0,355,796,329,119,323,
0,352,895,327,125,319,
0,349,907,323,124,318,
0,345,908,321,123,315,
0,342,888,318,121,312,
0,339,871,315,120,334,
0,367,857,348,120,329,
0,363,843,345,119,327,
0,359,829,342,118,323,
0,355,812,339,116,319,
0,352,799,335,116,318,
0,348,898,332,129,314,
0,345,905,329,128,312,
0,342,889,327,127,309,
0,338,872,323,126,305,
0,335,857,351,126,344,
0,371,844,355,124,339,
0,368,830,352,123,336,
0,364,816,348,122,333,
0,359,801,345,121,330,
0,356,789,343,128,327,
0,353,901,339,127,323,
0,350,905,335,126,321,
0,347,888,333,125,318,
0,343,871,329,124,315,
0,339,857,348,123,332,
0,376,843,344,122,329,
0,371,829,340,121,326,
0,368,816,337,120,323,
0,364,799,334,120,319,
0,359,849,332,123,317,
0,358,903,327,121,314,
0,353,904,326,120,312,
0,351,884,323,120,308,
0,347,868,319,119,305,
0,359,855,342,118,352,
0,376,839,338,116,348,
0,372,825,335,115,344,
0,369,813,332,115,342,
0,365,797,328,113,338,
0,361,881,326,117,335,
0,358,904,323,115,332,
0,355,895,319,115,329,
0,352,876,317,114,326,
0,348,860,313,113,332,
0,379,846,339,112,334,
0,375,832,335,111,331,
0,371,819,332,110,327,
0,368,807,328,110,324,
0,364,792,326,109,321,
0,359,894,323,126,319,
0,356,905,319,125,316,
0,353,896,317,124,313,
0,349,876,315,123,311,
0,345,861,312,122,361,
0,361,847,348,120,358,
0,358,833,344,120,353,
0,354,819,342,119,351,
0,351,807,338,118,347,
0,348,792,335,118,344,
0,344,899,332,120,340,
0,341,905,329,120,337,
0,337,891,326,119,335,
0,334,873,323,118,332,
0,331,859,347,117,335,
0,369,844,345,115,331,
0,364,831,342,115,327,
0,361,817,338,114,325,
0,358,804,335,113,322,
0,354,790,332,123,319,
0,351,902,329,121,316,
0,348,899,326,121,313,
0,344,879,323,120,312,
0,340,864,320,119,308,
0,337,850,350,118,332,
0,364,835,345,117,328,
0,361,822,342,116,326,
0,358,808,339,115,323,
0,353,796,335,114,319,
0,351,843,333,123,316,
0,347,903,329,121,313,
0,344,894,327,120,311,
0,340,876,323,120,308,
0,336,860,321,119,305,
0,355,847,343,118,335,
0,369,831,339,116,332,
0,365,819,335,115,328,
0,361,806,333,115,326,
0,358,793,329,114,323,
0,355,884,327,123,319,
0,352,905,324,121,317,
0,348,897,321,120,314,
0,344,878,319,120,312,
0,340,862,316,119,308,
0,379,847,343,118,335,
0,375,833,339,116,332,
0,371,820,335,116,328,
0,367,807,333,115,326,
0,364,792,329,114,323,
0,359,895,327,126,319,
0,356,903,323,125,317,
0,353,886,321,124,314,
0,350,870,318,123,312,
0,345,856,316,122,329,
0,366,841,342,121,334,
0,361,828,338,120,331,
0,358,815,335,119,327,
0,355,801,332,118,323,
0,352,787,329,117,321,
0,348,899,326,120,318,
0,344,902,323,120,316,
0,341,882,319,119,312,
0,352,867,318,118,310,
0,348,852,315,116,338,
0,371,838,342,115,333,
0,368,824,338,115,330,
0,364,812,335,113,327,
0,360,799,332,113,323,
0,357,797,329,113,321,
0,353,902,326,120,318,
0,351,897,323,118,315,
0,347,878,319,118,312,
0,355,862,318,116,310,
0,352,849,346,115,346,
0,371,834,341,115,342,
0,368,821,338,113,338,
0,364,807,335,112,335,
0,359,796,332,112,332,
0,357,855,329,115,328,
0,353,903,326,113,326,
0,351,896,323,112,323,
0,347,876,319,112,319,
0,344,861,317,111,317,
0,355,847,335,110,344,
0,352,833,332,109,339,
0,348,819,328,108,335,
0,344,807,326,108,333,
0,342,794,323,107,329,
0,338,886,319,121,327,
0,335,903,317,120,323,
0,332,888,313,119,321,
0,329,871,312,118,318,
0,327,856,309,118,315,
0,367,842,343,116,348,
0,362,828,339,115,344,
0,359,815,336,115,340,
0,355,802,333,114,337,
0,352,790,329,113,334,
0,348,895,327,121,331,
0,344,901,324,120,327,
0,342,882,321,119,325,
0,339,867,319,119,321,
0,335,851,316,118,335,
0,364,838,337,116,335,
0,359,824,335,115,331,
0,356,811,332,114,327,
0,353,799,327,113,324,
0,350,786,326,112,321,
0,347,899,323,115,319,
0,344,897,319,114,316,
0,339,878,316,113,313,
0,337,863,314,112,311,
0,334,847,312,111,345,
0,364,834,342,110,342,
0,359,820,339,110,337,
0,356,807,335,108,334,
0,353,796,332,108,331,
0,349,783,329,118,327,
0,346,901,326,126,326,
0,343,890,323,124,322,
0,339,873,320,124,319,
0,336,858,318,123,316,
0,333,844,350,121,321,
0,363,830,344,120,319,
0,359,816,342,120,315,
0,355,803,338,119,312,
0,352,792,335,118,310,
0,349,801,332,127,307,
0,345,903,329,126,304,
0,343,898,326,124,301,
0,339,878,323,123,299,
0,335,862,319,122,296,
0,333,848,345,121,334,
0,362,834,340,120,330,
0,359,820,337,120,327,
0,355,807,335,118,323,
0,352,796,332,118,319,
0,348,856,327,120,317,
0,344,903,326,119,314,
0,342,888,322,118,312,
0,339,871,319,117,308,
0,335,856,317,116,307,
0,361,841,335,115,326,
0,356,828,331,114,322,
0,353,814,327,113,319,
0,349,801,324,112,316,
0,345,790,321,112,313,
0,343,887,319,113,310,
0,339,903,316,112,307,
0,335,884,313,111,304,
0,334,869,311,111,302,
0,331,854,307,110,332,
0,358,839,329,109,327,
0,353,827,326,108,323,
0,350,814,323,107,319,
0,347,800,319,107,317,
0,343,788,317,105,314,
0,339,895,314,123,312,
0,336,896,312,121,308,
0,333,876,308,120,306,
0,331,861,306,119,303,
0,327,847,316,118,337,
0,355,832,335,118,334,
0,352,819,331,116,329,
0,348,807,327,115,326,
0,344,794,324,115,323,
0,341,782,321,119,319,
0,337,899,319,124,317,
0,334,894,316,123,314,
0,331,875,312,122,312,
0,327,860,310,121,308,
0,326,847,341,120,337,
0,358,831,337,119,334,
0,353,819,333,118,329,
0,349,806,329,118,327,
0,345,793,327,116,323,
0,343,801,323,120,320,
0,339,900,321,119,318,
0,335,885,318,118,315,
0,333,869,316,116,312,
0,330,854,312,115,310,
0,327,840,345,115,342,
0,357,826,342,114,338,
0,352,813,337,113,334,
0,349,800,334,112,331,
0,345,788,331,111,327,
0,343,857,327,116,324,
0,339,902,325,115,321,
0,335,881,322,114,319,
0,332,866,319,113,316,
0,329,851,316,112,316,
0,361,837,345,111,331,
0,356,824,343,110,327,
0,352,810,338,109,323,
0,348,798,335,108,319,
0,344,785,332,108,318,
0,342,888,329,118,315,
0,338,903,326,116,312,
0,335,881,323,115,309,
0,332,866,319,115,307,
0,329,851,318,113,304,
0,360,838,345,112,301,
0,355,824,343,112,299,
0,352,811,338,111,295,
0,348,798,335,110,293,
0,345,786,332,109,291,
0,342,896,329,120,288,
0,339,899,326,118,286,
0,335,875,323,117,284,
0,332,860,320,115,281,
0,329,847,335,115,329,
0,364,831,355,114,326,
0,359,819,352,113,322,
0,355,806,348,112,319,
0,352,793,344,112,316,
0,348,782,342,119,312,
0,345,899,338,119,310,
0,342,892,335,118,307,
0,338,870,332,117,304,
0,335,855,329,115,302,
0,332,841,353,115,332,
0,359,827,350,114,328,
0,355,814,347,113,326,
0,352,801,343,112,321,
0,348,788,339,111,319,
0,344,807,336,120,316,
0,341,898,333,119,312,
0,338,882,329,118,310,
0,335,863,327,117,307,
0,332,848,324,116,304,
0,329,835,338,115,351,
0,360,821,335,114,347,
0,356,807,332,113,344,
0,353,796,327,112,339,
0,349,783,324,111,336,
0,346,864,322,118,333,
0,343,899,319,117,330,
0,339,882,316,116,327,
0,335,863,313,115,324,
0,333,847,312,114,327,
0,355,834,337,113,333,
0,352,820,334,112,330,
0,347,807,331,111,327,
0,344,795,327,110,323,
0,340,783,324,110,319,
0,337,888,321,115,318,
0,334,896,319,113,315,
0,331,873,316,113,312,
0,327,858,313,112,309,
0,325,844,311,111,335,
0,359,830,335,110,330,
0,355,817,332,109,327,
0,350,804,327,108,323,
0,347,792,324,107,319,
0,344,780,321,107,318,
0,340,896,319,119,314,
0,337,892,316,118,312,
0,334,870,313,117,308,
0,331,856,311,115,306,
0,327,841,332,115,334,
0,359,827,336,114,329,
0,355,814,334,113,327,
0,352,801,330,112,323,
0,348,788,326,111,319,
0,344,777,323,118,317,
0,342,901,319,118,314,
0,338,901,318,116,312,
0,335,877,315,115,308,
0,332,861,312,115,305,
0,329,847,344,113,352,
0,353,833,340,113,348,
0,350,819,337,112,345,
0,345,807,334,111,342,
0,342,795,330,110,337,
0,339,826,327,110,335,
0,335,901,324,109,332,
0,332,888,321,108,327,
0,329,867,319,107,326,
0,327,852,316,106,323,
0,337,839,342,105,348,
0,359,824,339,105,344,
0,356,812,335,103,342,
0,352,799,332,103,339,
0,348,787,327,103,335,
0,345,871,326,121,332,
0,342,899,322,120,327,
0,339,882,319,120,326,
0,335,863,317,118,323,
0,332,848,313,117,337,
0,364,834,345,116,338,
0,359,821,342,115,335,
0,356,807,339,114,332,
0,352,796,335,113,328,
0,348,783,332,112,325,
0,345,891,328,123,322,
0,342,896,326,121,319,
0,339,877,323,120,316,
0,335,859,319,120,313,
0,332,844,317,119,327,
0,359,830,337,118,323,
0,356,816,335,116,320,
0,353,803,332,115,318,
0,349,792,327,115,315,
0,345,780,324,114,312,
0,342,897,321,120,308,
0,339,895,319,118,306,
0,335,876,316,117,304,
0,332,857,313,116,301,
0,329,844,339,115,323,
0,366,830,340,114,319,
0,363,816,336,113,316,
0,359,803,334,112,313,
0,355,792,329,112,311,
0,351,780,327,120,307,
0,348,899,323,118,304,
0,344,887,321,117,302,
0,341,871,318,115,300,
0,338,852,316,115,296,
0,335,838,344,113,337,
0,364,824,340,113,334,
0,359,811,336,112,331,
0,356,799,334,111,327,
0,352,786,329,110,324,
0,349,829,327,120,319,
0,345,897,323,120,317,
0,342,880,320,119,315,
0,339,864,318,118,312,
0,335,847,316,116,309,
0,348,831,346,115,348,
0,362,819,343,114,345,
0,359,806,339,113,342,
0,355,793,335,112,339,
0,351,782,332,112,335,
0,348,877,329,123,332,
0,344,900,326,121,327,
0,340,883,323,120,326,
0,337,867,320,120,323,
0,335,849,318,119,321,
0,365,835,352,117,318,
0,359,822,349,116,316,
0,357,808,345,115,312,
0,353,796,343,114,310,
0,349,783,339,113,307,
0,346,892,335,127,304,
0,343,896,332,127,302,
0,339,877,329,126,299,
0,336,862,327,125,295,
0,333,844,326,124,327,
0,374,830,360,123,324,
0,370,817,357,121,321,
0,366,804,354,120,318,
0,363,792,351,120,316,
0,358,780,347,120,312,
0,355,897,344,127,309,
0,352,894,340,127,306,
0,348,875,337,125,304,
0,344,860,334,124,301,
0,342,844,350,123,321,
0,368,828,345,122,318,
0,364,815,342,121,315,
0,359,803,339,120,312,
0,356,790,335,119,310,
0,352,779,332,124,306,
0,349,899,329,123,303,
0,345,886,326,122,300,
0,343,870,323,121,297,
0,339,855,321,120,295,
0,336,838,347,119,337,
0,359,824,343,118,334,
0,355,811,339,117,331,
0,352,798,336,116,327,
0,348,785,334,115,324,
0,344,836,329,120,319,
0,340,899,327,119,318,
0,337,881,323,118,315,
0,335,865,321,117,312,
0,332,851,318,116,309,
0,356,833,342,115,309,
0,352,819,337,114,306,
0,348,807,335,113,304,
0,345,795,332,112,301,
0,342,783,327,111,299,
0,337,881,324,122,295,
0,335,900,321,121,292,
0,332,881,319,120,290,
0,329,866,316,120,287,
0,327,851,313,118,329,
0,347,834,343,117,325,
0,344,820,339,115,321,
0,339,807,336,115,319,
0,336,795,334,114,316,
0,333,783,331,113,312,
0,329,893,327,118,309,
0,326,888,323,116,306,
0,323,871,320,115,304,
0,320,856,318,115,301,
0,318,842,319,114,342,
0,353,825,344,112,338,
0,350,812,340,112,335,
0,346,799,337,111,332,
0,343,787,334,110,328,
0,339,775,331,112,326,
0,335,897,327,118,321,
0,332,887,323,117,319,
0,329,870,321,116,316,
0,327,856,318,115,313,
0,323,841,344,114,332,
0,354,824,339,113,328,
0,351,811,335,112,326,
0,347,799,333,112,323,
0,344,786,329,111,319,
0,339,790,327,131,317,
0,335,899,323,129,313,
0,333,886,319,127,310,
0,329,870,318,127,307,
0,327,855,315,126,305,
0,324,842,344,124,348,
0,353,824,340,124,344,
0,350,811,337,123,340,
0,345,798,334,121,337,
0,343,785,331,120,334,
0,339,851,327,126,332,
0,335,897,324,124,327,
0,332,880,321,124,324,
0,329,864,319,122,321,
0,327,849,316,121,319,
0,361,835,339,120,338,
0,368,819,336,119,335,
0,364,806,333,118,332,
0,359,793,330,117,328,
0,356,781,327,116,326,
0,352,885,324,126,323,
0,348,897,319,124,319,
0,345,878,318,124,316,
0,342,863,315,123,313,
0,339,848,312,121,350,
0,373,835,342,120,345,
0,368,817,338,120,342,
0,365,804,335,119,339,
0,361,792,332,118,335,
0,358,780,328,116,332,
0,353,895,326,121,329,
0,350,896,322,120,326,
0,347,876,319,120,323,
0,344,861,316,119,319,
0,340,847,327,118,353,
0,368,830,343,116,350,
0,364,816,339,115,346,
0,359,803,335,115,343,
0,356,792,333,113,339,
0,352,780,330,120,336,
0,348,899,327,120,333,
0,345,893,323,120,329,
0,342,875,319,119,327,
0,339,860,318,118,323,
0,335,846,340,116,322,
0,368,828,336,115,319,
0,364,815,334,115,316,
0,359,802,330,113,313,
0,356,790,327,113,311,
0,353,805,324,119,307,
0,349,900,321,118,305,
0,345,889,318,116,302,
0,343,872,315,115,300,
0,339,857,312,115,297,
0,338,844,335,114,313,
0,364,826,332,113,310,
0,361,813,327,112,307,
0,358,800,325,111,304,
0,354,788,322,110,302,
0,351,861,319,119,299,
0,346,900,316,118,295,
0,344,883,313,116,293,
0,339,867,310,115,291,
0,341,854,307,115,315,
0,375,839,336,114,332,
0,369,822,333,113,328,
0,366,809,330,112,326,
0,363,796,327,111,323,
0,359,783,324,110,319,
0,355,887,321,119,316,
0,352,892,318,118,313,
0,348,873,315,117,311,
0,364,860,312,116,307,
0,362,845,310,115,332,
0,366,831,337,115,327,
0,362,814,334,113,324,
0,359,801,331,112,321,
0,355,789,327,111,319,
0,352,777,324,111,316,
0,348,895,321,126,312,
0,344,886,318,124,310,
0,340,870,316,124,307,
0,355,855,312,123,304,
0,351,840,334,121,347,
0,364,827,337,120,344,
0,359,811,334,120,339,
0,356,798,331,118,336,
0,353,785,327,118,333,
0,350,774,324,126,330,
0,347,897,321,124,327,
0,343,883,318,124,324,
0,339,867,315,123,320,
0,347,853,312,121,318,
0,343,839,344,120,324,
0,359,825,340,120,321,
0,355,808,337,119,318,
0,352,796,334,118,315,
0,348,784,331,116,312,
0,345,809,327,120,310,
0,342,897,325,120,307,
0,337,881,321,119,304,
0,335,865,319,118,301,
0,334,851,316,116,299,
0,343,837,344,115,317,
0,354,823,339,115,315,
0,351,807,336,113,312,
0,347,794,333,113,308,
0,344,782,331,112,305,
0,340,865,327,116,304,
0,337,896,324,115,300,
0,333,878,319,115,297,
0,331,863,318,114,295,
0,338,848,315,112,315,
0,361,834,339,112,319,
0,358,820,336,111,316,
0,353,805,333,110,313,
0,350,792,330,109,310,
0,347,780,327,108,307,
0,344,888,323,126,305,
0,340,891,321,124,302,
0,335,873,318,124,300,
0,335,857,315,123,295,
0,333,844,312,121,345,
0,353,830,335,120,342,
0,350,816,332,120,338,
0,347,799,329,119,335,
0,344,788,327,118,332,
0,339,776,323,117,328,
0,337,895,320,125,326,
0,334,883,318,124,323,
0,329,867,314,124,319,
0,327,853,312,122,316,
0,324,839,344,121,347,
0,352,825,339,120,344,
0,348,812,335,120,339,
0,345,796,332,118,336,
0,342,783,329,117,334,
0,339,772,327,125,331,
0,335,897,323,124,327,
0,332,881,320,123,324,
0,327,866,317,123,320,
0,326,851,315,121,318,
0,323,838,344,120,348,
0,344,824,340,119,344,
0,342,811,337,118,340,
0,338,795,335,117,337,
0,335,783,332,116,335,
0,332,827,327,126,332,
0,327,900,326,125,327,
0,326,885,323,124,326,
0,321,869,319,123,322,
0,334,854,316,122,319,
0,338,840,350,121,355,
0,335,826,346,120,352,
0,332,814,344,119,348,
0,327,798,339,118,345,
0,325,785,336,117,342,
0,322,871,334,122,339,
0,319,894,331,121,335,
0,316,876,327,120,332,
0,327,861,323,119,328,
0,352,846,321,118,339,
0,364,831,347,117,335,
0,359,819,344,116,332,
0,355,806,340,115,329,
0,352,790,337,114,327,
0,348,778,334,113,323,
0,345,891,331,124,320,
0,342,892,327,122,318,
0,339,874,325,121,315,
0,367,860,321,120,312,
0,364,845,325,120,334,
0,365,831,352,118,331,
0,361,817,348,118,327,
0,358,804,344,116,324,
0,354,789,342,115,321,
0,351,777,339,116,319,
0,348,896,335,127,316,
0,344,883,332,127,312,
0,341,867,329,125,310,
0,394,853,326,124,306,
0,390,839,350,124,326,
0,386,825,345,122,323,
0,382,812,342,121,319,
0,379,799,339,120,316,
0,375,783,335,120,313,
0,371,772,333,120,311,
0,368,896,329,119,307,
0,364,880,327,118,305,
0,359,864,323,116,303,
0,369,849,319,115,300,
0,366,836,350,115,331,
0,363,822,346,113,327,
0,359,808,343,113,324,
0,355,796,339,112,321,
0,352,782,335,111,318,
0,349,830,334,116,316,
0,346,896,331,115,312,
0,343,879,327,114,310,
0,339,864,324,113,307,
0,337,848,321,112,313,
0,352,835,350,111,348,
0,347,821,347,110,344,
0,344,807,344,110,340,
0,340,796,340,108,337,
0,337,780,337,108,335,
0,334,880,334,118,332,
0,331,899,331,117,327,
0,327,880,327,116,326,
0,324,865,325,115,323,
0,322,851,321,114,337,
0,331,836,345,113,334,
0,327,823,342,112,331,
0,324,810,338,112,327,
0,321,795,335,111,324,
0,319,782,332,110,321,
0,316,892,329,121,318,
0,313,888,326,120,316,
0,311,871,323,120,312,
0,315,857,320,119,310,
0,312,843,319,118,340,
0,332,828,335,116,336,
0,328,816,333,115,333,
0,326,802,329,115,330,
0,322,790,327,114,327,
0,319,775,323,116,324,
0,316,896,320,120,321,
0,313,881,318,119,318,
0,311,866,315,118,316,
0,316,851,312,117,312,
0,313,837,339,116,309,
0,335,824,335,115,307,
0,332,810,332,115,304,
0,329,798,328,113,301,
0,326,782,326,112,299,
0,323,779,323,121,295,
0,319,896,319,120,294,
0,317,880,317,119,291,
0,313,864,314,118,289,
0,312,849,312,116,287,
0,310,836,346,115,294,
0,337,822,342,115,291,
0,334,808,339,114,287,
0,331,796,335,113,286,
0,327,781,332,112,284,
0,324,840,329,127,281,
0,321,893,327,125,280,
0,319,875,323,124,276,
0,316,860,321,123,275,
0,312,845,318,121,272,
0,332,831,343,121,294,
0,327,817,339,120,291,
0,325,804,335,119,287,
0,322,792,333,118,286,
0,319,777,329,117,283,
0,316,881,327,123,280,
0,312,892,323,121,278,
0,310,873,321,120,275,
0,307,859,318,120,273,
0,304,844,316,119,271,
0,335,830,344,118,312,
0,332,817,341,116,309,
0,328,804,337,115,306,
0,326,792,335,115,303,
0,323,776,332,114,300,
0,319,894,328,121,297,
0,316,893,326,120,295,
0,313,875,323,120,292,
0,312,860,319,119,291,
0,307,846,319,118,324,
0,335,831,327,116,326,
0,331,818,323,115,322,
0,327,805,320,115,319,
0,324,792,318,114,316,
0,321,778,315,113,313,
0,319,898,312,115,310,
0,316,889,310,115,307,
0,312,871,307,113,305,
0,310,857,304,113,302,
0,307,843,342,112,312,
0,342,829,337,111,308,
0,338,816,334,110,305,
0,335,803,331,110,303,
0,332,791,327,108,300,
0,327,797,325,113,297,
0,326,896,321,119,295,
0,322,879,319,118,292,
0,319,864,316,117,290,
0,317,849,313,115,287,
0,313,836,343,115,321,
0,352,822,339,113,317,
0,348,808,335,113,313,
0,345,796,332,112,311,
0,342,783,329,111,308,
0,339,854,327,111,305,
0,335,896,323,110,302,
0,332,879,320,109,300,
0,329,864,318,108,297,
0,327,849,315,108,295,
0,351,835,334,107,322,
0,347,821,331,106,318,
0,343,807,327,105,315,
0,339,796,324,103,312,
0,336,783,321,103,310,
0,334,887,319,120,307,
0,330,895,316,119,304,
0,327,876,312,118,301,
0,324,862,310,117,299,
0,321,847,307,115,295,
0,359,833,340,115,327,
0,355,819,337,114,322,
0,352,807,334,113,319,
0,348,793,331,112,316,
0,345,782,327,111,313,
0,342,895,324,120,311,
0,338,888,321,120,307,
0,335,871,319,119,305,
0,332,856,316,118,302,
0,329,841,313,116,335,
0,355,828,341,115,330,
0,352,815,337,115,326,
0,348,802,335,113,323,
0,344,790,332,113,319,
0,342,777,327,112,317,
0,338,896,326,121,313,
0,335,881,323,120,312,
0,332,865,319,119,308,
0,329,851,317,118,305,
0,326,837,324,117,339,
0,358,823,344,116,335,
0,353,810,339,115,332,
0,350,797,336,114,328,
0,347,785,334,113,326,
0,344,774,331,114,323,
0,339,892,327,113,319,
0,337,875,324,112,317,
0,334,860,321,111,313,
0,331,845,319,111,312,
0,327,831,347,110,343,
0,358,817,342,109,338,
0,355,805,339,108,335,
0,351,792,335,107,332,
0,348,780,332,106,328,
0,344,787,329,123,326,
0,341,887,326,121,323,
0,337,870,323,120,319,
0,335,856,319,119,317,
0,332,840,318,118,314,
0,328,828,344,117,364,
0,358,814,339,116,359,
0,354,801,336,115,355,
0,351,789,333,114,352,
0,348,776,330,113,349,
0,344,851,327,116,345,
0,340,892,324,115,343,
0,337,873,321,114,339,
0,335,859,319,113,336,
0,331,844,316,112,342,
0,364,831,351,112,359,
0,359,817,346,111,355,
0,355,804,344,110,352,
0,352,792,340,109,349,
0,348,780,336,108,346,
0,344,886,334,114,343,
0,341,888,331,113,339,
0,338,871,327,112,336,
0,335,856,325,111,334,
0,332,841,322,110,332,
0,362,828,339,109,329,
0,358,814,335,108,326,
0,353,801,332,108,323,
0,350,790,329,107,319,
0,347,777,327,106,318,
0,344,894,323,116,315,
0,340,880,320,115,312,
0,337,865,318,115,310,
0,334,851,315,113,307,
0,331,836,327,113,339,
0,359,822,337,112,335,
0,355,809,334,111,331,
0,352,796,331,110,327,
0,348,784,327,109,324,
0,345,773,324,120,321,
0,342,897,321,123,319,
0,339,881,319,121,316,
0,335,866,316,120,313,
0,332,851,313,120,311,
0,329,838,352,119,342,
0,360,824,347,118,337,
0,357,810,343,116,334,
0,353,798,339,115,331,
0,350,785,335,115,327,
0,347,809,334,129,324,
0,344,897,330,127,321,
0,340,876,327,126,319,
0,337,861,324,125,316,
0,334,847,321,124,313,
0,335,831,344,123,345,
0,359,818,341,122,342,
0,356,806,337,120,337,
0,352,793,334,120,334,
0,350,781,331,119,331,
0,347,860,327,124,327,
0,343,892,324,124,325,
0,339,871,322,122,322,
0,336,856,319,121,319,
0,333,841,316,120,337,
0,366,828,338,119,353,
0,359,814,335,119,349,
0,356,801,331,118,345,
0,353,789,327,116,342,
0,350,777,324,115,339,
0,347,888,321,125,335,
0,344,891,319,124,332,
0,339,869,316,123,329,
0,337,855,313,121,327,
0,334,840,311,121,323,
0,352,826,334,120,320,
0,348,813,331,119,318,
0,344,800,327,118,315,
0,341,788,323,117,312,
0,337,775,321,115,309,
0,334,896,318,120,307,
0,332,888,315,119,304,
0,327,867,312,118,301,
0,326,852,310,116,299,
0,323,839,335,115,350,
0,355,824,339,115,345,
0,351,811,335,114,342,
0,348,799,332,113,338,
0,344,786,328,112,335,
0,342,775,326,119,332,
0,337,896,323,118,328,
0,335,876,319,118,326,
0,332,862,317,116,323,
0,328,847,314,115,319,
0,326,833,344,114,317,
0,360,819,339,113,315,
0,355,807,335,112,312,
0,352,793,332,112,308,
0,349,782,329,111,305,
0,345,813,326,118,303,
0,343,892,323,116,300,
0,339,871,319,115,297,
0,335,856,318,114,295,
0,333,841,315,113,294,
0,340,828,344,112,348,
0,352,814,340,112,344,
0,348,801,337,111,341,
0,344,789,334,110,337,
0,342,777,331,109,334,
0,338,867,327,118,331,
0,335,889,324,116,327,
0,332,868,321,115,324,
0,328,854,319,115,322,
0,326,839,316,113,334,
0,350,825,347,113,331,
0,346,812,344,112,327,
0,342,799,340,111,324,
0,338,787,335,110,321,
0,335,775,333,109,318,
0,332,889,330,120,315,
0,328,888,327,119,312,
0,326,867,324,118,310,
0,323,853,321,116,307,
0,319,839,319,115,323,
0,353,825,344,115,319,
0,349,812,339,114,316,
0,344,799,335,113,313,
0,342,787,332,112,310,
0,338,775,329,111,307,
0,335,895,327,115,304,
0,332,883,323,114,302,
0,327,863,320,113,299,
0,326,849,318,112,296,
0,323,835,344,112,338,
0,358,821,340,111,335,
0,353,807,337,110,332,
0,349,796,333,109,327,
0,345,783,331,108,324,
0,343,771,327,115,321,
0,339,897,324,115,319,
0,335,881,321,113,316,
0,333,862,319,112,313,
0,330,847,316,112,310,
0,327,833,348,111,321,
0,359,819,344,110,318,
0,356,807,340,109,315,
0,352,794,336,108,312,
0,349,782,333,108,308,
0,345,830,330,119,305,
0,342,896,327,118,303,
0,339,879,323,117,300,
0,335,860,321,116,297,
0,333,845,319,115,295,
0,348,831,344,114,338,
0,359,817,339,113,335,
0,356,804,336,112,332,
0,352,792,332,111,327,
0,348,780,329,110,324,
0,345,876,327,125,321,
0,343,891,323,124,319,
0,339,873,320,123,316,
0,335,855,318,121,313,
0,333,840,315,121,347,
0,375,825,347,120,350,
0,370,813,343,119,346,
0,367,799,339,118,343,
0,361,787,335,117,339,
0,359,775,332,116,335,
0,355,892,329,120,332,
0,352,888,327,120,329,
0,348,871,323,119,327,
0,345,853,320,118,323,
0,342,839,319,116,324,
0,369,825,344,115,321,
0,365,812,340,115,318,
0,361,799,337,113,316,
0,357,787,334,113,312,
0,353,775,331,112,310,
0,350,894,327,114,306,
0,347,878,324,113,304,
0,344,862,321,112,302,
0,340,845,319,112,299,
0,337,831,345,111,350,
0,367,817,341,110,345,
0,363,804,337,109,342,
0,359,792,335,108,339,
0,355,780,331,107,335,
0,352,776,327,124,332,
0,348,897,324,122,328,
0,344,883,321,121,326,
0,342,867,319,120,323,
0,339,849,316,119,319,
0,335,835,338,118,321,
0,359,821,335,116,318,
0,355,807,332,115,316,
0,352,796,327,115,312,
0,348,783,325,114,310,
0,344,841,322,121,307,
0,340,897,319,120,304,
0,337,880,316,119,302,
0,335,864,313,118,299,
0,332,846,311,117,297,
0,361,831,347,115,319,
0,361,819,344,115,316,
0,358,806,340,114,312,
0,355,793,336,113,310,
0,351,781,333,112,307,
0,347,881,329,118,304,
0,344,892,327,116,301,
0,340,874,323,115,298,
0,337,859,321,114,295,
0,335,841,319,113,317,
0,355,828,331,112,313,
0,351,815,327,112,311,
0,348,801,324,110,307,
0,344,790,321,110,304,
0,340,777,318,108,302,
0,337,893,315,119,299,
0,334,892,312,118,295,
0,331,873,310,116,293,
0,327,859,307,115,291,
0,324,841,311,115,337,
0,364,827,335,113,334,
0,359,814,332,112,330,
0,356,801,329,112,327,
0,353,789,326,111,323,
0,348,777,323,117,319,
0,345,896,319,121,318,
0,342,881,316,120,314,
0,339,865,314,120,312,
0,335,851,312,118,308,
0,332,834,344,117,307,
0,363,819,340,115,304,
0,359,807,336,115,302,
0,355,794,334,114,300,
0,352,782,331,113,296,
0,348,788,327,134,294,
0,344,894,323,132,291,
0,341,876,321,131,288,
0,337,860,318,130,287,
0,335,846,316,129,284,
0,332,829,348,127,322,
0,358,816,344,127,319,
0,355,803,340,126,316,
0,351,790,337,124,312,
0,347,778,334,124,310,
0,344,849,331,127,306,
0,339,898,327,126,304,
0,337,880,324,124,301,
0,334,864,321,124,299,
0,331,849,319,123,312,
0,366,831,353,121,336,
0,361,819,350,120,333,
0,358,806,346,120,330,
0,353,793,343,119,327,
0,349,781,339,118,323,
0,346,884,335,124,319,
0,343,892,333,122,317,
0,339,873,329,121,315,
0,336,859,327,120,312,
0,334,844,324,119,315,
0,364,827,341,118,312,
0,359,814,337,117,308,
0,356,800,335,116,305,
0,353,788,332,115,303,
0,349,776,327,114,300,
0,345,894,324,121,297,
0,343,884,321,120,295,
0,339,868,319,120,292,
0,335,854,316,119,290,
0,333,839,324,118,336,
0,354,822,331,116,333,
0,350,809,327,115,329,
0,347,796,324,115,327,
0,344,784,321,114,323,
0,339,773,318,120,320,
0,335,896,315,124,317,
0,333,880,312,124,314,
0,330,864,310,123,312,
0,327,850,307,121,308,
0,324,836,343,120,320,
0,359,819,339,120,318,
0,356,806,335,118,315,
0,353,793,332,118,312,
0,350,781,329,116,308,
0,345,803,327,119,306,
0,342,896,323,118,303,
0,339,880,319,116,300,
0,335,864,317,115,297,
0,332,849,314,115,295,
0,334,831,335,113,327,
0,353,819,332,112,323,
0,351,806,328,112,320,
0,347,793,326,111,318,
0,344,781,323,110,315,
0,339,859,319,118,312,
0,335,893,316,117,308,
0,333,875,313,116,305,
0,329,860,311,115,303,
0,327,846,308,115,318,
0,358,828,339,113,331,
0,353,815,335,112,327,
0,350,802,332,112,324,
0,347,790,329,111,321,
0,344,777,327,110,319,
0,339,887,323,118,316,
0,335,889,319,116,312,
0,333,871,316,115,310,
0,329,857,313,115,307,
0,327,843,312,114,327,
0,353,825,340,113,323,
0,350,812,337,112,319,
0,345,799,334,111,317,
0,343,787,331,110,314,
0,339,775,327,109,312,
0,335,895,325,114,308,
0,332,883,321,113,304,
0,328,867,319,112,302,
0,326,853,316,112,300,
0,323,839,323,111,360,
0,357,822,332,110,356,
0,353,808,329,108,353,
0,350,796,327,108,350,
0,347,783,323,107,347,
0,343,772,319,118,344,
0,339,896,317,116,340,
0,335,880,313,115,335,
0,332,865,312,114,333,
0,329,851,308,113,330,
0,327,836,334,112,347,
0,355,819,331,111,344,
0,351,807,327,110,339,
0,348,793,324,109,337,
0,344,782,321,108,334,
0,340,817,319,123,331,
0,336,899,315,121,327,
0,333,883,312,120,323,
0,330,867,310,120,321,
0,327,852,307,119,318,
0,335,839,337,118,317,
0,351,822,334,116,315,
0,347,808,331,115,312,
0,344,796,327,115,309,
0,340,783,324,113,306,
0,337,867,321,119,304,
0,333,892,318,118,301,
0,330,875,315,116,297,
0,327,860,312,115,295,
0,324,845,310,115,331,
0,355,831,337,113,340,
0,351,815,334,112,337,
0,347,801,331,112,334,
0,344,790,327,111,331,
0,340,777,325,110,327,
0,337,888,322,124,324,
0,333,885,318,122,321,
0,330,869,316,121,318,
0,335,854,313,120,315,
0,332,840,311,120,344,
0,352,825,340,118,340,
0,349,809,337,117,337,
0,345,797,334,116,334,
0,342,785,331,115,331,
0,339,772,327,115,327,
0,335,894,325,122,324,
0,332,881,321,121,321,
0,327,865,318,120,318,
0,357,851,316,120,315,
0,353,836,338,118,352,
0,352,823,334,117,349,
0,348,807,331,116,345,
0,345,794,327,115,342,
0,342,782,324,114,339,
0,339,770,321,124,335,
0,335,896,319,123,333,
0,332,880,316,121,329,
0,327,864,312,120,326,
0,329,849,310,120,323,
0,326,836,330,119,354,
0,340,822,327,118,351,
0,337,806,323,116,347,
0,334,793,319,115,344,
0,331,781,318,115,340,
0,327,825,315,124,337,
0,324,899,312,123,334,
0,320,882,308,122,331,
0,318,866,305,121,327,
0,315,851,303,120,324,
0,334,838,327,119,323,
0,342,824,325,118,319,
0,338,807,322,116,317,
0,335,795,319,115,314,
0,332,783,316,115,312,
0,328,873,313,119,308,
0,326,890,311,118,306,
0,321,872,307,117,303,
0,319,857,304,115,300,
0,316,844,302,115,323,
0,357,830,337,114,331,
0,352,816,334,113,327,
0,349,799,330,112,324,
0,345,787,327,111,321,
0,342,775,324,110,319,
0,339,892,321,117,316,
0,335,891,319,116,312,
0,332,873,315,115,309,
0,329,859,312,114,306,
0,326,844,310,113,351,
0,359,830,335,112,347,
0,355,816,332,112,343,
0,352,800,329,110,339,
0,349,788,327,110,336,
0,345,776,323,110,334,
0,343,896,319,115,330,
0,339,886,318,115,327,
0,335,870,314,113,323,
0,332,855,312,113,321,
0,328,840,339,112,327,
0,371,826,335,111,326,
0,368,813,332,110,322,
0,364,797,327,109,319,
0,359,785,326,108,316,
0,357,775,323,118,313,
0,353,896,319,116,311,
0,350,880,316,115,307,
0,346,864,313,115,305,
0,343,850,310,113,302,
0,340,836,335,113,344,
0,376,822,332,112,339,
0,372,809,329,111,336,
0,368,793,327,110,334,
0,365,782,323,109,330,
0,361,835,319,123,327,
0,358,897,318,121,324,
0,355,879,315,120,321,
0,351,864,312,120,318,
0,347,849,308,119,315,
0,371,835,339,118,319,
0,377,822,335,116,316,
0,374,808,332,115,313,
0,370,793,329,114,312,
0,366,781,327,113,308,
0,363,878,323,127,305,
0,359,892,319,127,303,
0,355,873,318,126,300,
0,352,859,313,124,297,
0,348,844,312,124,335,
0,364,830,333,123,331,
0,359,816,329,121,327,
0,356,803,327,120,324,
0,353,788,323,120,321,
0,350,776,321,119,319,
0,347,893,318,131,316,
0,344,889,315,131,312,
0,339,871,312,130,310,
0,335,857,309,128,307,
0,333,843,315,127,343,
0,368,829,336,127,339,
0,363,816,333,125,335,
0,359,803,329,124,332,
0,356,787,327,123,329,
0,352,775,323,123,327,
0,349,894,321,125,323,
0,345,880,318,124,319,
0,342,864,315,123,318,
0,339,849,312,121,314,
0,335,835,339,121,353,
0,368,822,335,120,350,
0,364,808,331,119,346,
0,360,796,327,118,343,
0,358,780,326,117,339,
0,353,784,323,124,336,
0,351,896,319,123,334,
0,347,879,316,121,331,
0,343,864,313,120,327,
0,340,849,310,120,323,
0,337,835,339,119,332,
0,359,822,335,118,327,
0,357,808,332,116,325,
0,353,796,327,115,322,
0,350,780,326,115,319,
0,347,846,323,118,316,
0,344,894,319,116,313,
0,340,876,316,115,311,
0,335,860,313,115,308,
0,333,846,311,113,312,
0,368,831,345,113,329,
0,368,819,342,112,327,
0,365,806,339,111,323,
0,361,790,335,110,320,
0,358,778,332,109,318,
0,355,883,329,120,315,
0,351,892,326,120,312,
0,348,875,323,119,309,
0,344,860,320,118,307,
0,340,845,317,116,327,
0,371,831,341,115,323,
0,367,817,337,115,320,
0,364,805,335,114,318,
0,359,789,331,113,315,
0,356,777,327,112,312,
0,353,893,325,121,310,
0,350,884,323,120,307,
0,346,867,319,119,304,
0,343,854,316,118,301,
0,339,839,323,117,316,
0,366,825,337,116,312,
0,363,812,335,115,310,
0,359,799,332,114,307,
0,355,783,327,113,304,
0,352,772,326,119,302,
0,348,896,323,120,299,
0,345,881,319,120,295,
0,342,866,316,119,294,
0,338,852,313,118,291,
0,335,838,350,116,337,
0,358,824,345,115,334,
0,354,811,342,115,330,
0,351,798,339,113,327,
0,348,783,335,113,323,
0,344,793,333,120,321,
0,340,896,329,119,318,
0,337,878,327,118,315,
0,334,863,323,117,312,
0,331,849,319,116,310,
0,327,835,333,115,307,
0,354,820,329,114,305,
0,351,807,326,113,302,
0,347,795,323,112,300,
0,344,780,319,111,297,
0,340,854,318,124,295,
0,337,895,315,123,292,
0,334,876,312,121,289,
0,331,862,310,120,287,
0,327,847,306,120,285,
0,361,833,344,119,344,
0,356,819,339,118,339,
0,353,807,335,116,336,
0,350,794,333,115,333,
0,346,779,330,115,330,
0,343,887,327,118,327,
0,339,890,324,116,323,
0,336,872,321,115,321,
0,333,857,318,115,318,
0,329,843,315,114,316,
0,362,830,340,113,319,
0,358,816,337,112,316,
0,355,803,334,111,312,
0,351,791,331,110,310,
0,348,775,327,110,307,
0,344,895,324,118,304,
0,341,884,321,117,302,
0,337,868,319,115,300,
0,335,854,316,115,296,
0,331,839,331,114,310,
0,360,825,339,113,305,
0,356,812,335,112,302,
0,353,799,333,112,300,
0,350,787,329,110,296,
0,347,773,327,118,295,
0,344,896,323,118,291,
0,339,881,321,116,289,
0,336,865,318,115,287,
0,334,851,315,114,284,
0,330,837,344,113,329,
0,359,823,339,112,324,
0,356,809,337,112,321,
0,353,797,334,111,318,
0,350,785,330,110,316,
0,346,807,327,115,312,
0,344,892,324,113,310,
0,339,875,321,112,307,
0,336,860,319,112,304,
0,334,846,316,111,302,
0,343,831,347,110,344,
0,361,818,343,109,339,
0,358,805,339,108,335,
0,355,792,336,107,333,
0,351,780,333,106,329,
0,348,864,330,122,327,
0,344,892,327,121,323,
0,341,873,324,120,320,
0,337,859,321,119,318,
0,335,844,319,118,315,
0,360,830,351,117,314,
0,356,817,347,116,312,
0,353,804,344,115,308,
0,350,792,340,114,305,
0,347,780,337,113,304,
0,344,889,334,129,300,
0,339,896,331,127,298,
0,336,877,327,127,295,
0,334,862,326,126,294,
0,331,847,323,125,307,
0,359,833,342,124,323,
0,355,820,338,123,319,
0,352,807,335,122,317,
0,348,795,332,121,313,
0,344,782,328,120,312,
0,342,896,326,124,308,
0,338,889,323,124,305,
0,335,871,319,123,303,
0,332,857,318,121,300,
0,328,843,315,120,321,
0,344,829,335,120,318,
0,342,816,332,119,315,
0,338,803,329,118,312,
0,335,791,326,116,308,
0,332,779,323,116,306,
0,327,897,319,120,303,
0,326,881,317,119,300,
0,323,865,315,118,297,
0,329,851,312,117,295,
0,326,838,334,116,332,
0,355,824,338,115,327,
0,352,810,335,114,324,
0,348,798,332,113,321,
0,344,785,327,112,318,
0,342,774,326,116,316,
0,338,889,323,115,312,
0,335,871,319,115,310,
0,332,857,316,113,307,
0,370,843,314,113,304,
0,366,829,344,112,339,
0,372,816,339,111,335,
0,369,803,336,110,332,
0,365,791,334,109,327,
0,361,778,331,108,326,
0,359,805,327,120,323,
0,355,892,324,119,319,
0,352,873,321,118,316,
0,348,859,319,116,313,
0,396,844,316,115,311,
0,392,831,344,115,340,
0,387,817,339,113,335,
0,384,804,336,112,333,
0,380,792,333,112,329,
0,376,780,330,111,327,
0,372,862,327,121,323,
0,369,884,324,120,321,
0,365,868,321,120,318,
0,375,854,319,119,315,
0,423,839,316,118,350,
0,418,825,349,116,347,
0,414,812,344,115,343,
0,409,799,342,115,339,
0,406,787,338,113,335,
0,401,775,335,113,333,
0,398,888,332,124,330,
0,393,881,328,123,327,
0,390,865,326,121,323,
0,427,850,323,120,321,
0,431,836,319,120,323,
0,425,823,334,119,320,
0,420,809,329,118,317,
0,417,797,327,117,314,
0,412,784,323,115,312,
0,408,773,321,115,308,
0,404,890,318,127,305,
0,400,870,316,125,303,
0,396,855,312,124,301,
0,415,840,310,123,298,
0,410,828,340,122,340,
0,405,814,336,121,336,
0,401,800,332,120,332,
0,397,788,329,120,329,
0,393,776,326,119,326,
0,390,765,323,124,323,
0,386,896,319,124,319,
0,382,876,317,122,317,
0,379,861,315,121,315,
0,385,847,312,120,312,
0,382,833,342,120,335,
0,377,819,337,118,332,
0,374,806,334,118,327,
0,371,793,331,116,325,
0,367,782,327,115,322,
0,364,817,325,129,319,
0,360,893,321,127,316,
0,358,871,319,127,313,
0,354,856,316,126,311,
0,364,842,313,124,311,
0,367,828,344,124,339,
0,361,815,340,123,335,
0,358,802,335,121,332,
0,355,790,333,120,329,
0,352,777,329,120,326,
0,348,870,327,121,323,
0,345,887,323,120,319,
0,342,870,321,119,317,
0,339,856,318,118,315,
0,344,841,316,117,334,
0,341,827,338,116,330,
0,337,814,335,115,327,
0,335,801,331,114,323,
0,332,788,327,113,319,
0,328,776,325,112,317,
0,326,891,322,116,313,
0,323,882,319,115,312,
0,320,866,316,115,308,
0,318,852,313,114,306,
0,316,838,311,113,333,
0,335,824,325,112,329,
0,332,811,321,111,327,
0,328,798,318,110,323,
0,326,786,315,110,319,
0,323,775,312,117,317,
0,319,871,310,135,313,
0,316,852,307,133,312,
0,313,838,304,131,308,
0,312,824,302,131,305,
0,309,812,335,129,344,
0,343,798,335,129,339,
0,338,785,332,127,335,
0,335,774,327,127,332,
0,332,763,324,126,329,
0,327,760,322,127,326,
0,325,899,319,126,323,
0,322,883,316,126,319,
0,319,867,313,124,317,
0,316,852,310,123,315,
0,314,839,340,122,361,
0,350,824,337,121,357,
0,345,812,332,120,353,
0,342,799,329,120,350,
0,339,787,327,119,346,
0,335,838,323,127,343,
0,332,899,320,126,339,
0,329,878,318,125,336,
0,326,862,315,124,334,
0,323,847,312,123,331,
0,331,833,342,121,334,
0,332,820,338,121,331,
0,327,807,334,120,327,
0,325,795,331,119,324,
0,322,783,327,118,321,
0,319,878,324,120,318,
0,316,889,321,118,316,
0,313,868,319,118,312,
0,311,854,316,116,310,
0,308,839,313,115,348,
0,333,825,345,114,352,
0,329,812,342,113,348,
0,325,799,337,112,345,
0,322,787,335,112,341,
0,319,775,332,111,338,
0,316,892,328,120,335,
0,313,883,326,120,332,
0,311,864,323,119,328,
0,307,849,319,118,326,
0,305,835,319,116,327,
0,337,822,352,115,323,
0,334,807,348,115,319,
0,329,796,344,113,318,
0,327,783,341,113,313,
0,323,771,338,114,312,
0,320,894,335,116,308,
0,318,878,332,115,306,
0,315,859,328,114,304,
0,312,844,326,113,300,
0,309,831,337,112,321,
0,332,817,334,112,318,
0,328,804,331,111,316,
0,325,792,327,110,312,
0,321,780,323,109,308,
0,319,774,320,117,306,
0,316,888,318,115,304,
0,312,871,315,115,300,
0,310,852,312,113,298,
0,307,838,310,113,295,
0,305,824,345,112,294,
0,327,811,342,111,291,
0,323,798,339,110,288,
0,319,786,335,109,286,
0,316,774,332,108,283,
0,313,837,327,115,281,
0,311,888,326,114,279,
0,307,870,323,113,276,
0,305,851,319,112,275,
0,302,838,316,112,275,
0,320,824,344,110,293,
0,317,811,339,109,291,
0,313,798,336,108,287,
0,310,785,332,108,284,
0,307,774,329,107,282,
0,304,878,327,115,280,
0,302,881,323,114,278,
0,300,865,320,113,275,
0,297,847,318,112,272,
0,295,833,315,112,321,
0,332,819,313,110,316,
0,328,807,311,109,313,
0,326,794,307,108,311,
0,321,782,304,108,307,
0,319,771,302,107,304,
0,316,892,300,114,302,
0,312,888,297,113,299,
0,310,871,295,112,295,
0,307,852,292,111,294,
0,304,839,312,111,299,
0,332,824,334,110,295,
0,328,811,331,108,292,
0,326,799,327,108,291,
0,321,786,324,107,287,
0,319,775,321,115,285,
0,316,897,318,115,283,
0,313,883,315,115,280,
0,310,867,312,114,278,
0,307,849,310,112,275,
0,304,835,347,112,315,
0,329,822,343,111,312,
0,327,808,339,110,308,
0,323,796,335,109,305,
0,319,783,332,108,302,
0,316,785,329,126,300,
0,313,896,326,124,296,
0,311,878,323,124,294,
0,307,863,319,122,291,
0,305,845,318,121,289,
0,303,831,353,120,336,
0,334,817,350,120,333,
0,330,804,347,119,329,
0,327,792,344,117,327,
0,323,780,339,116,323,
0,319,851,335,129,319,
0,317,892,333,127,317,
0,315,874,330,127,314,
0,312,859,327,126,312,
0,308,841,324,124,323,
0,338,828,356,124,344,
0,334,814,353,123,339,
0,331,801,350,121,336,
0,327,789,347,120,334,
0,323,777,343,120,329,
0,321,882,339,124,327,
0,318,878,336,123,323,
0,315,862,333,121,320,
0,312,847,331,120,318,
0,309,830,327,120,344,
0,340,816,339,119,339,
0,337,803,336,118,335,
0,334,792,333,116,332,
0,329,780,331,116,329,
0,327,768,327,115,326,
0,323,890,323,119,323,
0,319,875,321,118,319,
0,318,859,318,117,317,
0,315,845,315,115,314,
0,312,828,331,115,343,
0,344,814,340,113,339,
0,341,801,337,113,335,
0,337,788,334,112,332,
0,334,776,331,111,329,
0,331,766,327,119,326,
0,327,891,324,120,323,
0,324,874,321,119,319,
0,321,859,319,118,317,
0,321,845,316,116,314,
0,319,828,352,115,343,
0,336,814,348,115,339,
0,333,801,345,113,335,
0,329,788,342,112,332,
0,326,776,339,112,329,
0,323,803,335,121,326,
0,319,897,332,120,323,
0,317,881,329,119,319,
0,314,865,326,118,317,
0,376,851,323,117,314,
0,377,833,327,115,348,
0,373,819,324,115,345,
0,369,807,322,114,342,
0,366,794,319,113,338,
0,361,782,316,112,335,
0,358,844,312,115,332,
0,355,871,310,115,327,
0,352,856,307,113,326,
0,371,844,305,112,323,
0,438,828,303,112,353,
0,433,812,327,111,349,
0,428,799,324,110,345,
0,423,787,321,109,342,
0,419,775,319,108,339,
0,415,764,316,107,335,
0,411,883,312,113,332,
0,407,873,309,112,328,
0,403,858,307,111,326,
0,458,844,304,110,323,
0,478,827,302,109,347,
0,472,813,313,108,343,
0,467,799,311,107,339,
0,462,787,307,106,335,
0,456,775,305,105,333,
0,451,764,303,104,330,
0,446,886,300,114,326,
0,441,869,297,113,323,
0,438,854,295,112,319,
0,447,839,292,111,317,
0,441,824,327,111,327,
0,437,809,323,110,326,
0,432,797,319,108,322,
0,428,784,318,108,319,
0,423,772,315,107,316,
0,419,761,312,111,313,
0,415,893,308,110,310,
0,412,876,305,109,307,
0,408,861,303,108,305,
0,404,847,300,107,302,
0,400,829,353,107,323,
0,396,816,350,105,319,
0,393,803,347,104,316,
0,390,791,344,103,313,
0,386,778,339,103,311,
0,382,813,337,112,307,
0,379,890,333,112,304,
0,376,873,329,111,302,
0,371,858,327,110,299,
0,369,844,324,108,295,
0,366,826,321,108,321,
0,363,812,319,107,318,
0,359,799,316,106,315,
0,356,787,313,105,312,
0,353,775,311,103,309,
0,350,868,307,119,307,
0,347,890,304,118,303,
0,344,872,302,117,300,
0,342,857,300,115,297,
0,339,844,297,115,336,
0,335,825,295,114,339,
0,333,813,292,113,335,
0,331,799,290,112,332,
0,327,787,287,111,328,
0,325,775,286,110,326,
0,321,884,283,117,323,
0,319,870,281,116,319,
0,316,855,279,115,316,
0,314,840,276,114,313,
0,312,826,275,113,346,
0,319,809,295,112,343,
0,316,797,294,111,339,
0,313,784,291,111,335,
0,311,772,287,110,332,
0,308,761,286,113,329,
0,305,892,283,120,327,
0,303,876,280,120,323,
0,300,860,278,119,319,
0,299,846,275,118,317,
0,295,831,334,117,344,
0,317,815,334,115,340,
0,313,803,329,115,336,
0,311,790,327,113,334,
0,307,777,323,112,331,
0,305,767,321,116,327,
0,302,896,318,115,324,
0,299,880,315,114,320,
0,295,864,312,113,318,
0,294,850,309,112,315,
0,292,836,374,112,339,
0,327,819,369,110,335,
0,325,806,366,110,332,
0,322,793,362,108,329,
0,319,782,359,108,326,
0,316,837,355,115,323,
0,312,896,352,114,319,
0,310,879,348,113,316,
0,307,864,345,112,313,
0,304,848,343,112,312,
0,318,835,371,111,340,
0,321,817,367,110,336,
0,318,805,364,109,333,
0,315,792,359,108,330,
0,312,780,356,107,327,
0,310,883,353,121,324,
0,305,899,350,120,321,
0,303,881,346,119,318,
0,300,866,344,118,315,
0,297,851,340,116,324,
0,323,837,337,116,327,
0,319,820,335,115,325,
0,317,807,332,114,322,
0,313,795,328,113,319,
0,311,782,326,112,316,
0,308,871,323,115,313,
0,304,855,319,114,311,
0,302,839,317,113,307,
0,299,825,315,112,304,
0,295,812,312,112,358,
0,311,799,339,110,353,
0,307,784,336,109,350,
0,304,772,334,108,347,
0,302,761,330,108,344,
0,299,750,327,114,340,
0,295,876,324,120,337,
0,292,860,321,119,333,
0,291,845,318,117,331,
0,288,831,367,116,327,
0,287,817,398,115,352,
0,300,804,392,115,348,
0,297,789,388,113,344,
0,295,777,384,112,341,
0,291,765,381,112,337,
0,289,768,377,126,335,
0,287,887,374,124,332,
0,284,870,370,123,327,
0,281,855,367,122,325,
0,280,840,364,121,322,
0,278,827,359,120,372,
0,280,814,357,120,368,
0,279,798,354,118,365,
0,276,785,351,117,361,
0,274,774,348,116,358,
0,272,820,345,120,355,
0,271,871,342,120,352,
0,268,856,339,119,347,
0,266,842,335,118,344,
0,263,828,333,116,342,
0,295,815,422,115,359,
0,298,801,416,115,355,
0,295,786,412,113,352,
0,292,775,408,112,348,
0,289,763,404,112,345,
0,287,884,401,126,342,
0,284,903,397,125,339,
0,281,892,391,124,335,
0,280,874,389,123,332,
0,276,860,385,122,348,
0,275,845,382,121,344,
0,272,831,379,120,341,
0,270,814,375,119,337,
0,268,801,371,118,335,
0,265,789,368,117,332,
0,263,896,366,126,327,
0,262,902,363,125,326,
0,259,883,359,124,322,
0,257,867,355,123,319,
0,255,852,394,122,350,
0,258,838,420,121,345,
0,255,824,415,120,343,
0,254,808,412,119,339,
0,252,796,408,118,335,
0,251,783,404,123,334,
0,248,888,399,130,329,
0,247,870,396,129,327,
0,245,855,391,127,323,
0,243,840,388,127,320,
0,241,827,417,126,368,
0,255,813,412,125,364,
0,252,800,408,124,359,
0,250,785,403,123,356,
0,248,773,399,121,353,
0,246,816,396,127,350,
0,243,903,391,126,347,
0,241,908,388,125,344,
0,240,897,385,124,339,
0,238,876,382,123,336,
0,236,862,379,122,369,
0,247,847,375,121,365,
0,244,833,371,120,361,
0,242,816,368,119,358,
0,240,804,365,118,355,
0,238,879,363,126,352,
0,236,905,359,125,348,
0,234,910,356,124,345,
0,231,906,352,123,341,
0,231,882,350,122,338,
0,263,867,382,121,335,
0,260,852,378,120,333,
0,258,839,375,120,330,
0,255,822,371,118,327,
0,254,808,368,117,324,
0,252,892,364,121,321,
0,249,904,360,120,319,
0,247,889,358,120,316,
0,244,872,353,118,312,
0,242,857,351,117,344,
0,272,844,348,116,339,
0,270,830,344,115,336,
0,267,816,343,115,333,
0,264,799,339,113,330,
0,262,788,336,113,327,
0,260,889,334,121,324,
0,257,873,331,120,321,
0,255,858,327,120,318,
0,254,844,325,118,315,
0,252,830,323,118,329,
0,291,816,319,116,326,
0,287,803,318,115,323,
0,284,788,315,115,319,
0,282,775,312,113,317,
0,280,765,310,117,314,
0,278,888,307,118,312,
0,275,871,305,116,308,
0,271,856,303,115,306,
0,270,841,300,115,303,
0,267,828,297,113,300,
0,303,815,295,112,297,
0,300,801,294,112,295,
0,297,786,291,111,292,
0,294,775,289,110,291,
0,291,793,287,115,288,
0,289,887,285,113,286,
0,286,870,283,113,284,
0,284,856,331,112,281,
0,281,840,451,111,279,
0,288,828,446,110,329,
0,327,814,441,109,326,
0,323,800,436,108,323,
0,320,785,432,108,319,
0,318,774,428,106,316,
0,315,855,423,120,313,
0,312,872,419,119,311,
0,309,857,415,118,307,
0,305,843,412,117,305,
0,303,829,516,115,305,
0,344,815,643,115,309,
0,339,802,633,114,306,
0,335,790,625,113,304,
0,332,775,617,112,301,
0,329,764,611,111,299,
0,326,883,604,118,295,
0,323,872,596,116,294,
0,319,857,590,115,291,
0,368,843,582,114,288,
0,396,828,575,113,323,
0,447,816,569,112,319,
0,440,802,563,112,316,
0,435,790,558,111,313,
0,431,775,551,110,311,
0,427,764,546,109,307,
0,423,892,541,116,305,
0,418,878,536,115,302,
0,414,863,530,114,300,
0,409,848,524,113,297,
0,405,835,732,112,335,
0,463,820,721,111,332,
0,457,807,711,111,329,
0,452,795,702,110,326,
0,448,780,692,108,323,
0,443,768,684,109,319,
0,439,897,675,108,317,
0,433,882,668,108,313,
0,430,866,659,107,312,
0,451,852,719,105,308,
0,447,838,827,105,352,
0,487,824,812,103,348,
0,481,810,800,103,344,
0,476,798,789,103,342,
0,472,783,779,102,338,
0,466,813,768,105,335,
0,461,899,758,103,332,
0,455,884,747,103,329,
0,451,868,738,102,326,
0,446,854,727,102,323,
0,472,840,718,101,353,
0,521,826,709,100,350,
0,515,813,700,99,345,
0,508,799,692,99,343,
0,504,787,684,98,340,
0,498,804,675,99,337,
0,492,897,668,99,334,
0,487,880,662,98,331,
0,483,864,655,97,327,
0,479,850,647,97,325,
0,473,836,639,96,355,
0,537,823,633,95,352,
0,531,809,627,95,348,
0,524,796,620,94,344,
0,519,787,613,94,342,
0,512,775,607,94,338,
0,507,899,600,97,335,
0,502,906,594,96,332,
0,496,892,588,96,329,
0,492,873,582,95,327,
0,487,859,577,94,384,
0,569,844,572,94,379,
0,564,831,567,93,376,
0,557,817,561,92,371,
0,551,805,556,92,368,
0,544,792,551,91,364,
0,539,898,545,95,360,
0,532,904,540,94,358,
0,527,887,535,93,355,
0,591,875,644,93,352,
0,608,860,636,92,393,
0,600,845,628,92,388,
0,593,831,620,91,384,
0,586,818,613,90,382,
0,579,806,606,89,377,
0,573,793,600,88,374,
0,568,888,593,102,371,
0,560,900,585,101,367,
0,553,882,579,100,363,
0,550,867,572,99,359,
0,546,852,567,99,369,
0,646,838,595,98,399,
0,635,824,723,97,394,
0,629,811,715,96,390,
0,621,798,705,96,387,
0,614,786,696,95,383,
0,606,881,688,100,379,
0,599,881,679,99,376,
0,591,865,670,99,371,
0,585,851,662,98,368,
0,579,838,779,97,365,
0,633,824,805,97,390,
0,649,810,792,96,385,
0,641,799,781,96,382,
0,633,788,771,95,379,
0,625,775,760,94,375,
0,618,819,750,94,372,
0,610,902,740,93,368,
0,603,897,731,92,365,
0,596,878,723,92,362,
0,635,863,715,91,359,
0,626,849,755,91,375,
0,668,835,875,89,371,
0,659,821,860,89,367,
0,651,808,846,88,364,
0,643,796,834,88,359,
0,635,815,822,94,357,
0,627,899,810,96,353,
0,620,903,896,95,351,
0,612,884,909,95,348,
0,608,868,914,94,344,
0,601,853,915,93,376,
0,664,839,899,92,372,
0,655,825,880,91,369,
0,647,812,870,91,365,
0,639,799,856,89,361,
0,632,787,844,89,359,
1,624,899,831,93,355,
1,616,906,820,92,352,
0,609,892,809,92,349,
1,703,873,798,91,345,
1,699,862,787,90,379,
1,697,847,777,89,375,
1,688,834,768,89,371,
1,679,820,758,88,367,
1,670,807,748,88,364,
1,662,796,739,87,361,
1,654,892,729,94,358,
1,647,906,723,93,354,
1,639,902,714,92,351,
1,632,880,705,92,348,
1,630,865,794,91,355,
1,638,850,903,90,366,
1,630,836,909,89,363,
1,622,823,897,88,359,
1,615,813,879,88,355,
1,608,799,865,88,352,
1,601,861,852,97,349,
1,594,902,839,96,346,
1,588,888,828,96,344,
1,582,871,816,95,340,
1,667,856,805,94,337,
1,679,842,796,94,380,
1,671,828,785,92,376,
1,662,815,775,92,372,
1,654,803,765,91,369,
1,646,790,755,91,366,
1,638,833,746,96,361,
1,630,902,736,96,359,
1,622,896,728,95,355,
1,615,876,889,94,352,
1,724,861,874,93,349,
1,714,847,860,92,388,
1,745,831,847,92,385,
1,735,819,834,91,381,
1,724,807,822,91,377,
1,715,793,813,89,374,
1,707,782,802,99,370,
1,698,899,791,98,367,
1,689,899,780,97,363,
1,679,878,769,96,359,
1,708,864,760,95,356,
1,699,849,751,95,387,
1,718,835,740,94,384,
1,707,824,731,93,380,
1,697,812,721,92,376,
1,689,799,713,92,372,
1,679,787,704,92,368,
1,671,892,696,102,365,
1,663,892,688,101,361,
1,655,874,679,99,359,
1,721,859,672,99,355,
1,711,845,665,99,366,
1,706,831,657,97,362,
1,696,817,651,96,359,
1,687,804,646,96,355,
0,679,792,639,95,352,
1,671,780,632,95,349,
1,664,892,625,100,345,
0,655,907,619,99,343,
0,647,908,612,98,339,
1,667,888,606,97,337,
0,761,871,600,97,374,
0,751,856,593,96,371,
1,739,841,588,96,368,
0,729,831,582,95,364,
0,719,818,575,94,360,
0,710,805,641,93,358,
1,701,871,723,100,354,
0,691,903,713,99,351,
0,683,893,704,99,348,
0,679,875,696,98,344,
0,772,860,686,97,343,
0,761,846,678,96,368,
0,750,831,671,96,364,
0,742,818,663,95,360,
0,732,805,655,94,358,
0,722,793,647,93,354,
0,712,851,639,99,351,
0,703,903,632,99,348,
0,694,894,625,97,344,
0,685,875,617,97,342,
0,696,864,611,96,338,
0,687,849,604,96,361,
0,696,835,598,95,358,
0,686,822,591,94,355,
0,677,808,584,93,352,
0,668,796,579,92,348,
0,660,784,573,97,345,
0,655,900,568,96,342,
0,647,906,563,96,339,
0,639,891,558,94,336,
0,729,873,551,94,333,
0,718,859,547,93,364,
0,743,844,542,92,359,
0,732,830,536,92,356,
0,722,820,532,91,353,
0,712,807,527,90,350,
0,703,795,523,89,347,
0,694,896,518,94,344,
0,684,904,513,93,342,
0,675,889,508,92,338,
0,760,872,504,92,335,
0,752,857,500,91,366,
0,740,843,496,89,361,
0,730,830,492,89,358,
0,719,816,487,88,355,
0,711,803,484,88,352,
0,701,792,480,88,348,
0,692,892,476,99,344,
0,683,899,472,98,342,
0,675,882,467,97,338,
0,667,866,463,96,335,
0,659,852,513,96,368,
0,687,838,507,95,364,
0,678,824,501,94,361,
0,668,811,496,93,358,
0,659,798,492,92,354,
0,653,786,487,92,351,
0,646,868,481,95,348,
0,638,903,476,94,344,
0,631,896,472,93,341,
0,624,876,467,92,337,
0,615,861,463,92,335,
0,623,851,459,91,342,
0,659,835,455,90,338,
0,650,823,451,89,335,
0,642,809,448,89,332,
0,634,797,444,88,329,
0,626,792,440,95,327,
0,619,902,436,94,323,
0,611,901,434,94,321,
0,606,880,431,92,319,
0,600,865,428,92,316,
0,592,851,432,91,351,
0,587,837,601,90,347,
0,580,824,620,89,343,
0,574,810,612,89,339,
0,568,798,605,88,336,
0,562,788,598,88,334,
0,556,897,591,97,330,
0,551,905,583,96,327,
0,545,888,577,96,324,
0,540,871,572,95,323,
0,535,856,566,94,371,
0,566,843,560,93,367,
0,560,829,555,92,363,
0,553,816,548,92,359,
0,547,803,543,91,355,
0,541,791,537,90,353,
0,536,896,531,97,350,
0,529,908,527,96,346,
0,524,905,521,96,344,
0,519,888,516,95,339,
0,514,871,511,94,361,
0,558,856,505,93,358,
0,551,842,501,92,353,
0,543,828,524,92,352,
0,537,815,518,91,348,
0,531,802,512,91,344,
0,527,887,508,96,342,
0,521,905,502,96,339,
0,515,906,497,95,335,
0,510,886,492,94,332,
0,513,870,487,93,329,
0,534,855,483,92,340,
0,540,840,479,92,337,
0,534,830,474,91,334,
0,527,817,470,91,331,
0,521,804,465,89,327,
0,515,831,461,92,324,
0,510,903,456,91,323,
0,504,906,452,89,319,
0,499,888,449,89,317,
0,496,871,446,88,314,
0,492,857,442,88,364,
0,487,842,438,87,359,
0,483,828,434,87,356,
0,479,816,431,86,352,
0,474,803,427,85,350,
0,470,820,423,96,346,
0,465,899,420,95,343,
0,462,907,417,94,339,
0,457,894,414,94,337,
0,467,874,411,93,334,
0,462,860,408,92,361,
0,486,846,404,92,358,
0,480,831,401,91,354,
0,475,818,399,90,351,
0,471,806,396,89,348,
0,465,793,393,89,344,
0,460,898,391,96,341,
0,455,905,387,95,337,
0,451,891,385,94,335,
0,448,873,382,94,332,
0,444,862,380,93,353,
0,479,847,376,92,349,
0,472,833,374,91,345,
0,467,820,371,90,343,
0,463,807,368,89,339,
0,457,794,366,89,336,
0,452,888,363,91,333,
0,448,904,360,91,330,
0,444,892,359,89,327,
0,440,874,355,89,324,
0,436,860,353,88,321,
0,476,846,352,88,339,
0,492,831,348,87,335,
0,487,817,346,86,332,
0,481,805,344,86,329,
0,476,796,342,85,326,
0,471,844,339,88,323,
0,465,903,337,88,319,
0,460,899,335,87,318,
0,455,878,332,86,316,
0,451,863,329,86,312,
0,465,849,327,84,358,
0,497,835,327,84,353,
0,492,821,323,83,350,
0,486,808,322,83,347,
0,480,796,319,82,344,
0,476,825,318,92,340,
0,471,903,316,91,337,
0,465,905,313,91,334,
0,460,893,312,89,331,
0,455,874,310,89,327,
0,451,860,307,88,348,
0,521,846,305,88,344,
0,515,831,304,87,343,
0,510,818,302,86,339,
0,504,805,300,86,335,
0,499,793,297,89,333,
0,494,899,295,91,329,
0,488,900,294,89,327,
0,483,880,292,89,323,
0,479,864,383,88,321,
0,473,850,379,88,354,
0,512,836,375,87,351,
0,507,825,371,87,347,
0,500,812,367,86,344,
0,496,799,364,85,340,
0,489,787,359,84,337,
0,484,892,357,88,335,
0,480,902,353,88,332,
0,474,884,351,87,327,
0,470,869,370,87,326,
0,465,854,420,86,340,
0,504,839,464,85,361,
0,497,825,459,84,358,
0,492,812,454,83,354,
0,487,799,449,83,351,
0,481,787,444,82,348,
0,476,859,440,89,344,
0,471,903,435,89,340,
0,465,896,432,88,337,
0,461,876,428,88,335,
0,455,860,423,87,332,
0,491,847,419,86,329,
0,484,832,415,85,327,
0,480,819,412,84,323,
0,476,806,409,84,321,
0,470,793,406,83,318,
0,465,844,402,99,316,
0,460,900,398,99,312,
0,455,884,395,97,310,
0,451,868,391,97,307,
0,446,854,387,96,305,
0,441,843,384,95,334,
0,486,829,381,95,331,
0,480,816,378,94,327,
0,474,803,375,93,325,
0,469,790,371,92,322,
0,463,779,369,94,319,
0,459,900,366,94,316,
0,455,901,364,93,313,
0,450,881,359,92,311,
0,446,865,358,92,307,
0,441,851,355,91,305,
0,484,837,352,89,303,
0,479,824,349,89,300,
0,472,811,345,88,297,
0,467,801,344,88,295,
0,463,788,340,88,293,
0,457,894,338,91,291,
0,453,902,335,90,288,
0,448,883,332,89,287,
0,444,867,330,89,285,
0,440,852,327,88,327,
0,519,839,326,88,332,
0,512,825,323,87,328,
0,507,812,321,86,326,
0,500,799,318,86,323,
0,495,787,316,85,319,
0,489,893,313,88,317,
0,484,903,312,88,313,
0,479,889,308,87,312,
0,474,872,307,86,308,
0,469,857,304,86,332,
0,524,843,302,85,339,
0,517,829,300,84,337,
0,511,816,297,83,334,
0,505,803,295,83,331,
0,500,791,294,83,327,
0,496,868,292,90,324,
0,489,903,290,89,321,
0,484,897,288,89,319,
0,480,877,287,88,316,
0,475,863,399,88,313,
0,476,847,571,87,361,
0,536,838,561,86,358,
0,529,824,555,86,354,
0,524,811,548,84,351,
0,518,798,542,84,348,
0,512,793,536,90,345,
0,506,901,530,89,342,
0,500,896,524,88,339,
0,495,876,520,88,335,
0,492,861,515,88,333,
0,487,847,511,87,363,
0,540,833,504,86,359,
0,534,819,499,85,355,
0,527,806,495,84,352,
0,521,793,489,83,348,
0,515,785,486,83,345,
0,510,897,480,91,342,
0,504,906,476,90,339,
0,499,895,472,89,335,
0,494,875,467,88,333,
0,488,860,463,88,357,
0,505,846,459,87,353,
0,499,831,455,87,350,
0,495,819,451,86,345,
0,489,806,448,85,343,
0,483,793,444,84,339,
0,480,896,440,95,336,
0,474,901,435,94,334,
0,469,882,432,93,331,
0,464,866,428,92,327,
0,460,855,423,92,371,
0,540,841,420,91,366,
0,532,827,417,90,361,
0,526,814,414,89,359,
0,519,801,410,88,355,
0,513,789,407,88,352,
0,508,880,404,89,349,
0,504,902,400,88,346,
0,499,884,398,88,343,
0,493,868,408,88,339,
0,487,854,443,86,336,
0,503,839,439,86,344,
0,536,826,434,85,340,
0,530,812,430,84,337,
0,524,803,425,83,334,
0,518,791,421,83,331,
0,512,824,417,91,327,
0,507,903,413,89,325,
0,501,905,409,88,323,
0,496,887,406,88,320,
0,491,871,402,88,318,
0,487,856,399,87,334,
0,513,841,396,86,331,
0,508,828,392,85,327,
0,502,815,390,84,324,
0,496,802,386,83,321,
0,491,806,384,99,319,
0,486,901,380,98,316,
0,480,898,377,97,313,
0,476,878,374,97,311,
0,471,863,371,96,307,
0,466,848,426,96,347,
0,510,834,423,94,344,
0,504,821,419,94,340,
0,498,807,414,93,337,
0,494,796,411,92,334,
0,488,783,408,92,331,
0,483,897,403,96,327,
0,478,903,399,96,324,
0,473,886,396,95,321,
0,468,870,439,94,319,
0,463,856,434,93,331,
0,532,844,430,92,327,
0,526,830,425,92,324,
0,519,817,420,91,321,
0,513,804,416,91,319,
0,508,792,412,89,316,
0,502,885,408,99,313,
0,496,880,404,97,311,
0,491,864,401,97,307,
0,487,849,398,96,305,
0,489,835,395,95,303,
0,518,822,391,94,316,
0,525,808,387,94,312,
0,519,796,384,93,310,
0,512,783,380,92,307,
0,507,775,377,92,304,
0,502,817,374,103,302,
0,496,898,371,103,300,
0,491,880,368,102,296,
0,486,864,364,101,295,
0,480,849,361,100,291,
0,492,835,359,99,331,
0,498,822,356,99,327,
0,492,808,353,98,324,
0,487,796,352,97,321,
0,482,783,348,96,319,
0,476,875,345,100,316,
0,472,896,344,99,312,
0,467,877,340,99,310,
0,462,862,338,97,307,
0,457,851,335,97,305,
0,475,838,444,96,348,
0,521,824,439,95,344,
0,515,810,433,95,342,
0,509,798,430,94,339,
0,504,785,425,93,335,
0,498,814,421,98,333,
0,494,900,418,97,329,
0,488,886,414,96,327,
0,483,870,409,96,323,
0,478,856,406,95,320,
0,472,841,403,94,332,
0,509,827,399,93,329,
0,503,814,395,92,326,
0,497,804,391,92,323,
0,492,792,387,91,319,
0,487,780,384,93,317,
0,481,899,381,99,314,
0,476,905,377,97,312,
0,472,889,375,97,310,
0,466,872,371,96,307,
0,462,857,369,96,332,
0,486,843,366,95,327,
0,480,829,363,94,324,
0,475,816,359,93,321,
0,470,803,356,92,318,
0,464,792,353,92,316,
0,460,899,351,100,312,
0,455,908,348,99,310,
0,451,903,345,98,307,
0,446,881,343,98,304,
0,441,870,339,97,350,
0,471,855,337,96,345,
0,465,840,334,95,342,
0,460,827,332,95,338,
0,455,814,329,94,335,
0,449,801,327,93,333,
0,445,890,324,96,329,
0,441,905,323,95,327,
0,437,894,319,94,323,
0,433,875,318,93,321,
0,430,860,316,92,326,
0,472,846,350,92,364,
0,497,831,347,91,359,
0,491,819,344,90,357,
0,486,809,339,89,353,
0,480,796,337,89,350,
0,475,835,334,94,347,
0,470,902,331,93,344,
0,465,891,327,92,341,
0,460,873,325,92,338,
0,455,859,387,92,335,
0,492,844,449,91,359,
0,534,830,443,89,356,
0,527,816,439,89,352,
0,521,803,434,88,350,
0,515,792,430,88,345,
0,509,817,425,109,343,
0,504,900,421,108,339,
0,498,888,417,107,336,
0,493,871,413,105,334,
0,487,856,408,105,331,
0,496,842,404,103,351,
0,519,828,400,103,347,
0,512,815,397,102,344,
0,507,802,393,102,340,
0,502,787,390,100,337,
0,496,870,387,108,334,
0,491,899,384,107,331,
0,485,881,380,106,327,
0,480,865,376,105,326,
0,474,851,372,104,323,
0,480,837,480,103,352,
0,474,824,474,103,348,
0,469,809,469,102,345,
0,463,798,463,101,342,
0,460,782,459,100,339,
0,455,891,455,107,335,
0,451,899,450,105,332,
0,446,880,446,104,329,
0,441,865,441,103,327,
0,436,850,475,103,346,
0,496,836,527,102,368,
0,489,823,520,101,364,
0,484,809,515,100,359,
0,479,797,509,99,357,
0,473,785,504,99,354,
0,468,888,499,115,351,
0,463,899,494,114,347,
0,459,876,488,113,344,
0,454,862,483,112,341,
0,449,847,600,112,350,
0,504,833,663,111,345,
0,497,819,654,110,343,
0,491,807,645,109,339,
0,485,794,636,108,335,
0,480,782,628,107,332,
0,475,896,620,107,329,
0,470,896,613,105,327,
0,464,872,606,104,323,
0,460,857,600,103,321,
0,455,844,593,103,333,
0,499,829,586,102,329,
0,492,816,579,102,327,
0,486,803,574,100,323,
0,480,791,566,99,321,
0,475,779,560,105,318,
0,470,900,555,103,315,
0,465,903,548,103,312,
0,460,882,543,102,309,
0,455,867,537,102,307,
0,451,849,533,100,358,
0,508,835,527,99,354,
0,502,821,522,99,351,
0,496,808,517,98,348,
0,491,799,512,97,344,
0,486,787,508,97,341,
0,480,899,503,96,337,
0,475,891,498,96,335,
0,470,873,494,96,332,
0,465,858,489,95,329,
0,460,844,486,94,356,
0,529,830,481,93,352,
0,523,816,477,92,349,
0,516,803,472,92,345,
0,511,792,468,91,343,
0,504,780,464,96,339,
0,499,895,460,100,335,
0,494,879,455,99,333,
0,488,864,452,99,330,
0,483,849,448,97,327,
0,479,839,460,97,329,
0,509,824,536,96,326,
0,503,812,529,96,323,
0,497,799,523,95,319,
0,492,787,517,94,318,
0,486,775,511,94,316,
0,481,891,506,97,312,
0,476,900,502,96,310,
0,472,881,497,96,307,
0,467,866,492,95,305,
0,462,851,487,94,329,
0,526,838,483,94,344,
0,523,824,478,92,340,
0,516,811,472,92,337,
0,511,801,468,92,334,
0,505,789,463,91,331,
0,499,849,460,103,327,
0,494,881,455,103,324,
0,488,862,451,102,322,
0,483,847,447,100,319,
0,478,833,443,99,321,
0,501,819,439,99,344,
0,495,807,435,98,340,
0,489,793,432,97,337,
0,483,784,428,97,334,
0,479,772,423,96,331,
0,473,825,421,109,327,
0,468,900,417,108,324,
0,463,881,414,107,321,
0,459,866,411,105,319,
0,455,851,408,104,316,
0,483,837,404,103,344,
0,490,824,401,103,339,
0,483,811,397,102,336,
0,478,798,393,102,332,
0,472,785,391,100,329,
0,467,883,387,101,327,
0,463,903,385,100,323,
0,457,883,382,99,320,
0,453,871,379,99,318,
0,448,856,376,98,363,
0,500,843,373,97,359,
0,494,828,370,97,355,
0,488,816,368,96,352,
0,483,803,365,95,349,
0,478,791,362,94,345,
0,474,876,359,108,343,
0,467,903,356,106,338,
0,463,888,354,105,335,
0,457,871,352,103,332,
0,453,856,349,103,347,
0,484,843,347,103,343,
0,479,825,344,102,339,
0,473,812,342,101,335,
0,467,799,339,100,333,
0,463,787,336,99,329,
0,457,892,334,103,327,
0,452,900,332,102,323,
0,447,882,329,101,321,
0,524,866,327,100,317,
0,523,851,324,99,353,
0,519,838,321,99,348,
0,513,824,319,97,344,
0,507,811,318,97,342,
0,503,798,316,96,338,
0,497,786,313,96,335,
0,492,891,312,102,332,
0,487,901,309,100,329,
0,480,882,307,99,326,
0,476,867,305,99,323,
0,481,852,303,98,349,
0,487,838,326,97,352,
0,481,824,323,96,348,
0,476,812,319,96,344,
0,471,799,317,95,341,
0,466,790,313,94,338,
0,462,853,312,103,335,
0,456,903,308,103,332,
0,451,887,306,102,328,
0,448,871,359,100,326,
0,519,856,355,100,329,
0,525,841,352,99,336,
0,519,828,348,98,334,
0,512,815,345,97,331,
0,507,801,342,96,327,
0,501,790,339,96,324,
0,496,885,336,105,321,
0,491,899,333,103,319,
0,486,881,331,103,316,
0,480,865,327,103,313,
0,507,851,324,102,337,
0,500,836,321,101,367,
0,495,823,318,100,364,
0,489,809,316,99,359,
0,484,797,312,99,357,
0,479,785,310,98,353,
0,474,880,307,110,350,
0,469,900,305,109,347,
0,463,882,303,108,344,
0,460,866,300,107,340,
0,455,851,299,107,364,
0,483,834,347,105,359,
0,478,820,343,103,355,
0,472,807,339,103,352,
0,467,795,336,103,349,
0,462,783,334,102,345,
0,455,893,329,104,342,
0,451,899,327,103,339,
0,448,879,323,103,335,
0,443,864,321,102,332,
0,438,849,319,102,361,
0,486,831,316,100,358,
0,480,818,312,99,355,
0,474,806,310,99,351,
0,469,793,307,98,348,
0,463,783,305,97,344,
0,459,893,302,102,342,
0,455,905,300,100,338,
0,449,888,297,99,335,
0,445,871,295,99,332,
0,440,860,324,99,350,
0,481,846,390,97,345,
0,476,831,385,97,343,
0,471,818,382,96,339,
0,465,806,377,95,336,
0,460,793,375,94,334,
0,455,891,371,96,331,
0,451,903,368,95,327,
0,448,884,364,95,324,
0,443,868,361,94,322,
0,438,854,358,93,345,
0,444,839,376,92,368,
0,438,827,371,92,364,
0,433,813,368,91,359,
0,430,803,364,91,357,
0,425,792,361,89,353,
0,422,851,358,103,350,
0,419,901,355,103,347,
0,415,882,352,101,344,
0,412,866,348,100,340,
0,408,851,345,99,338,
0,446,838,343,99,367,
0,464,824,339,97,363,
0,459,811,336,97,359,
0,454,801,334,96,355,
0,449,788,331,96,352,
0,444,833,327,109,350,
0,440,899,326,108,345,
0,435,878,323,107,343,
0,431,863,319,105,339,
0,427,848,318,104,336,
0,444,835,315,103,353,
0,465,821,312,103,350,
0,459,808,310,102,347,
0,454,795,307,101,343,
0,448,783,304,100,339,
0,444,880,302,108,336,
0,440,900,300,107,333,
0,435,879,297,106,331,
0,431,864,359,105,327,
0,426,849,356,103,349,
0,467,835,353,103,345,
0,460,822,350,103,342,
0,455,808,345,102,338,
0,449,796,343,101,334,
0,444,783,339,100,332,
0,440,894,335,108,327,
0,435,902,333,107,325,
0,431,878,330,106,322,
0,427,863,327,105,319,
0,423,849,351,103,335,
0,438,835,374,103,332,
0,433,821,369,102,329,
0,428,807,365,102,326,
0,423,796,361,100,323,
0,419,783,359,100,319,
0,415,891,355,100,316,
0,411,874,352,99,314,
0,408,859,348,99,312,
0,403,844,345,98,308,
0,399,831,343,97,339,
0,435,817,339,96,335,
0,431,804,336,96,332,
0,426,792,334,95,329,
0,423,780,332,94,326,
0,419,768,328,94,323,
0,415,896,326,94,319,
0,411,883,323,94,317,
0,406,867,319,92,314,
0,402,852,318,92,312,
0,399,839,315,92,355,
0,504,828,312,91,352,
0,497,815,310,90,348,
0,491,802,307,89,344,
0,486,790,305,89,342,
0,480,777,303,88,339,
0,475,863,300,98,335,
0,470,847,297,97,332,
0,466,833,295,96,329,
0,462,819,339,96,327,
0,456,807,461,95,329,
0,496,793,620,94,352,
0,539,781,610,94,348,
0,531,769,602,92,344,
0,526,758,595,92,342,
0,519,750,588,91,338,
0,514,819,581,97,335,
0,508,846,575,96,332,
0,503,831,568,96,329,
0,497,817,562,95,327,
0,492,804,556,94,323,
0,489,792,550,94,358,
0,508,780,545,93,354,
0,502,768,540,92,351,
0,496,756,535,91,347,
0,491,745,529,91,344,
0,486,826,524,96,340,
0,481,891,519,96,337,
0,476,873,513,94,334,
0,471,862,508,94,332,
0,466,847,504,93,327,
0,462,834,499,92,362,
0,492,819,494,92,358,
0,487,807,489,91,355,
0,481,794,484,91,352,
0,476,782,480,89,348,
0,472,771,477,92,345,
0,467,860,472,92,342,
0,462,844,468,91,339,
0,457,830,463,89,335,
0,452,816,460,89,333,
0,448,803,455,88,362,
0,519,791,451,88,358,
0,511,782,448,88,354,
0,505,770,444,87,351,
0,500,760,440,86,348,
0,495,748,436,86,344,
0,489,859,432,91,342,
0,483,843,428,90,339,
0,479,829,425,89,335,
0,473,816,423,88,332,
0,470,803,419,88,339,
0,524,790,415,88,352,
0,553,777,412,87,348,
0,546,766,409,86,345,
0,540,755,406,86,342,
0,534,743,402,84,339,
0,527,871,399,97,335,
0,521,860,396,97,332,
0,516,845,392,96,329,
0,511,831,390,95,327,
0,505,817,387,94,342,
0,543,805,384,94,371,
0,582,792,381,92,367,
0,575,780,379,92,364,
0,569,768,376,91,359,
0,563,756,372,90,356,
0,556,844,370,100,353,
0,550,856,367,99,350,
0,543,842,364,99,347,
0,537,828,361,98,344,
0,531,814,359,97,340,
0,526,802,356,96,363,
0,606,788,353,96,359,
0,598,780,351,95,355,
0,590,768,348,94,352,
0,583,756,345,94,348,
0,575,760,344,97,345,
0,569,871,340,96,343,
0,563,856,338,95,339,
0,556,842,335,94,337,
0,551,828,334,94,334,
0,546,815,332,93,351,
0,643,801,328,92,347,
0,633,789,327,92,344,
0,625,777,324,91,340,
0,617,766,321,89,336,
0,610,755,319,96,334,
0,603,876,317,96,331,
0,595,859,315,96,327,
0,589,845,312,95,324,
0,582,831,311,94,322,
0,575,817,308,93,364,
0,654,804,306,92,364,
0,644,792,304,92,359,
0,636,779,302,91,356,
0,630,768,300,90,353,
0,623,756,298,89,350,
0,615,867,295,92,347,
0,608,851,294,91,343,
0,600,837,291,90,339,
0,593,824,290,89,337,
0,586,809,287,88,340,
0,639,801,312,88,345,
0,648,788,310,88,342,
0,639,775,307,87,338,
0,632,764,304,86,335,
0,624,753,302,86,333,
0,616,841,299,112,329,
0,609,833,295,111,327,
0,601,819,294,110,323,
0,595,806,291,108,319,
0,588,792,289,108,352,
0,632,777,353,107,369,
0,636,766,350,105,366,
0,628,754,346,104,363,
0,620,743,343,103,359,
0,611,733,339,103,355,
0,604,866,335,103,352,
0,596,850,332,102,348,
0,590,836,329,101,345,
0,583,822,327,100,342,
0,575,809,348,99,381,
0,642,796,423,99,376,
0,632,783,419,98,372,
0,624,771,415,97,369,
0,616,760,411,96,366,
0,609,749,407,96,363,
0,602,869,403,105,358,
0,595,853,399,104,355,
0,588,838,395,103,352,
0,581,824,439,103,348,
0,575,811,433,102,376,
0,675,796,429,101,371,
0,664,783,424,100,367,
0,655,771,420,99,364,
0,647,760,416,99,359,
0,638,748,412,98,356,
0,631,892,408,102,353,
0,623,876,404,102,350,
0,615,861,401,100,347,
0,608,847,398,99,344,
0,600,832,393,99,383,
0,635,819,395,98,377,
0,625,806,391,97,374,
0,617,793,387,96,370,
0,610,782,384,96,366,
0,603,772,380,96,363,
0,595,866,376,105,359,
0,588,850,374,104,356,
0,582,831,371,103,353,
0,575,819,368,103,350,
0,569,806,364,102,374,
0,647,792,361,101,368,
0,658,780,358,100,364,
0,647,768,355,99,361,
0,639,758,352,99,358,
0,633,747,349,98,355,
0,625,860,347,99,352,
0,617,844,344,99,348,
0,610,830,340,97,344,
0,603,816,338,96,342,
0,595,803,335,96,369,
0,670,791,333,96,372,
0,702,782,330,95,368,
0,692,769,327,94,364,
0,683,759,325,94,361,
0,673,747,322,92,358,
0,665,860,319,98,355,
0,656,863,317,97,352,
0,648,847,315,96,348,
0,643,833,313,96,345,
0,635,819,311,95,343,
0,628,807,415,94,365,
0,719,795,408,93,361,
0,708,782,404,92,358,
0,699,770,400,92,354,
0,689,759,396,91,351,
0,680,779,393,96,348,
0,671,854,389,95,344,
0,664,839,385,94,341,
0,655,825,382,93,338,
0,647,812,379,92,335,
0,639,799,376,92,371,
0,708,787,371,91,368,
0,701,775,369,90,364,
0,691,764,366,89,359,
0,683,752,363,89,357,
0,673,771,359,98,354,
0,665,873,356,97,351,
0,656,857,353,96,347,
0,648,843,351,95,344,
0,639,831,348,95,342,
0,633,819,501,94,384,
0,700,806,524,93,379,
0,689,793,518,92,376,
0,679,781,512,92,372,
0,671,769,507,91,369,
0,663,758,502,92,366,
0,655,892,497,94,361,
0,647,876,492,93,359,
0,639,860,487,92,355,
0,632,846,482,92,352,
0,625,831,478,91,376,
0,664,819,472,90,371,
0,655,805,468,89,368,
0,647,796,463,89,364,
0,639,783,459,88,360,
0,631,771,455,88,358,
0,623,882,451,103,354,
0,615,871,447,103,351,
0,608,857,452,102,348,
0,601,839,486,100,344,
0,595,825,480,99,380,
0,655,812,475,99,380,
0,647,799,470,97,376,
0,639,790,465,97,371,
0,632,777,460,96,368,
0,623,767,455,96,365,
0,615,881,451,108,361,
0,608,884,448,107,358,
0,600,868,443,105,355,
0,593,849,440,104,352,
0,587,835,435,103,384,
0,647,822,431,103,390,
0,665,808,427,103,386,
0,656,796,423,102,383,
0,646,783,419,100,377,
0,638,772,415,100,374,
0,630,887,412,103,371,
0,622,870,408,103,367,
0,615,856,404,103,364,
0,608,838,401,102,359,
0,600,824,398,100,394,
0,644,811,395,99,390,
0,636,798,391,99,385,
0,627,785,388,98,382,
0,620,774,384,97,378,
0,611,765,382,97,375,
0,604,891,379,105,371,
0,597,878,376,104,367,
0,590,862,372,103,364,
0,583,847,369,103,359,
0,577,833,367,102,399,
0,647,820,364,101,393,
0,636,807,361,100,390,
0,628,795,358,99,386,
0,620,783,355,99,382,
0,614,771,352,98,379,
0,607,895,350,98,375,
0,600,881,347,97,371,
0,591,865,344,97,368,
0,585,851,400,96,364,
0,579,836,396,96,375,
0,646,823,391,95,371,
0,636,813,388,94,367,
0,627,799,384,93,363,
0,620,787,381,93,359,
0,612,775,377,92,356,
0,605,889,374,94,354,
0,598,898,371,94,351,
0,590,880,368,92,348,
0,583,864,396,92,345,
0,579,849,404,91,342,
0,588,835,400,91,376,
0,639,822,396,89,371,
0,631,808,392,89,368,
0,622,796,389,88,364,
0,615,783,385,88,361,
0,608,835,382,92,358,
0,600,877,378,92,354,
0,592,862,375,91,351,
0,585,847,371,90,348,
0,579,833,368,89,345,
0,575,820,383,89,345,
0,647,807,379,88,342,
0,638,793,376,88,339,
0,632,782,372,87,335,
0,624,770,369,86,333,
0,616,816,366,93,331,
0,609,870,363,92,327,
0,602,854,359,91,324,
0,595,839,356,91,322,
0,588,825,353,89,319,
0,582,816,460,89,366,
0,675,803,499,88,361,
0,665,791,494,88,359,
0,657,779,487,87,355,
0,648,767,483,87,352,
0,639,755,478,91,349,
0,632,878,472,96,345,
0,627,862,469,95,343,
0,619,847,464,94,339,
0,611,831,460,93,336,
0,604,819,455,92,384,
0,696,806,451,92,379,
0,685,793,447,91,375,
0,675,781,443,90,371,
0,667,772,439,89,368,
0,658,761,435,89,364,
0,650,880,431,97,359,
0,641,863,427,96,357,
0,634,847,423,95,355,
0,627,834,419,95,352,
0,619,820,415,94,358,
0,657,807,412,93,379,
0,700,795,408,92,375,
0,691,782,405,92,371,
0,681,771,401,91,367,
0,671,760,398,90,364,
0,664,878,395,105,359,
0,655,862,391,104,357,
0,647,847,388,103,353,
0,639,831,385,103,351,
0,630,819,382,102,348,
0,666,806,377,101,351,
0,657,793,375,100,347,
0,647,781,371,99,344,
0,639,769,369,99,340,
0,632,758,366,98,339,
0,624,885,363,103,335,
0,616,874,359,103,332,
0,609,859,357,102,329,
0,603,845,354,100,326,
0,595,827,352,100,378,
0,671,814,348,99,372,
0,660,801,345,98,369,
0,651,792,344,97,365,
0,643,780,340,97,361,
0,635,768,338,96,359,
0,627,882,335,98,355,
0,619,871,333,97,352,
0,611,856,331,96,349,
0,605,843,415,96,346,
0,600,828,412,95,343,
0,598,815,450,94,353,
0,657,801,445,93,349,
0,649,790,440,93,345,
0,639,777,435,92,343,
0,632,766,432,91,339,
0,625,879,428,92,336,
0,617,886,423,91,334,
0,609,869,419,91,331,
0,603,854,415,90,327,
0,595,839,411,89,325,
0,589,827,485,88,359,
0,652,812,479,88,356,
0,642,799,473,88,352,
0,634,787,470,87,349,
0,628,775,465,86,346,
0,620,815,460,96,343,
0,612,896,455,94,339,
0,606,878,451,94,336,
0,598,862,447,93,334,
0,591,847,442,92,331,
0,583,837,439,92,376,
0,656,824,433,91,372,
0,647,810,430,89,368,
0,639,798,425,89,365,
0,631,785,422,88,363,
0,623,774,418,92,359,
0,615,875,414,98,355,
0,608,859,412,97,352,
0,603,844,408,97,349,
0,595,830,404,96,346,
0,588,816,400,95,390,
0,662,803,397,94,385,
0,652,792,393,94,381,
0,643,779,390,93,377,
0,635,768,387,92,374,
0,627,759,384,92,370,
0,620,881,380,94,367,
0,611,865,377,93,364,
0,604,850,374,92,359,
0,598,835,371,92,358,
0,590,822,368,91,355,
0,655,809,365,90,384,
0,648,796,363,89,380,
0,639,783,359,89,377,
0,632,772,357,88,374,
0,624,761,354,88,369,
0,616,887,352,98,366,
0,608,891,348,97,363,
0,601,872,346,96,359,
0,594,861,344,96,356,
0,588,847,340,95,353,
0,585,833,337,94,367,
0,633,819,335,93,363,
0,624,807,332,92,359,
0,617,794,330,92,356,
0,609,782,327,91,353,
0,604,848,326,94,350,
0,596,896,323,94,347,
0,589,879,321,93,344,
0,583,863,318,92,340,
0,575,848,316,91,337,
0,570,835,403,91,380,
0,658,821,401,89,376,
0,648,811,398,89,371,
0,639,798,393,88,368,
0,632,786,390,88,364,
0,624,775,386,100,361,
0,616,899,383,103,358,
0,609,886,379,102,355,
0,601,865,376,100,352,
0,595,851,371,100,348,
0,588,837,368,99,354,
0,705,824,365,98,351,
0,695,809,361,97,347,
0,686,797,359,97,344,
0,676,788,355,96,340,
0,668,776,352,98,337,
0,659,886,350,99,335,
0,651,870,347,99,332,
0,643,855,419,98,330,
0,636,840,511,97,327,
0,627,826,504,96,352,
0,684,813,499,96,348,
0,678,799,493,95,345,
0,668,787,487,94,342,
0,659,775,483,93,339,
0,652,764,478,96,335,
0,643,893,473,103,332,
0,635,876,468,103,329,
0,627,861,463,101,327,
0,620,847,460,100,323,
0,611,831,454,99,368,
0,646,819,451,99,364,
0,636,806,446,98,359,
0,628,793,441,97,356,
0,620,781,438,96,353,
0,612,769,434,96,350,
0,606,891,430,95,347,
0,599,874,426,94,344,
0,591,863,422,94,340,
0,585,848,419,93,337,
0,579,834,415,92,369,
0,632,821,422,92,366,
0,624,807,417,91,363,
0,615,796,414,90,359,
0,608,783,410,89,355,
0,600,771,408,89,352,
0,595,888,403,107,349,
0,587,893,399,106,346,
0,579,875,396,105,342,
0,573,860,392,103,339,
0,568,845,390,103,376,
0,561,831,386,103,371,
0,555,815,384,102,367,
0,550,802,380,101,364,
0,543,790,376,100,359,
0,538,777,374,100,356,
0,532,896,371,108,353,
0,526,893,367,107,350,
0,520,875,364,106,345,
0,515,860,360,105,343,
0,511,845,358,104,352,
0,515,831,355,103,348,
0,509,815,352,103,345,
0,504,802,350,102,342,
0,499,790,347,100,339,
0,495,777,344,104,335,
0,489,899,342,105,332,
0,484,888,338,104,329,
0,480,871,335,103,326,
0,480,856,346,103,323,
0,475,843,343,103,358,
0,472,828,339,102,354,
0,467,811,336,100,351,
0,463,799,334,99,347,
0,459,786,331,99,344,
0,455,777,327,102,340,
0,450,899,326,106,337,
0,446,881,323,105,335,
0,442,865,320,103,332,
0,483,851,318,103,327,
0,476,838,319,103,366,
0,472,824,316,102,360,
0,467,811,314,100,357,
0,463,798,312,99,353,
0,457,785,310,99,351,
0,453,822,307,105,347,
0,448,903,305,104,344,
0,444,901,302,103,340,
0,440,880,300,103,337,
0,435,861,298,102,335,
0,432,847,295,100,374,
0,478,833,294,99,369,
0,472,819,292,99,366,
0,467,807,290,98,363,
0,462,794,287,97,359,
0,457,811,286,103,355,
0,452,897,284,103,352,
0,448,879,282,102,349,
0,443,864,280,101,345,
0,439,849,279,100,343,
0,435,835,277,99,364,
0,449,822,275,99,360,
0,444,808,273,98,358,
0,440,796,271,97,354,
0,435,783,270,96,351,
0,431,848,268,103,347,
0,427,887,266,103,344,
0,423,871,263,102,340,
0,419,856,263,102,337,
0,415,841,260,100,335,
0,436,828,323,99,354,
0,476,814,319,99,351,
0,471,801,318,98,347,
0,467,788,314,97,344,
0,462,777,312,96,340,
0,457,837,308,102,337,
0,451,872,306,101,335,
0,448,857,304,100,332,
0,441,843,300,99,327,
0,437,828,298,99,326,
0,434,816,376,97,355,
0,528,802,370,97,352,
0,521,790,366,96,348,
0,515,777,363,96,345,
0,510,766,359,95,342,
0,504,812,355,99,339,
0,499,868,352,98,335,
0,493,856,349,97,332,
0,487,842,346,96,329,
0,483,828,344,96,327,
0,478,815,340,95,369,
0,556,801,337,94,366,
0,550,789,334,94,362,
0,543,777,332,93,359,
0,539,766,329,92,355,
0,532,755,327,95,352,
0,527,867,323,98,348,
0,519,851,321,97,345,
0,515,838,319,96,343,
0,509,824,316,96,339,
0,504,811,325,95,388,
0,590,800,372,94,384,
0,581,788,368,94,380,
0,574,775,364,93,376,
0,567,764,361,92,372,
0,560,753,358,92,370,
0,554,886,355,99,367,
0,547,871,352,98,363,
0,543,856,349,97,359,
0,536,841,345,96,356,
0,531,828,343,96,353,
0,567,815,339,95,355,
0,617,801,336,94,352,
0,609,789,334,93,348,
0,602,777,331,92,345,
0,595,768,327,92,342,
0,588,844,326,99,339,
0,580,859,323,99,335,
0,574,844,319,98,333,
0,568,830,317,97,331,
0,561,816,315,96,327,
0,575,804,312,96,376,
0,637,791,311,95,371,
0,631,779,308,94,368,
0,622,768,305,93,364,
0,615,755,303,92,359,
0,607,829,300,97,356,
0,600,869,298,96,353,
0,592,854,295,96,350,
0,585,843,294,95,347,
0,579,829,291,94,344,
0,572,816,312,94,368,
0,652,803,307,93,364,
0,642,790,305,92,361,
0,634,778,303,92,358,
0,626,766,300,91,354,
0,619,755,297,99,352,
0,613,883,295,102,348,
0,604,866,291,102,344,
0,596,851,289,100,340,
0,590,838,371,99,337,
0,583,824,407,99,377,
0,679,811,401,98,372,
0,671,798,398,97,369,
0,664,785,393,96,366,
0,655,774,390,96,361,
0,647,762,386,113,359,
0,639,897,383,114,355,
0,628,883,379,113,352,
0,621,867,375,112,348,
0,614,852,371,111,344,
0,607,838,390,110,384,
0,671,824,385,109,380,
0,664,807,382,108,376,
0,655,795,377,108,372,
0,646,783,375,107,369,
0,638,819,371,108,366,
0,630,899,368,107,361,
0,620,883,364,105,359,
0,613,867,359,104,355,
0,606,852,357,103,352,
0,600,839,431,103,376,
0,641,824,425,102,372,
0,633,808,421,102,369,
0,625,796,416,100,365,
0,617,783,412,99,361,
0,610,874,408,101,359,
0,603,889,404,100,355,
0,595,872,401,99,352,
0,588,857,397,99,348,
0,582,843,393,97,345,
0,575,830,390,97,344,
0,667,816,387,96,340,
0,657,806,384,96,337,
0,648,793,380,95,335,
0,639,781,376,94,332,
0,632,785,373,109,328,
0,624,875,369,108,326,
0,617,860,367,107,323,
0,609,841,363,105,319,
0,603,828,396,104,318,
0,596,815,487,103,335,
0,655,801,481,103,332,
0,645,789,476,102,329,
0,637,776,470,101,326,
0,629,765,465,100,323,
0,622,828,460,103,319,
0,614,862,455,102,316,
0,606,847,451,100,313,
0,600,830,447,99,312,
0,591,816,443,99,308,
0,604,807,439,98,352,
0,671,793,435,97,349,
0,664,782,431,97,345,
0,654,769,427,96,342,
0,646,759,423,96,339,
0,638,828,419,102,335,
0,630,878,415,101,332,
0,622,862,412,100,329,
0,615,847,408,99,327,
0,608,833,404,99,323,
0,606,820,400,98,370,
0,686,807,397,97,367,
0,675,794,393,96,364,
0,667,782,391,96,359,
0,660,770,387,95,356,
0,652,801,384,99,353,
0,643,862,382,98,350,
0,636,847,378,97,347,
0,628,833,376,96,344,
0,620,819,371,96,340,
0,614,807,369,95,376,
0,675,797,366,94,371,
0,665,784,363,94,368,
0,656,772,359,93,364,
0,647,761,358,92,359,
0,639,750,355,95,358,
0,632,867,352,103,353,
0,624,851,349,103,350,
0,616,836,346,102,347,
0,609,824,344,100,344,
0,603,807,341,99,374,
0,682,797,338,99,369,
0,671,784,335,98,366,
0,664,772,333,97,362,
0,655,761,330,97,359,
0,647,750,327,96,356,
0,638,872,326,99,352,
0,631,856,323,98,350,
0,624,842,321,97,346,
0,617,828,319,96,343,
0,610,815,324,96,358,
0,662,801,396,95,354,
0,652,790,391,94,351,
0,643,777,388,93,347,
0,635,766,384,92,344,
0,627,757,380,92,341,
0,620,880,377,98,337,
0,612,863,374,97,335,
0,604,847,370,97,332,
0,598,833,367,96,329,
0,591,820,364,95,327,
0,674,807,359,95,364,
0,664,794,358,94,359,
0,657,782,355,93,356,
0,648,771,352,92,353,
0,639,759,348,92,350,
0,632,882,345,103,347,
0,624,868,343,102,344,
0,617,854,339,101,340,
0,608,839,337,100,337,
0,601,825,334,99,339,
0,678,812,352,99,393,
0,672,799,350,98,390,
0,664,787,347,97,385,
0,655,775,344,96,382,
0,647,764,340,95,378,
0,639,880,337,103,375,
0,630,865,334,103,371,
0,623,851,332,103,368,
0,613,836,327,102,364,
0,606,823,326,101,369,
0,667,809,384,100,366,
0,660,796,379,99,363,
0,652,783,376,98,359,
0,643,772,372,97,356,
0,635,761,368,96,353,
0,627,871,366,99,351,
0,622,871,363,98,348,
0,614,856,359,97,344,
0,607,842,355,96,341,
0,600,828,353,96,338,
0,593,815,350,95,361,
0,655,801,347,94,358,
0,647,790,344,94,355,
0,639,780,340,92,351,
0,632,768,337,92,348,
0,624,803,335,103,344,
0,615,881,332,102,342,
0,608,862,329,100,338,
0,601,847,327,99,335,
0,594,833,415,99,332,
0,588,824,409,98,377,
0,643,810,406,97,374,
0,635,798,401,96,370,
0,627,785,398,96,366,
0,619,773,393,95,364,
0,611,792,390,103,359,
0,604,883,387,102,355,
0,597,867,384,101,352,
0,590,851,380,99,350,
0,583,838,376,99,347,
0,577,824,396,98,382,
0,609,811,391,97,379,
0,601,798,387,97,375,
0,594,785,384,96,371,
0,587,774,381,95,368,
0,582,771,377,98,364,
0,575,881,374,97,360,
0,568,865,370,96,357,
0,562,851,367,96,354,
0,556,836,364,95,351,
0,551,823,361,94,348,
0,586,812,358,94,344,
0,579,799,355,92,342,
0,572,787,352,92,339,
0,564,775,348,91,335,
0,558,764,345,92,334,
0,551,893,343,96,331,
0,545,879,339,96,327,
0,540,863,337,95,325,
0,536,848,335,94,322,
0,530,834,332,94,348,
0,569,821,415,93,344,
0,563,807,411,92,340,
0,556,796,407,92,337,
0,548,783,402,91,335,
0,542,771,398,90,332,
0,536,887,395,98,327,
0,531,896,391,97,326,
0,524,878,387,97,322,
0,519,863,384,96,319,
0,514,847,380,95,318,
0,546,834,376,94,352,
0,539,820,374,94,348,
0,534,807,371,93,344,
0,527,795,368,92,342,
0,521,783,364,91,338,
0,516,881,361,98,335,
0,511,883,358,97,332,
0,505,867,355,96,329,
0,500,854,352,95,326,
0,496,842,349,95,323,
0,492,828,388,94,345,
0,540,815,384,93,342,
0,534,802,380,92,339,
0,527,790,377,92,335,
0,521,777,374,91,333,
0,516,807,370,102,329,
0,511,884,367,100,326,
0,504,868,363,99,323,
0,499,853,359,99,321,
0,494,839,356,97,318,
0,489,825,375,97,367,
0,536,812,371,96,363,
0,529,799,368,95,359,
0,524,787,364,95,355,
0,518,775,360,94,352,
0,512,797,358,107,349,
0,506,886,354,105,345,
0,500,868,351,104,343,
0,495,854,348,103,339,
0,488,839,344,103,335,
0,484,826,342,103,349,
0,552,813,339,102,345,
0,546,799,335,100,343,
0,540,787,333,100,339,
0,534,772,331,99,335,
0,527,858,327,105,333,
0,521,883,325,103,330,
0,515,867,323,103,327,
0,510,852,319,103,324,
0,504,838,318,102,321,
0,521,825,366,100,363,
0,562,812,360,100,358,
0,556,799,358,99,355,
0,549,787,354,99,352,
0,543,775,351,97,348,
0,536,839,348,105,345,
0,530,878,344,103,341,
0,524,862,341,103,338,
0,519,847,338,102,335,
0,513,833,335,101,332,
0,519,816,332,100,363,
0,563,803,329,99,359,
0,556,792,327,99,355,
0,550,782,323,97,352,
0,543,771,321,97,349,
0,537,824,319,103,345,
0,531,889,316,103,343,
0,525,868,313,103,339,
0,519,854,312,101,335,
0,513,839,308,100,333,
0,520,825,338,99,368,
0,591,812,335,99,365,
0,584,799,331,98,361,
0,577,787,327,97,358,
0,570,775,325,96,355,
0,563,819,323,111,351,
0,557,880,319,110,348,
0,551,864,316,108,344,
0,544,850,313,108,342,
0,539,835,312,107,338,
0,533,822,308,105,376,
0,527,808,305,105,371,
0,521,796,303,103,368,
0,515,783,301,103,364,
0,510,772,299,103,359,
0,505,877,295,112,356,
0,499,892,294,112,353,
0,495,874,292,111,350,
0,489,859,345,110,347,
0,484,844,358,108,361,
0,516,831,354,108,365,
0,511,817,350,107,359,
0,504,804,347,106,357,
0,499,792,344,105,353,
0,493,780,340,104,351,
0,487,889,337,113,347,
0,483,875,334,111,344,
0,478,859,331,111,340,
0,473,845,327,110,337,
0,469,831,340,108,374,
0,515,817,390,108,369,
0,508,804,385,107,364,
0,503,792,381,106,361,
0,497,780,377,105,358,
0,492,768,374,104,354,
0,487,896,371,105,352,
0,481,879,367,103,348,
0,476,864,364,103,344,
0,472,849,359,103,342,
0,467,836,403,102,360,
0,531,822,401,101,356,
0,526,808,396,100,352,
0,519,796,391,99,350,
0,513,783,388,99,347,
0,508,772,385,102,344,
0,502,880,382,100,339,
0,496,864,377,100,336,
0,491,850,375,99,334,
0,486,835,371,99,331,
0,481,823,440,97,356,
0,571,808,435,97,352,
0,563,796,430,96,349,
0,556,783,427,95,345,
0,551,772,423,95,342,
0,545,760,419,96,339,
0,539,891,415,96,335,
0,533,873,411,95,333,
0,527,858,407,94,329,
0,521,844,403,93,327,
0,515,830,461,92,324,
0,552,820,505,92,321,
0,545,807,499,92,319,
0,539,795,494,91,316,
0,532,782,488,90,313,
0,527,770,483,89,312,
0,520,894,479,105,308,
0,515,889,473,103,305,
0,510,872,468,103,304,
0,504,857,463,103,301,
0,499,843,460,102,340,
0,494,825,455,101,336,
0,488,812,451,100,333,
0,483,799,447,99,330,
0,479,787,442,99,327,
0,474,775,439,102,324,
0,470,899,434,105,321,
0,464,894,431,103,318,
0,460,875,427,103,316,
0,489,860,422,103,312,
0,484,846,418,102,342,
0,479,831,415,101,337,
0,473,818,411,100,335,
0,468,806,407,99,332,
0,463,792,403,99,327,
0,458,781,400,99,326,
0,454,897,396,103,322,
0,449,886,393,103,319,
0,446,869,390,103,316,
0,444,851,387,102,313,
0,440,838,390,100,356,
0,438,824,386,100,352,
0,433,810,383,99,349,
0,431,798,379,98,345,
0,427,785,376,97,342,
0,423,798,373,104,339,
0,419,900,370,103,335,
0,415,888,367,103,333,
0,412,871,364,102,329,
0,408,856,359,102,327,
0,404,842,359,100,358,
0,401,828,356,99,353,
0,398,815,353,99,352,
0,395,802,351,98,348,
0,391,790,348,97,344,
0,389,781,346,105,342,
0,385,899,343,103,337,
0,383,888,340,103,334,
0,379,871,337,103,331,
0,376,856,335,102,327,
0,374,843,332,101,366,
0,412,825,329,99,362,
0,407,815,327,99,359,
0,403,802,324,99,355,
0,399,790,322,97,352,
0,395,778,319,103,348,
0,391,899,318,103,345,
0,387,886,316,103,342,
0,384,866,312,102,339,
0,380,851,311,101,335,
0,376,837,308,100,366,
0,383,824,306,99,363,
0,379,810,304,99,359,
0,375,798,302,97,355,
0,371,785,300,97,352,
0,368,830,297,108,348,
0,366,902,295,106,345,
0,363,888,293,105,342,
0,359,871,291,103,339,
0,356,856,289,103,335,
0,355,843,378,103,368,
0,403,828,374,102,364,
0,398,816,370,101,361,
0,394,803,366,100,358,
0,390,787,363,99,354,
0,387,812,359,110,351,
0,383,894,356,109,348,
0,379,876,353,108,344,
0,376,860,350,107,342,
0,371,846,393,106,338,
0,368,831,390,105,377,
0,391,818,385,103,374,
0,388,806,381,103,369,
0,384,793,377,103,366,
0,381,781,374,102,362,
0,377,856,371,103,359,
0,374,878,367,103,355,
0,369,863,364,102,352,
0,366,847,360,101,349,
0,364,834,358,99,359,
0,359,820,354,99,389,
0,358,807,352,98,385,
0,354,795,348,97,381,
0,352,783,345,96,377,
0,349,774,342,96,374,
0,347,851,339,110,371,
0,344,887,336,109,367,
0,341,870,334,108,364,
0,339,856,331,107,359,
0,335,841,327,107,356,
0,340,827,326,105,367,
0,369,814,322,104,363,
0,366,800,319,103,359,
0,362,788,317,103,355,
0,359,776,314,102,352,
0,355,883,312,105,349,
0,352,883,309,103,345,
0,348,866,307,103,343,
0,345,852,304,102,339,
0,342,838,302,102,359,
0,417,824,364,100,354,
0,448,811,359,99,351,
0,444,798,357,99,347,
0,440,786,353,98,344,
0,435,774,350,97,340,
0,431,878,347,103,337,
0,426,862,344,103,335,
0,423,847,341,102,332,
0,417,832,337,101,328,
0,413,819,334,100,376,
0,533,807,332,99,371,
0,525,793,327,98,368,
0,519,781,326,97,364,
0,512,769,323,97,361,
0,508,759,321,96,358,
0,504,864,318,104,354,
0,496,849,316,103,352,
0,491,835,312,103,347,
0,486,821,310,102,344,
0,480,807,323,101,347,
0,574,795,374,100,343,
0,564,782,369,99,339,
0,558,771,366,99,336,
0,551,760,363,98,334,
0,544,748,359,97,331,
0,539,886,355,103,327,
0,532,870,352,102,325,
0,527,855,350,101,322,
0,520,837,347,100,319,
0,515,824,344,99,369,
0,607,810,340,99,365,
0,597,799,337,98,361,
0,589,787,335,97,358,
0,582,775,332,96,354,
0,575,764,328,96,352,
0,568,889,326,106,348,
0,562,881,323,105,344,
0,556,865,321,103,342,
0,550,851,318,103,338,
0,543,833,315,102,335,
0,591,819,312,101,333,
0,583,807,310,100,330,
0,577,794,307,99,327,
0,570,782,305,99,323,
0,563,770,303,98,321,
0,557,894,300,103,318,
0,551,880,297,103,316,
0,543,864,295,102,313,
0,536,849,294,101,311,
0,531,835,308,100,328,
0,546,822,310,99,326,
0,540,808,306,99,323,
0,534,796,304,97,319,
0,527,783,301,97,317,
0,523,771,299,96,315,
0,518,892,295,104,312,
0,512,878,294,103,308,
0,505,862,291,103,306,
0,500,847,288,102,303,
0,496,833,307,101,327,
0,491,819,307,100,323,
0,486,807,304,99,321,
0,481,795,302,99,318,
0,476,782,299,98,315,
0,472,770,295,97,312,
0,467,894,294,103,309,
0,463,881,291,102,307,
0,459,866,289,102,304,
0,454,851,287,100,301,
0,450,835,333,99,336,
0,446,824,348,99,333,
0,441,810,344,98,329,
0,438,798,340,97,327,
0,433,785,337,97,323,
0,430,773,334,96,321,
0,426,882,332,100,318,
0,423,865,327,99,315,
0,419,851,326,98,312,
0,415,836,323,97,310,
0,412,823,319,97,340,
0,440,809,318,96,338,
0,435,797,315,95,335,
0,430,784,312,94,332,
0,425,772,310,94,327,
0,422,761,307,93,326,
0,417,890,304,108,323,
0,413,890,302,107,319,
0,409,872,300,106,316,
0,406,857,297,105,313,
0,429,844,295,103,327,
0,426,829,331,103,339,
0,422,816,327,103,335,
0,417,803,324,102,332,
0,413,791,321,100,329,
0,408,775,318,99,327,
0,405,890,316,103,323,
0,401,881,312,103,319,
0,398,865,310,102,317,
0,395,851,307,102,315,
0,391,837,304,100,351,
0,387,824,327,99,347,
0,385,810,324,99,344,
0,382,797,322,98,340,
0,379,785,319,97,337,
0,376,774,316,99,334,
0,372,895,313,105,331,
0,369,881,310,105,327,
0,366,865,307,103,324,
0,364,851,305,103,322,
0,359,837,303,103,364,
0,396,823,329,102,359,
0,391,809,327,100,355,
0,388,797,323,99,352,
0,384,785,320,99,348,
0,380,774,318,98,345,
0,376,896,315,108,342,
0,372,893,312,107,339,
0,369,875,309,105,335,
0,366,860,307,105,332,
0,363,845,312,103,371,
0,432,828,331,103,367,
0,427,814,327,102,363,
0,423,801,324,102,359,
0,417,790,321,100,356,
0,413,777,319,103,353,
0,408,895,315,104,348,
0,404,878,312,103,345,
0,400,863,310,103,343,
0,397,848,307,102,339,
0,393,834,304,102,366,
0,463,817,302,100,361,
0,458,804,299,99,359,
0,453,792,296,99,355,
0,448,780,294,97,352,
0,444,771,291,102,348,
0,439,897,289,106,344,
0,434,880,287,105,342,
0,430,864,285,103,339,
0,425,850,283,103,335,
0,421,836,316,103,384,
0,513,822,312,102,377,
0,507,809,308,101,374,
0,500,796,306,100,371,
0,496,783,303,99,367,
0,490,803,300,101,364,
0,484,878,297,100,359,
0,480,860,295,99,356,
0,474,848,293,99,353,
0,470,833,290,97,350,
0,465,821,327,97,356,
0,549,807,323,96,353,
0,542,795,320,96,350,
0,536,783,318,95,347,
0,529,771,315,94,344,
0,525,778,312,101,341,
0,518,878,310,100,337,
0,512,863,306,99,335,
0,507,847,304,99,332,
0,502,833,301,97,328,
0,497,820,299,97,364,
0,568,807,295,96,359,
0,560,794,294,95,356,
0,553,782,291,95,353,
0,547,771,289,94,350,
0,540,771,287,99,347,
0,535,888,284,99,344,
0,528,875,282,98,340,
0,523,859,280,97,337,
0,517,845,278,96,334,
0,511,831,302,96,379,
0,596,817,351,95,376,
0,588,804,348,94,371,
0,582,792,344,93,368,
0,575,780,342,92,364,
0,569,768,338,92,361,
0,563,878,335,96,357,
0,556,862,332,95,353,
0,550,847,329,94,351,
0,543,832,326,94,348,
0,537,819,323,93,376,
0,595,809,352,92,376,
0,588,796,348,92,372,
0,580,783,345,91,368,
0,573,772,342,90,365,
0,567,760,339,89,363,
0,560,872,335,93,359,
0,553,866,333,92,355,
0,548,851,331,92,352,
0,543,837,327,91,349,
0,536,823,324,90,346,
0,531,809,359,89,371,
0,583,797,355,88,367,
0,575,785,352,88,363,
0,569,773,349,87,359,
0,562,764,345,87,356,
0,556,807,343,102,353,
0,550,887,339,101,350,
0,543,870,336,99,346,
0,537,855,334,99,344,
0,531,844,331,98,340,
0,526,830,327,97,379,
0,575,816,324,97,376,
0,568,803,322,96,371,
0,560,792,319,95,369,
0,554,779,316,94,365,
0,547,780,313,105,361,
0,542,868,312,103,358,
0,536,854,308,103,354,
0,529,839,306,103,352,
0,524,825,304,102,348,
0,519,809,359,100,384,
0,553,796,355,99,381,
0,547,783,352,99,376,
0,540,772,348,98,373,
0,534,764,345,97,369,
0,527,790,343,108,366,
0,522,899,339,108,363,
0,516,880,335,106,359,
0,511,864,333,105,355,
0,505,849,330,103,353,
0,501,836,383,103,391,
0,552,822,377,103,388,
0,544,808,372,102,384,
0,537,796,369,101,380,
0,531,783,366,100,376,
0,526,854,361,100,372,
0,519,897,359,99,368,
0,514,880,355,98,366,
0,509,864,455,97,361,
0,504,849,449,97,359,
0,499,835,444,96,402,
0,534,822,440,96,398,
0,527,808,435,95,394,
0,520,796,432,94,390,
0,516,783,428,93,387,
0,511,851,423,105,383,
0,505,903,419,104,379,
0,498,896,415,103,376,
0,493,877,411,103,371,
0,487,862,408,102,368,
0,489,847,403,101,365,
0,560,833,399,100,361,
0,551,816,396,99,358,
0,545,807,391,99,355,
0,540,795,389,98,352,
0,534,845,386,109,348,
0,527,903,383,108,345,
0,521,903,379,107,343,
0,516,882,376,105,339,
0,510,867,373,104,337,
0,505,852,420,103,380,
0,524,838,415,103,376,
0,516,824,411,103,371,
0,511,811,407,102,367,
0,504,799,403,100,364,
0,499,880,399,117,359,
0,494,898,395,115,357,
0,489,875,391,115,353,
0,484,860,387,113,350,
0,480,846,384,112,360,
0,499,831,381,112,384,
0,507,818,377,111,379,
0,499,806,374,110,376,
0,494,793,370,109,371,
0,487,781,367,108,368,
0,483,893,364,110,364,
0,478,902,360,108,359,
0,473,880,358,107,357,
0,468,864,355,107,353,
0,463,850,390,106,401,
0,526,836,553,105,396,
0,519,822,545,103,391,
0,511,809,537,103,387,
0,505,797,531,103,384,
0,500,784,526,103,380,
0,495,897,519,107,376,
0,489,888,514,106,372,
0,483,867,509,105,368,
0,479,852,504,103,365,
0,473,839,499,103,395,
0,547,824,494,103,391,
0,540,812,488,102,387,
0,532,799,483,101,382,
0,526,787,478,100,377,
0,520,782,473,105,375,
0,515,899,470,105,371,
0,508,888,464,103,367,
0,504,867,460,103,364,
0,497,853,455,103,360,
0,492,839,452,102,362,
0,531,825,448,101,359,
0,526,812,444,100,355,
0,518,799,439,99,352,
0,512,787,436,98,349,
0,508,843,432,103,346,
0,501,901,428,103,343,
0,496,888,423,102,339,
0,490,871,420,102,336,
0,486,856,416,100,334,
0,480,841,413,99,351,
0,490,828,409,99,348,
0,485,815,406,98,344,
0,480,802,403,97,342,
0,475,790,399,96,339,
0,470,844,396,109,335,
0,465,896,392,108,332,
0,460,877,390,107,328,
0,455,862,387,106,326,
0,451,847,384,105,323,
0,448,830,380,103,352,
0,518,816,377,103,348,
0,512,803,374,102,344,
0,506,792,371,102,341,
0,500,779,368,100,338,
0,494,860,364,104,334,
0,487,863,361,103,331,
0,483,847,359,103,327,
0,478,833,398,102,325,
0,472,819,398,101,322,
0,507,803,394,100,319,
0,532,791,391,99,317,
0,526,779,387,99,314,
0,519,768,384,98,312,
0,515,759,380,97,310,
0,509,859,376,103,307,
0,504,893,372,103,304,
0,497,871,369,103,302,
0,492,856,380,102,300,
0,487,842,499,100,314,
0,508,828,494,99,350,
0,543,815,487,99,346,
0,536,802,483,98,343,
0,529,790,478,97,339,
0,524,777,473,96,336,
0,518,887,468,107,333,
0,512,876,463,105,330,
0,507,860,459,104,327,
0,501,846,455,103,324,
0,496,831,450,103,322,
0,536,818,445,102,359,
0,530,805,440,102,355,
0,524,792,436,100,352,
0,518,780,432,99,349,
0,512,768,428,99,345,
0,507,886,424,102,342,
0,500,892,421,102,339,
0,496,874,417,100,335,
0,490,856,414,99,333,
0,485,844,409,99,374,
0,530,831,407,98,373,
0,523,817,403,97,369,
0,516,804,399,96,366,
0,511,792,396,96,363,
0,505,780,391,95,359,
0,499,888,390,107,355,
0,494,905,385,105,352,
0,488,905,383,103,348,
0,483,883,380,103,345,
0,479,867,378,103,359,
0,527,849,442,102,368,
0,524,835,438,101,364,
0,518,822,433,99,360,
0,512,809,428,99,358,
0,506,797,423,98,354,
0,500,896,420,105,351,
0,496,905,415,104,348,
0,489,891,412,103,344,
0,485,873,510,103,341,
0,480,858,504,102,365,
0,519,844,499,101,381,
0,513,830,492,100,376,
0,508,817,487,99,374,
0,502,804,482,99,369,
0,496,792,477,98,367,
0,491,892,473,107,363,
