=~=~=~=~=~=~=~=~=~=~=~= PuTTY log 2021.04.22 11:34:56 =~=~=~=~=~=~=~=~=~=~=~=
,8
0,404,911,494,143,417,
0,400,911,487,143,413,
0,396,894,483
0,430,814,460,111,440,
0,425,865,519,120,434,
0,420,904,512,120,435,113,455,
0,440,840,470,112,449,
0,434,827,464,112,444,
0,430,814,460,111,440,
0,425,865,519,120,434,
0,420,904,512,120,430,
0,416,911,506,118,425,
0,412,905,434,827,464,112,444,
0,430,814,460,111,440,
0,425,865,519,120,434,
0,420,904,512,120,430,
0,416,911,506,118,425,
0,412,905,500,118,422,
0,408,881,496,116,439,
0,450,866,490,115,449,
0,444,851,485,115,444,
bbbbbbj
0,434,824,473,112,433,
0,429,812,4StartUp!
124,211,819,495,243,385,
0,209,809,492,242,382,
0,207,800,487,255,380,
0,206,898,567,254,376,
0,205,907,561,252,374,
0,204,910,556,250,371,
0,203,908,551,248,369,
0,201,891,547,248,366,
0,199,878,542,246,364,
0,199,867,537,244,404,
0,199,852,531,243,400,
0,196,838,526,240,396,
0,195,824,519,239,391,
0,193,812,513,237,387,
0,192,839,560,252,384,
0,190,904,573,249,380,
0,188,910,566,248,376,
0,227,896,560,244,372,
0,224,876,553,243,369,
0,222,861,547,241,366,
0,220,847,541,239,362,
0,217,833,535,237,359,
0,216,820,527,236,355,
0,214,807,522,233,352,
0,211,883,547,255,348,
0,210,907,540,252,345,
0,208,910,533,251,343,
0,257,891,527,248,339,
0,254,873,521,246,371,
0,252,859,515,243,367,
0,249,849,513,243,366,
0,248,835,508,241,362,
0,246,822,502,240,358,
0,243,809,496,238,355,
0,241,895,566,271,351,
0,240,908,559,268,348,
0,238,911,552,265,344,
0,323,893,546,263,342,
0,318,875,540,261,396,
0,315,860,534,259,391,
0,312,845,527,255,387,
0,309,831,522,255,384,
0,305,819,515,252,380,
0,303,806,510,257,376,
0,300,899,560,286,372,
0,297,908,553,283,368,
0,295,911,547,280,365,
1,359,891,540,278,361,
1,354,874,535,275,415,
2,351,859,529,273,410,
3,347,845,523,271,406,
3,344,831,518,268,401,
3,339,818,510,266,396,
3,337,806,505,291,392,
4,334,903,519,288,389,
4,331,910,513,286,385,
5,332,911,508,284,382,
6,380,887,503,280,377,
6,376,871,497,278,407,
6,371,856,492,275,402,
6,368,842,487,273,398,
6,364,828,483,271,393,
6,359,816,477,269,390,
6,358,868,516,304,385,
7,354,905,536,301,382,
6,351,911,529,299,378,
7,380,911,524,295,375,
7,377,888,518,292,384,
7,374,871,512,290,416,
7,369,857,507,287,412,
7,366,843,502,286,408,
7,362,830,496,283,403,
7,359,816,489,281,399,
7,355,888,572,301,395,
7,352,906,564,298,391,
7,349,911,557,295,387,
7,399,908,551,294,384,
7,393,880,544,291,432,
7,390,864,538,287,425,
7,385,850,532,286,422,
7,382,836,527,283,417,
7,377,823,521,280,412,
7,374,809,514,279,408,
7,370,896,594,294,403,
7,367,907,587,291,399,
7,363,911,579,288,396,
7,373,902,572,286,391,
7,369,876,566,283,433,
7,366,860,560,280,428,
7,361,846,553,278,423,
7,359,832,547,276,419,
6,355,819,541,273,415,
6,352,807,534,280,410,
6,348,899,600,295,406,
7,345,909,591,294,401,
6,343,911,584,291,398,
7,347,899,577,288,394,
6,344,873,572,286,440,
6,340,859,565,284,435,
6,337,844,558,281,430,
6,334,831,551,279,425,
6,331,817,546,276,422,
6,327,813,543,294,416,
6,326,903,592,291,412,
6,323,910,585,288,408,
6,323,911,578,286,403,
6,327,892,572,284,399,
5,326,870,564,280,443,
6,323,856,559,278,438,
5,319,841,551,276,432,
5,316,828,546,273,428,
5,313,815,540,271,423,
5,312,864,591,290,419,
4,308,904,594,287,414,
4,307,910,587,285,411,
5,310,907,579,283,406,
4,307,883,573,280,404,
4,304,864,567,277,430,
4,302,849,560,275,425,
4,300,835,553,273,421,
4,297,823,547,271,416,
4,295,809,542,268,412,
4,292,889,567,295,408,
3,290,907,560,293,403,
4,287,911,553,291,399,
3,304,909,547,287,396,
3,300,881,540,286,446,
3,297,866,535,283,440,
4,295,851,529,280,435,
3,292,838,524,278,430,
3,290,824,518,275,425,
3,287,811,512,273,422,
3,285,896,583,292,415,
3,283,908,575,289,412,
3,280,912,569,287,408,
3,302,909,563,284,403,
3,299,881,557,283,432,
3,295,866,550,280,427,
3,294,851,543,278,423,
3,291,838,538,275,418,
3,287,824,532,273,414,
3,285,812,527,281,410,
3,283,900,589,292,404,
3,280,909,582,289,401,
2,278,911,575,287,397,
2,317,900,568,284,393,
3,314,873,562,283,422,
2,311,859,556,280,417,
2,308,845,550,276,413,
2,305,831,543,275,408,
1,303,818,537,272,404,
2,299,831,531,295,400,
2,296,903,579,291,396,
1,294,911,572,289,391,
1,303,913,565,287,388,
2,307,904,558,284,384,
2,305,876,551,281,407,
1,302,861,545,279,402,
1,300,847,540,276,398,
1,296,833,534,275,394,
1,294,819,528,271,391,
1,291,880,589,289,387,
1,287,905,580,287,382,
1,286,911,574,284,379,
1,340,908,567,281,376,
1,335,884,560,280,372,
1,332,865,553,277,369,
1,329,851,547,274,366,
1,327,838,542,271,363,
1,323,824,536,270,359,
1,319,811,530,268,356,
1,317,892,545,286,353,
1,314,907,539,283,350,
1,312,911,533,280,347,
1,309,911,527,278,344,
1,306,888,520,276,382,
0,304,867,515,273,376,
1,301,853,510,271,373,
0,299,839,505,268,369,
0,295,825,499,267,366,
0,294,813,495,263,363,
1,291,897,571,281,359,
0,287,908,563,280,355,
0,286,911,558,277,352,
0,312,904,551,275,348,
0,307,880,545,272,401,
0,305,862,539,270,397,
0,302,847,532,267,392,
0,300,833,527,265,388,
0,297,820,521,263,385,
0,295,807,515,278,381,
0,291,901,581,281,377,
0,288,910,574,280,372,
0,286,912,568,277,369,
0,308,904,560,275,366,
0,305,880,554,272,387,
0,303,861,548,270,384,
0,300,847,542,268,380,
0,297,833,536,265,376,
0,295,820,531,263,372,
0,292,838,525,285,369,
0,289,903,607,281,365,
0,287,910,600,280,361,
0,291,911,591,277,358,
0,300,894,585,275,355,
0,296,875,579,272,406,
0,294,856,572,270,401,
0,291,843,566,268,397,
0,288,829,560,265,393,
0,286,816,553,263,390,
0,284,879,548,287,386,
0,280,905,571,284,382,
0,279,911,564,281,377,
0,286,911,558,279,374,
0,283,888,551,276,399,
0,280,871,545,274,427,
0,278,854,539,271,423,
0,275,839,534,269,418,
0,273,827,527,267,414,
0,271,814,523,265,409,
0,270,893,579,289,406,
0,267,907,574,287,401,
0,265,911,568,284,397,
0,268,910,560,282,393,
0,265,886,555,280,424,
0,263,870,547,278,419,
0,261,852,542,274,415,
0,259,838,536,271,411,
0,257,824,530,270,407,
0,255,812,524,268,403,
0,254,898,625,280,399,
0,251,908,614,278,393,
0,249,911,607,275,390,
0,280,904,600,273,386,
0,276,880,592,271,425,
0,274,865,585,268,421,
0,271,847,579,266,416,
0,269,834,572,263,412,
0,267,821,566,262,408,
0,263,807,560,271,404,
0,263,902,589,271,399,
0,259,910,579,269,395,
0,258,912,573,267,391,
0,327,899,566,263,387,
0,323,878,560,263,422,
0,319,863,553,260,417,
0,318,845,547,257,412,
0,315,831,542,255,408,
0,312,818,536,254,404,
0,308,838,531,278,400,
0,306,903,552,275,396,
0,303,910,544,272,391,
0,302,910,539,271,387,
0,300,887,532,268,384,
0,297,871,527,265,380,
0,295,856,521,263,377,
0,292,839,516,261,374,
0,290,825,511,259,370,
0,287,812,505,257,367,
0,285,882,512,279,364,
0,283,905,540,276,359,
0,280,911,531,273,356,
0,301,911,526,271,353,
0,297,889,519,269,377,
0,295,872,515,267,377,
0,292,857,508,264,374,
0,289,840,504,262,370,
0,287,827,499,259,366,
0,284,814,494,258,363,
0,283,894,563,275,359,
0,280,907,564,273,356,
0,277,912,556,271,352,
0,321,912,550,268,349,
0,318,892,543,267,376,
0,315,873,537,263,372,
0,312,859,531,262,368,
0,309,841,526,259,365,
0,306,828,520,257,361,
0,304,815,515,255,358,
0,301,899,583,269,355,
0,297,908,575,267,351,
0,295,911,566,265,347,
0,292,905,560,263,344,
0,290,880,553,260,395,
0,287,865,547,258,391,
0,286,851,540,255,387,
0,283,835,535,254,383,
0,280,821,529,252,379,
0,279,808,524,271,376,
0,276,902,574,268,371,
0,273,910,567,266,368,
0,271,911,559,263,364,
0,293,900,551,262,359,
0,290,878,545,259,399,
0,287,863,540,257,395,
0,285,848,534,255,391,
0,283,831,527,253,387,
0,280,818,522,251,383,
0,278,846,517,268,380,
0,275,903,569,265,376,
0,271,910,563,263,371,
0,316,909,555,262,368,
0,331,886,548,259,364,
0,327,870,542,256,403,
0,323,856,536,255,399,
0,321,841,530,252,395,
0,318,824,524,250,391,
0,315,812,519,248,387,
0,312,887,519,275,384,
0,310,906,536,271,379,
0,306,911,530,270,376,
0,304,912,524,268,371,
0,302,892,518,265,391,
0,299,874,512,263,387,
0,295,860,507,261,384,
0,294,846,502,259,379,
0,291,828,496,255,376,
0,289,816,492,254,371,
0,287,895,568,270,368,
0,284,908,560,268,364,
0,281,911,553,265,361,
0,306,908,545,263,357,
0,303,883,539,262,401,
0,300,868,533,259,396,
0,297,854,527,257,392,
0,295,836,521,255,389,
0,292,823,515,252,385,
0,289,810,511,251,382,
0,287,899,557,273,377,StartUp!
124,211,875,560,259,380,
0,210,864,556,258,376,
0,209,853,551,255,373,
0,207,843,547,255,370,
0,207,832,542,253,368,
0,206,822,537,252,365,
0,204,813,534,250,362,
0,203,816,529,249,359,
0,201,900,571,249,357,
0,200,908,565,248,355,
0,199,913,559,246,351,
0,198,912,551,244,348,
0,195,891,543,242,358,
0,195,874,538,240,385,
0,193,860,532,239,382,
0,192,845,526,237,377,
0,190,831,520,235,374,
0,188,815,515,233,371,
0,187,899,551,245,367,
0,185,910,543,243,363,
0,184,911,537,241,359,
0,209,897,531,239,356,
0,207,876,524,237,353,
0,205,862,518,235,350,
0,204,847,512,233,347,
0,202,833,507,231,344,
0,199,820,502,230,340,
0,199,804,497,248,337,
0,196,903,553,245,335,
0,195,910,547,243,332,
0,193,916,543,243,331,
0,240,904,537,240,327,
0,236,878,530,239,366,
0,234,863,524,236,362,
0,231,849,518,235,359,
0,230,835,513,233,355,
0,228,822,508,231,352,
0,226,860,503,275,348,
0,224,904,612,272,345,
0,223,911,604,270,342,
0,226,911,598,268,339,
0,292,889,590,265,335,
0,287,873,581,263,376,
0,286,859,575,261,372,
0,283,844,568,259,368,
0,280,831,561,257,364,
0,278,817,556,255,361,
0,275,887,573,291,358,
1,273,906,638,287,354,
1,271,911,630,285,352,
2,307,911,623,283,348,
3,334,889,615,280,344,
3,329,872,606,278,388,
3,327,858,599,275,384,
4,323,844,591,273,380,
4,319,830,585,271,376,
4,317,817,579,269,372,
5,315,896,635,294,369,
6,312,908,625,291,366,
6,309,911,617,287,363,
6,357,910,610,286,359,
6,352,887,603,283,391,
6,348,871,594,280,395,
6,344,856,587,279,391,
7,342,841,580,275,387,
6,338,828,574,274,384,
7,335,816,568,271,380,
6,332,899,624,294,376,
6,329,909,615,291,372,
7,327,912,608,289,369,
7,359,905,600,286,365,
6,356,880,593,284,398,
6,352,865,585,281,391,
6,348,851,579,280,388,
6,345,837,572,277,384,
6,342,824,566,275,380,
6,339,811,560,273,377,
6,335,903,615,298,373,
6,332,910,608,295,369,
6,329,912,600,293,366,
6,348,902,593,291,363,
6,344,879,587,287,397,
6,340,863,577,286,391,
6,337,849,572,284,387,
6,335,835,565,281,384,
6,332,822,559,279,380,
6,328,809,553,303,376,
6,326,904,619,300,372,
6,323,911,611,296,369,
6,319,911,604,295,366,
6,345,892,596,291,362,
5,342,873,590,289,402,
6,338,859,581,287,397,
6,335,845,575,285,392,
5,332,831,568,282,389,
5,328,818,562,280,385,
5,326,855,582,302,382,
5,323,907,627,297,377,
4,319,911,619,295,374,
4,319,912,611,292,370,
5,316,893,604,290,367,
4,313,875,597,287,393,
5,312,860,588,286,388,
4,308,846,582,283,384,
4,305,831,575,280,380,
4,304,819,568,279,376,
4,301,889,647,299,373,
4,299,908,638,295,369,
4,295,912,630,292,366,
4,299,912,622,289,363,
4,295,893,615,287,398,
4,293,875,607,285,414,
4,291,860,598,283,408,
3,288,846,591,280,403,
3,286,831,585,278,399,
3,284,819,579,275,396,
3,282,895,615,303,391,
3,280,909,607,300,387,
3,277,912,600,297,384,
3,299,905,591,295,380,
3,295,881,585,291,403,
3,292,866,579,289,398,
3,289,851,571,287,393,
3,287,838,564,285,390,
3,284,824,558,283,385,
3,282,812,552,280,382,
3,280,903,601,296,378,
3,278,910,594,294,375,
3,275,911,588,291,371,
3,294,896,580,288,368,
3,291,876,574,286,412,
3,287,861,567,284,407,
2,284,847,559,281,401,
3,282,833,552,280,397,
2,280,820,547,276,393,
3,278,807,542,302,390,
3,275,905,627,300,385,
3,272,911,619,295,382,
2,271,913,611,294,378,
2,290,898,604,291,375,
2,287,876,596,288,414,
2,284,862,590,286,409,
2,281,847,582,284,404,
2,280,834,575,281,399,
2,276,821,568,280,396,
2,274,858,596,297,391,
2,271,907,608,294,388,
1,270,911,600,291,385,
2,318,911,593,288,381,
1,327,892,585,286,377,
1,323,873,579,284,391,
1,319,859,572,281,387,
1,317,845,564,279,382,
1,314,831,559,276,377,
1,312,818,551,274,375,
1,308,888,604,293,371,
1,305,908,595,290,368,
1,303,912,588,287,364,
1,344,910,581,284,360,
1,339,887,575,283,391,
1,335,871,568,280,387,
1,332,856,560,278,384,
1,328,842,553,275,379,
1,326,828,547,273,376,
1,323,815,542,271,371,
1,319,896,585,295,368,
1,317,909,578,291,364,
1,314,913,572,288,361,
1,344,911,565,286,358,
1,340,888,559,284,384,
1,337,871,551,281,380,
1,333,856,543,279,376,
0,330,843,539,276,371,
1,327,829,533,275,368,
0,324,816,527,272,364,
1,321,899,600,294,361,
0,319,910,591,291,358,
0,316,913,585,287,354,
0,358,902,577,285,351,
0,353,879,572,283,391,
0,350,863,564,280,387,
0,346,848,556,278,384,
0,343,835,551,275,379,
0,339,822,543,273,376,
0,337,812,541,291,371,
0,334,903,634,288,368,
0,331,911,625,286,364,
0,332,911,618,283,360,
0,358,888,611,280,358,
0,353,871,604,279,396,
0,350,857,596,276,391,
0,345,844,588,273,387,
0,343,830,582,271,384,
0,339,816,575,270,379,
0,337,861,606,286,376,
0,334,905,600,283,371,
0,331,911,592,280,368,
0,339,909,585,278,364,
0,335,886,579,275,361,
0,332,870,572,272,393,
0,329,856,566,271,389,
0,326,841,558,268,385,
0,323,828,551,266,380,
0,319,815,545,263,376,
0,318,888,587,284,373,
0,315,906,579,281,369,
0,312,911,572,279,366,
0,310,908,565,275,362,
0,307,883,559,273,391,
0,304,867,551,271,387,
0,302,854,546,269,383,
0,299,839,539,267,379,
0,296,825,533,265,374,
0,294,813,527,263,371,
0,291,896,574,279,367,
0,289,908,566,276,364,
0,287,913,560,273,359,
0,302,907,553,271,356,
0,299,882,547,269,385,
0,295,867,541,267,381,
0,294,852,535,263,376,
0,291,839,527,263,373,
0,287,825,522,260,368,
0,286,812,518,263,365,
0,284,900,590,283,361,
0,281,909,583,280,358,
0,279,914,575,277,355,
0,334,910,568,275,352,
0,330,886,563,272,391,
0,327,870,556,270,386,
0,323,856,550,268,383,
0,319,841,542,265,377,
0,317,828,536,263,374,
0,315,822,536,292,370,
0,312,903,615,289,367,
0,309,910,607,287,363,
0,321,911,600,284,359,
0,352,894,592,281,356,
0,348,875,585,279,380,
0,344,860,579,276,376,
0,342,846,572,274,371,
0,338,832,564,271,367,
0,335,819,559,270,364,
0,332,868,604,287,359,
0,328,905,607,284,356,
0,326,911,600,281,353,
0,351,909,591,278,351,
0,347,886,585,275,356,
0,344,870,579,273,396,
0,339,856,572,271,391,
0,336,841,565,269,387,
0,332,828,558,267,383,
0,329,815,551,264,379,
0,327,888,627,283,375,
0,323,907,617,280,371,
0,321,911,610,278,368,
0,318,911,603,275,364,
0,316,891,595,273,413,
0,312,873,588,271,408,
0,310,860,582,268,403,
0,307,845,575,266,399,
0,304,831,568,263,393,
0,302,818,561,262,391,
0,300,897,592,286,386,
0,297,908,585,284,383,
0,295,913,578,281,379,
0,363,908,571,278,376,
0,358,883,565,275,415,
0,355,868,559,273,411,
0,352,854,552,271,407,
0,348,839,547,268,403,
0,344,826,539,267,398,
0,340,813,534,269,394,
0,337,900,591,281,390,
0,335,909,583,279,386,
0,332,912,575,276,383,
0,328,899,569,273,379,
0,326,878,563,271,376,
0,323,863,556,269,374,
0,319,847,551,267,369,
0,316,835,543,264,366,
0,313,821,536,263,362,
0,312,819,531,280,359,
0,308,903,572,276,355,
0,306,910,566,273,352,
0,304,911,559,271,350,
0,303,888,552,268,347,
0,300,871,546,267,382,
0,297,857,540,263,377,
0,295,843,534,262,375,
0,292,829,528,260,371,
0,290,816,521,258,366,
0,287,870,580,284,363,
0,286,905,578,280,359,
0,283,911,572,279,355,
0,300,910,565,276,352,
0,297,882,558,273,361,
0,295,867,551,271,377,
0,291,852,545,268,374,
0,289,839,540,267,370,
0,286,825,534,263,366,
0,284,812,527,262,363,
0,281,892,612,271,359,
0,279,907,604,270,355,
0,276,910,596,268,352,
0,321,899,589,265,348,
0,318,873,582,263,403,
0,315,859,575,260,398,
0,312,845,569,258,393,
0,310,831,563,255,390,
0,305,818,556,255,385,
0,303,805,548,252,381,
0,301,897,576,272,376,
0,297,908,569,270,374,
0,295,912,563,268,369,
0,303,910,556,265,366,
0,300,882,551,263,396,
0,296,867,543,260,391,
0,294,852,538,259,387,
0,291,838,532,256,384,
0,288,824,527,255,380,
0,286,812,520,265,376,
0,284,900,563,278,371,
0,281,909,556,275,368,
0,280,911,550,272,364,
0,351,891,543,271,360,
0,347,873,536,267,392,
0,344,859,531,265,388,
0,339,844,525,263,384,
0,336,831,519,260,380,
0,333,818,513,259,376,
0,329,828,517,275,372,
0,327,903,532,271,368,
0,323,910,527,269,365,
0,341,912,521,267,361,
0,380,889,515,263,358,
0,376,872,510,262,398,
0,372,857,504,259,393,
0,368,844,499,257,389,
0,365,830,495,255,385,
0,360,817,489,254,381,
0,358,880,561,278,376,
0,355,905,574,275,373,
0,351,911,567,272,369,
0,384,911,560,270,366,
0,379,883,553,268,385,
0,376,868,547,264,403,
0,371,854,542,263,399,
0,368,839,536,260,396,
0,364,827,529,259,391,
0,359,814,524,255,387,
0,358,892,573,277,384,
0,353,907,566,275,379,
0,351,911,559,272,376,
0,364,910,552,270,371,
0,359,881,547,268,387,
0,356,867,540,265,383,
0,353,852,535,263,379,
0,350,839,528,260,376,
0,347,824,523,259,371,
0,343,812,515,256,368,
0,340,897,586,281,364,
0,337,908,579,279,359,
0,334,911,572,276,357,
0,332,906,565,274,353,
0,328,878,559,271,375,
0,327,863,551,269,371,
0,323,848,546,267,368,
0,321,835,540,264,364,
0,318,822,534,263,359,
0,315,808,527,275,357,
0,312,901,583,278,352,
0,310,909,575,275,350,
0,307,913,569,273,346,
0,305,910,563,271,344,
0,302,881,556,268,359,
0,300,866,551,265,355,
0,297,851,543,263,352,
0,295,838,538,261,348,
0,293,824,532,259,345,
0,291,843,547,279,342,
0,287,903,588,275,338,
0,286,911,580,273,335,
0,284,912,574,271,332,
0,281,899,568,268,329,
0,280,873,560,267,355,
0,278,859,555,263,352,
0,275,845,548,262,348,
0,273,831,542,259,344,
0,271,818,536,257,341,
0,268,879,585,281,338,
0,267,905,577,278,334,
0,264,911,569,275,332,
0,305,911,563,273,327,
0,302,889,557,271,346,
0,299,869,551,268,371,
0,295,854,543,266,368,
0,294,840,538,263,364,
0,291,827,532,262,359,
0,288,814,527,259,357,
0,286,894,583,280,353,
0,283,907,575,276,349,
0,280,911,568,275,346,
0,278,908,561,271,344,
0,275,884,556,270,372,
0,273,865,548,267,368,
0,271,851,543,264,364,
0,269,836,536,263,360,
0,267,824,531,260,358,
0,264,811,525,259,354,
0,262,898,575,272,351,
0,260,908,568,270,347,
0,258,911,561,268,344,
0,300,905,555,265,340,
0,295,881,548,263,387,
0,294,862,543,260,384,
0,291,847,536,259,380,
0,288,834,531,255,376,
0,286,821,524,255,371,
0,283,807,519,269,368,
0,280,902,610,268,364,
0,278,910,602,266,359,
0,275,913,595,263,357,
0,303,908,588,262,354,
0,300,882,580,259,382,
0,297,864,574,256,377,
0,294,849,568,255,374,
0,291,835,561,252,370,
0,289,822,556,251,367,
0,287,846,550,270,363,
0,284,903,572,268,359,
0,281,911,564,264,355,
0,313,911,558,263,352,
0,319,891,551,260,348,
0,317,873,545,259,371,
0,314,856,539,255,368,
0,312,841,534,254,364,
0,308,828,527,252,359,
0,305,815,523,249,356,
0,303,883,531,275,353,
0,300,905,578,271,350,
0,297,911,572,270,346,
0,298,910,564,268,344,
0,295,886,558,265,370,
0,292,870,551,263,371,
0,290,852,545,260,367,
0,287,838,539,258,364,
0,286,824,533,255,359,
0,283,812,527,254,356,
0,280,894,603,271,353,
0,278,908,600,268,348,
0,275,911,593,266,345,
0,291,907,587,263,343,
0,288,882,579,262,391,
0,286,867,573,259,386,
0,284,848,567,257,383,
0,281,835,560,255,379,
0,279,822,553,253,375,
0,275,808,547,251,371,
0,273,898,595,271,368,
0,271,908,585,270,363,
0,268,911,578,267,359,
0,271,900,572,264,356,
0,268,878,566,263,398,
0,267,863,559,260,393,
0,263,846,551,258,390,
0,262,831,546,255,385,
0,260,819,540,254,382,
0,259,806,535,274,379,
0,255,902,584,271,375,
0,254,909,575,270,370,
0,252,911,568,267,367,
0,269,894,561,265,363,
0,267,875,556,263,398,
0,263,860,549,260,393,
0,262,842,543,258,389,
0,259,828,537,255,385,
0,257,816,531,254,381,
0,255,847,526,275,377,
0,252,904,579,271,374,
0,251,910,571,270,369,
0,270,911,564,267,366,
0,268,891,558,265,363,
0,266,873,551,263,385,
0,263,859,544,260,381,
0,262,841,539,258,377,
0,259,828,533,255,374,
0,257,815,527,254,369,
0,255,883,545,271,367,
0,252,905,575,268,363,
0,250,911,566,266,359,
0,276,909,560,263,355,
0,273,886,553,262,384,
0,271,870,547,259,383,
0,268,856,540,257,379,
0,265,838,535,255,375,
0,263,824,528,252,371,
0,262,812,523,251,368,
0,259,894,572,267,364,
0,255,908,563,263,359,
0,254,911,556,263,356,
0,264,903,549,260,353,
0,262,880,543,257,401,
0,259,865,536,255,396,
0,257,851,531,254,391,
0,255,833,525,251,388,
0,253,820,519,249,384,
0,251,807,514,248,381,
0,249,899,595,270,377,
0,247,908,587,268,374,
0,244,911,578,265,369,
0,275,901,571,263,365,
0,273,878,564,261,381,
0,270,864,558,259,376,
0,268,849,551,255,373,
0,265,831,545,254,369,
0,263,819,540,252,366,
0,261,806,534,273,363,
0,259,902,579,270,359,
0,255,910,572,268,355,
0,254,911,563,265,352,
0,252,892,557,263,348,
0,251,875,551,261,390,
0,248,859,544,259,385,
0,246,841,539,257,382,
0,244,828,532,254,377,
0,243,816,527,252,375,
0,240,856,521,272,371,
0,239,904,593,270,367,
0,236,911,585,267,364,
0,236,910,577,264,359,
0,233,888,570,263,355,
0,231,871,563,260,386,
0,231,857,557,259,382,
0,228,839,551,255,379,
0,227,827,544,254,375,
0,225,814,539,252,371,
0,224,886,556,268,368,
0,223,906,579,265,364,
0,220,910,572,263,360,
0,263,903,563,262,356,
0,260,879,558,259,371,
0,258,864,551,257,367,
0,255,849,545,255,364,
0,253,831,539,252,359,
0,251,819,532,250,356,
0,249,807,527,248,353,
0,248,895,614,271,350,
0,244,908,609,268,347,
0,242,911,601,266,344,
0,297,902,593,263,339,
0,295,879,587,262,395,
0,291,864,579,259,391,
0,289,849,572,257,386,
0,286,831,567,255,383,
0,284,819,560,252,379,
0,281,806,553,251,376,
0,279,898,567,263,371,
0,276,908,560,263,368,
0,273,907,551,259,364,
0,306,884,545,257,359,
0,303,870,540,255,390,
0,300,855,534,253,385,
0,297,840,528,252,381,
0,295,824,523,249,377,
0,292,811,518,247,374,
0,289,806,512,271,371,
0,287,903,604,268,367,
0,285,910,596,266,363,
0,283,910,588,263,359,
0,291,889,580,262,355,
0,289,872,574,259,384,
0,287,858,568,257,379,
0,284,844,561,255,376,
0,281,827,555,253,371,
0,279,814,548,251,368,
0,276,860,543,275,364,
0,275,904,572,272,361,
0,271,910,566,270,358,
0,304,909,557,268,354,
0,300,886,551,265,356,
0,297,870,544,263,385,
0,294,856,539,261,382,
0,291,841,532,259,377,
0,289,824,527,256,374,
0,286,811,521,254,370,
0,284,888,551,271,367,
0,281,906,567,268,363,
0,280,911,560,267,359,
0,307,906,551,263,356,
0,304,881,546,262,403,
0,300,867,540,259,398,
0,297,852,534,257,393,
0,295,839,527,255,390,
0,292,822,522,253,385,
0,290,809,516,251,382,
0,287,896,573,273,377,
0,285,908,565,271,374,
0,283,911,558,269,371,
0,316,899,551,267,367,
0,312,876,543,263,391,
0,309,862,537,262,387,
0,306,847,531,259,384,
0,304,834,526,257,380,
0,300,817,520,255,376,
0,298,805,515,259,372,
0,295,899,579,275,368,
0,293,909,572,273,364,
0,291,909,565,271,361,
0,304,889,556,269,358,
0,300,872,551,267,399,
0,297,857,543,263,395,
0,295,843,538,262,391,
0,292,830,532,260,387,
0,289,814,526,257,383,
0,287,801,520,270,380,
0,285,903,545,267,376,
0,283,910,539,263,371,
0,280,909,532,263,368,
0,287,888,525,260,365,
0,285,871,519,258,390,
0,283,856,513,255,386,
0,280,842,508,254,382,
0,278,828,504,252,378,
0,275,812,498,249,374,
0,273,864,494,268,371,
0,271,905,561,265,368,
0,268,911,555,263,364,
0,267,911,548,261,359,
0,271,888,540,259,356,
0,269,871,534,255,365,
0,267,857,527,254,361,
0,264,844,522,252,358,
0,263,830,516,250,355,
0,260,814,511,248,352,
0,259,889,543,266,348,
0,255,907,537,263,345,
0,254,911,531,261,342,
0,278,910,525,259,339,
0,274,886,518,257,368,
0,271,870,512,255,364,
0,270,856,507,252,359,
0,267,841,502,251,356,
0,265,828,496,248,353,
0,263,812,492,246,350,
0,260,896,568,275,347,
0,258,908,560,272,344,
0,255,911,553,270,340,
0,270,904,547,268,337,
0,266,880,540,265,359,
0,263,865,533,263,355,
0,262,851,527,262,352,
0,259,837,521,259,348,
0,257,824,515,257,345,
0,255,807,511,259,342,
0,253,900,588,271,339,
0,251,909,579,269,335,
0,248,911,573,267,332,
0,301,894,566,263,329,
0,297,876,558,262,379,
0,295,860,551,259,376,
0,291,846,545,257,371,
0,289,831,540,255,368,
0,287,819,534,254,364,
0,284,831,527,275,359,
0,281,903,575,273,356,
0,280,911,568,270,353,
0,276,913,563,268,350,
0,316,903,556,265,347,
0,312,880,547,263,366,
0,308,864,542,262,362,
0,306,850,536,259,359,
0,303,836,529,257,355,
0,300,823,524,255,352,
0,298,868,519,269,348,
0,295,905,569,267,345,
0,293,911,563,263,342,
0,295,911,556,262,339,
0,323,888,550,259,335,
0,319,872,542,257,366,
0,317,857,536,255,363,
0,315,844,530,253,359,
0,312,830,524,251,355,
0,308,817,519,249,352,
0,306,890,571,271,348,
0,303,907,610,269,345,
0,300,910,603,267,342,
0,347,901,595,264,339,
0,355,878,588,262,345,
0,352,863,579,260,375,
0,348,849,573,257,370,
0,344,835,567,255,367,
0,342,822,560,254,363,
0,339,808,554,252,359,
0,335,896,601,268,355,
0,332,908,593,265,352,
0,329,911,586,263,350,
0,378,903,579,260,346,
0,372,880,572,259,391,
0,368,865,564,255,385,
0,365,850,558,254,381,
0,361,836,551,252,377,
0,358,824,545,249,374,
0,355,811,540,248,370,
0,352,900,597,271,366,
0,348,909,590,270,363,
0,345,911,582,267,359,
0,348,899,575,264,355,
0,344,878,569,263,397,
0,340,862,560,260,391,
0,337,847,554,259,387,
0,334,835,548,255,384,
0,332,821,542,254,380,
0,328,808,536,254,376,
0,326,903,536,266,372,
0,323,910,529,263,369,
0,319,913,524,262,366,
0,364,904,519,259,361,
0,359,880,513,257,408,
0,355,865,507,255,402,
0,352,851,502,253,398,
0,349,836,497,251,393,
0,345,824,492,248,390,
0,343,877,495,275,386,
0,339,905,539,271,382,
0,336,911,533,270,379,
0,345,910,527,268,375,
0,374,888,520,265,371,
0,368,871,515,263,400,
0,365,856,508,261,396,
0,361,843,503,259,391,
0,358,829,497,256,387,
0,355,816,492,255,384,
0,352,892,546,271,380,
0,348,907,555,268,376,
0,345,911,548,266,372,
0,351,909,542,263,369,
0,348,884,536,262,372,
0,344,868,530,259,384,
0,340,855,523,257,379,
0,337,840,517,255,375,
0,335,827,512,253,371,
0,332,814,506,251,368,
0,328,897,574,269,364,
0,326,908,566,266,359,
0,323,911,559,263,358,
0,359,904,552,262,354,
0,356,880,546,259,406,
0,352,865,540,257,400,
0,349,851,532,255,396,
0,345,838,527,253,391,
0,343,824,521,251,387,
0,339,811,515,249,384,
0,336,902,585,267,380,
0,333,910,578,263,376,
0,331,912,572,262,373,
0,336,903,564,259,369,
0,333,880,558,257,411,
0,329,865,550,255,407,
0,327,851,543,253,401,
0,323,836,538,251,397,
0,321,824,532,249,392,
0,318,811,527,255,390,
0,316,903,583,268,385,
0,312,911,577,263,382,
0,311,911,571,262,378,
0,352,890,563,260,374,
0,348,873,557,258,396,
0,344,858,550,255,391,
0,341,844,543,254,387,
0,337,831,537,252,384,
0,335,817,531,249,379,
0,332,824,529,272,376,
0,328,905,575,270,371,
0,326,911,568,267,368,
0,339,909,561,263,364,
0,359,886,555,262,361,
0,355,870,548,259,401,
0,352,856,540,257,397,
0,348,841,535,255,391,
0,344,828,528,253,388,
0,342,815,523,251,384,
0,339,873,533,273,380,
0,335,907,532,270,376,
0,333,911,526,267,373,
0,387,908,519,264,369,
0,381,883,515,263,386,
0,377,868,509,260,403,
0,372,854,503,258,399,
0,368,839,497,255,395,
0,365,827,493,254,391,
0,361,814,487,252,387,
0,359,892,575,271,383,
0,355,908,568,268,379,
0,352,911,561,266,376,
0,351,903,555,263,371,
0,348,880,548,262,401,
0,344,865,542,259,396,
0,340,850,535,257,391,
0,337,836,528,255,387,
0,335,824,523,253,384,
0,332,811,518,251,380,
0,329,897,582,271,376,
0,326,910,574,268,372,
0,323,911,568,265,369,
0,371,900,560,263,365,
0,368,878,555,260,362,
0,364,863,547,259,359,
0,359,848,540,255,355,
0,355,835,535,254,352,
0,352,822,528,252,348,
0,350,809,523,263,345,
0,347,901,588,267,343,
0,344,910,580,263,339,
0,340,909,574,262,336,
0,348,886,568,259,334,
0,345,870,561,257,371,
0,342,856,555,255,368,
0,337,841,547,254,364,
0,335,828,540,252,359,
0,332,815,535,249,356,
0,329,824,561,269,353,
0,327,903,598,266,350,
0,323,911,590,263,347,
0,342,904,583,261,344,
0,366,881,575,259,340,
0,363,865,569,256,377,
0,359,851,563,255,374,
0,354,838,556,252,368,
0,352,824,550,251,365,
0,348,812,543,248,361,
0,345,876,566,275,358,
0,342,905,567,273,355,
0,339,911,560,270,352,
0,371,906,553,268,348,
0,366,881,547,265,375,
0,363,866,540,263,391,
0,359,852,535,262,387,
0,355,838,527,259,382,
0,352,824,522,257,379,
0,348,812,516,255,375,
0,345,893,600,270,371,
0,343,907,591,267,368,
0,339,911,584,263,364,
0,356,903,577,262,360,
0,352,879,571,259,396,
0,349,864,564,257,391,
0,345,850,558,255,387,
0,342,836,551,253,382,
0,339,824,543,251,379,
0,335,810,539,249,375,
0,333,898,584,270,371,
0,329,908,577,267,367,
0,327,913,571,263,364,
0,378,904,564,262,359,
0,375,880,558,259,396,
0,370,865,551,257,391,
0,367,851,545,255,388,
0,363,837,537,254,384,
0,359,824,531,252,380,
0,355,811,527,268,376,
0,352,901,574,271,372,
0,349,910,568,268,368,
0,346,912,560,265,365,
0,399,897,553,263,361,
0,395,876,547,262,403,
0,391,861,542,259,399,
0,387,847,536,257,396,
0,382,833,527,255,390,
0,378,820,523,253,386,
0,375,841,536,277,383,
0,371,903,569,274,379,
0,368,910,562,271,376,
0,366,910,556,269,371,
0,364,887,550,267,368,
0,361,871,543,263,396,
0,358,856,536,262,391,
0,354,843,531,260,388,
0,351,828,524,257,384,
0,348,816,518,255,380,
0,344,883,567,268,376,
0,342,905,559,266,371,
0,339,911,551,263,368,
0,335,911,545,261,365,
0,333,892,539,259,363,
0,331,873,534,255,359,
0,327,860,527,255,355,
0,324,846,521,252,352,
0,321,831,515,251,348,
0,319,819,510,248,345,
0,316,894,582,271,343,
0,313,907,574,268,339,
0,312,911,568,265,336,
0,308,902,560,263,334,
0,306,879,555,261,387,
0,304,864,548,259,383,
0,302,849,542,255,379,
0,299,835,536,255,375,
0,295,822,528,252,371,
0,294,809,523,251,367,
0,291,899,568,271,363,
0,289,908,560,268,359,
0,287,911,555,265,356,
0,286,896,547,263,353,
0,283,876,542,260,396,
0,280,861,536,259,391,
0,279,847,529,255,387,
0,276,833,524,255,384,
0,274,819,517,252,379,
0,271,807,512,273,376,
0,270,902,591,271,371,
0,268,910,583,268,368,
0,266,913,576,265,364,
0,267,896,570,263,360,
0,264,876,563,261,382,
0,263,860,557,259,377,
0,260,847,551,255,374,
0,258,832,544,255,370,
0,255,819,537,252,366,
0,255,848,569,260,363,
0,253,903,584,258,359,
0,251,910,577,255,355,
0,287,910,571,254,352,
0,294,886,563,251,349,
0,291,870,558,249,396,
0,288,856,551,248,391,
0,286,841,545,245,387,
0,283,828,539,243,384,
0,280,815,531,241,379,
0,278,886,566,269,376,
0,275,906,559,266,371,
0,273,911,551,263,368,
0,336,911,546,262,364,
0,332,888,540,259,396,
0,327,871,534,257,391,
0,325,857,527,255,387,
0,322,844,522,252,384,
0,318,830,516,251,380,
0,316,816,510,248,376,
0,313,895,580,271,371,
0,310,908,572,268,368,
0,307,911,566,266,364,
0,343,904,559,263,361,
0,339,880,552,261,393,
0,335,865,546,259,390,
0,332,851,540,257,385,
0,329,838,535,255,382,
0,326,824,528,252,377,
0,323,811,521,251,374,
0,319,899,590,271,369,
0,317,909,583,268,366,
0,314,911,575,265,363,
0,355,888,568,263,359,
0,352,871,563,260,386,
0,348,857,556,259,382,
0,345,843,550,255,378,
0,342,830,543,254,375,
0,337,816,536,252,371,
0,335,803,531,276,367,
0,332,902,556,273,363,
0,328,910,550,271,359,
0,326,911,543,268,356,
0,323,890,537,266,353,
0,319,872,531,263,379,
0,318,858,525,261,375,
0,315,844,519,259,371,
0,312,831,514,257,368,
0,308,817,508,255,364,
0,306,856,531,273,359,
0,304,904,539,270,356,
0,301,911,532,268,352,
0,300,912,527,265,350,
0,297,888,520,263,347,
0,295,872,515,260,387,
0,292,857,509,259,384,
0,290,844,504,255,380,
0,287,830,499,254,376,
0,285,816,492,252,372,
0,283,887,581,266,368,
0,280,906,572,263,364,
0,278,911,566,262,360,
0,276,908,559,259,358,
0,274,880,551,257,364,
0,271,865,545,254,363,
0,270,851,540,252,359,
0,268,838,534,250,355,
0,265,824,527,248,352,
0,263,811,521,247,349,
0,262,897,581,268,344,
0,259,908,573,265,342,
0,257,911,567,263,339,
0,275,907,560,261,335,
0,271,878,553,259,375,
0,270,864,547,255,371,
0,267,849,541,254,367,
0,264,835,536,252,364,
0,263,822,529,249,359,
0,259,809,523,248,356,
0,257,899,603,258,352,
0,255,909,595,255,348,
0,254,911,588,254,345,
0,253,905,580,252,343,
0,251,878,574,248,396,
0,249,862,568,247,391,
0,248,848,561,245,388,
0,246,835,555,243,384,
0,243,821,548,241,380,
0,241,814,542,261,377,
0,240,903,589,258,371,
0,238,910,582,255,368,
0,243,914,575,254,365,
0,258,908,568,252,361,
0,255,880,561,249,391,
0,253,864,555,247,388,
0,251,850,548,244,384,
0,248,836,543,243,380,
0,247,823,537,241,376,
0,244,861,564,263,373,
0,242,904,566,259,368,
0,240,910,560,257,365,
0,295,909,552,255,361,
0,304,886,546,253,359,
0,300,866,540,251,367,
0,297,852,534,248,364,
0,295,838,528,247,359,
0,292,824,523,244,356,
0,290,812,518,243,353,
0,287,887,583,259,350,
0,284,906,575,255,346,
0,281,911,569,254,344,
0,319,909,563,252,340,
0,316,884,556,249,379,
0,313,865,550,248,374,
0,311,851,543,246,370,
0,307,837,537,243,366,
0,304,824,531,241,363,
0,302,811,526,240,359,
0,299,896,595,262,355,
0,295,908,588,259,352,
0,294,911,581,256,348,
0,327,902,574,254,345,
0,324,879,568,252,375,
0,321,860,561,249,371,
0,319,846,555,248,367,
0,316,831,548,246,364,
0,312,819,542,243,359,
0,310,807,536,248,356,
0,307,899,583,263,352,
0,304,908,575,262,349,
0,301,911,569,259,345,
0,313,896,562,257,343,
0,311,876,556,255,382,
0,307,857,550,252,377,
0,305,844,543,251,374,
0,302,830,537,248,369,
0,300,816,531,247,366,
0,297,812,526,268,363,
0,294,903,580,265,358,
0,291,910,574,263,355,
0,297,911,567,261,352,
0,323,895,560,259,348,
0,319,875,553,255,371,
0,316,856,547,254,367,
0,313,843,542,252,363,
0,311,829,536,249,359,
0,307,816,529,248,355,
0,305,870,524,272,352,
0,302,905,569,270,348,
0,299,911,563,267,345,
0,304,911,556,265,342,
0,300,889,550,263,347,
0,297,872,543,260,379,
0,295,855,537,257,375,
0,292,840,531,255,371,
0,290,827,526,254,368,
0,287,814,519,252,364,
0,285,892,523,280,359,
0,283,907,519,277,356,
0,280,911,512,275,353,
0,307,911,508,272,350,
0,304,892,503,270,390,
0,300,874,497,268,385,
0,298,856,492,265,382,
0,295,842,487,263,377,
0,292,828,483,260,374,
0,290,816,478,259,370,
0,287,896,566,262,367,
0,284,908,556,259,362,
0,282,911,550,257,359,
0,319,907,543,255,355,
0,316,882,537,254,384,
0,313,867,531,252,380,
0,311,849,525,248,376,
0,307,835,519,247,372,
0,304,822,514,245,368,
0,302,809,508,245,366,
0,299,900,580,255,361,
0,295,909,572,253,358,
0,294,911,564,251,354,
0,331,899,558,248,351,
0,327,877,551,247,377,
0,323,859,545,244,374,
0,321,844,540,242,370,
0,318,831,534,240,366,
0,315,817,527,238,363,
0,312,816,522,257,359,
0,308,903,557,254,355,
0,306,910,548,252,352,
0,326,912,543,249,348,
0,352,899,536,248,345,
0,349,877,530,246,374,
0,345,862,524,243,369,
0,342,844,519,241,366,
0,339,831,513,239,362,
0,335,818,508,238,359,
0,333,880,504,263,355,
0,329,905,599,259,352,
0,326,911,590,257,348,
0,323,913,583,255,344,
0,319,901,575,254,356,
0,318,878,569,252,391,
0,315,860,562,249,387,
0,312,846,556,247,384,
0,310,831,550,244,380,
0,307,819,543,243,376,
0,305,892,540,268,371,
0,301,907,535,264,368,
0,299,911,527,263,364,
0,343,912,522,260,359,
0,339,893,516,258,391,
0,335,875,511,255,387,
0,332,856,506,254,383,
0,329,842,501,251,379,
0,327,828,496,249,376,
0,323,816,491,248,371,
0,320,896,568,266,368,
0,316,908,559,263,364,
0,313,910,551,262,359,
0,316,892,543,259,357,
0,313,874,539,257,397,
0,311,859,532,255,392,
0,307,841,527,252,388,
0,305,828,520,250,385,
0,303,815,515,248,381,
0,300,803,510,263,377,
0,297,900,561,274,374,
0,295,909,553,271,369,
0,292,911,546,270,366,
0,317,900,540,267,361,
0,313,878,534,265,390,
0,311,863,527,263,385,
0,308,845,521,260,381,
0,305,831,516,258,377,
0,303,818,511,255,374,
0,300,825,505,270,370,
0,297,903,582,267,366,
0,295,910,572,263,363,
0,321,911,566,262,359,
0,337,891,560,259,355,
0,335,873,553,258,387,
0,332,858,547,255,384,
0,327,841,540,254,380,
0,325,828,535,251,376,
0,322,815,529,249,372,
0,319,876,526,263,369,
0,316,905,623,261,365,
0,312,911,612,259,361,
0,311,910,606,256,358,
0,308,888,598,254,374,
0,305,871,591,252,391,
0,303,857,583,250,388,
0,300,839,577,248,384,
0,297,826,571,246,380,
0,295,814,564,243,376,
0,293,892,585,263,373,
0,291,907,582,262,369,
0,287,911,572,259,366,
0,318,908,566,257,361,
0,315,883,560,255,389,
0,312,867,553,253,384,
0,308,854,547,251,381,
0,306,836,542,249,377,
0,303,824,536,247,373,
0,300,811,530,244,369,
0,297,897,580,263,366,
0,295,908,572,261,363,
0,291,911,564,259,359,
0,340,905,558,255,355,
0,337,881,551,254,407,
0,334,865,545,252,401,
0,331,851,539,250,397,
0,327,834,534,248,393,
0,324,821,527,246,390,
0,321,808,523,257,385,
0,319,901,519,262,382,
0,316,910,513,259,378,
0,312,912,507,257,375,
0,376,904,502,255,370,
0,371,880,496,253,387,
0,368,865,492,251,384,
0,364,851,487,249,379,
0,361,833,482,247,376,
0,358,820,478,244,371,
0,354,833,473,269,368,
0,352,903,548,265,364,
0,348,910,542,263,361,
0,347,911,534,262,358,
0,348,889,527,259,353,
0,344,872,521,257,369,
0,342,857,515,255,366,
0,339,844,510,252,361,
0,335,827,504,250,359,
0,332,814,499,248,355,
0,329,882,501,278,352,
0,327,905,547,275,348,
0,324,911,540,272,345,
0,344,913,531,271,343,
0,339,897,526,268,349,
0,336,876,519,265,352,
0,334,862,515,263,348,
0,331,847,508,262,344,
0,327,831,504,259,341,
0,324,817,498,257,338,
0,321,892,554,273,335,
0,319,907,557,271,332,
0,316,911,551,268,329,
0,313,905,543,266,326,
0,311,881,536,263,366,
0,307,866,531,262,362,
0,305,851,524,259,359,
0,303,838,519,257,355,
0,300,821,513,255,352,
0,298,808,508,253,348,
0,295,898,579,270,344,
0,294,908,571,268,342,
0,291,911,564,265,339,
0,292,903,556,263,335,
0,289,880,550,260,376,
0,287,864,543,259,371,
0,285,851,537,255,368,
0,283,836,531,254,364,
0,280,820,526,252,359,
0,279,807,519,263,357,
0,276,902,622,261,353,
0,274,910,612,259,350,
0,271,911,606,255,347,
0,284,899,596,254,343,
0,281,878,590,252,391,
0,279,863,583,250,387,
0,276,847,575,248,384,
0,274,835,569,246,379,
0,271,817,563,243,376,
0,270,824,558,265,371,
0,268,903,591,263,368,
0,265,910,583,259,364,
0,263,907,575,258,361,
0,272,883,568,255,357,
0,270,867,561,253,379,
0,268,854,555,252,375,
0,265,839,549,249,371,
0,263,825,543,248,367,
0,261,809,537,244,364,
0,259,878,543,263,359,
0,257,905,581,260,356,
0,255,910,574,258,353,
0,265,903,568,255,350,
0,268,880,559,254,375,
0,265,864,552,252,385,
0,263,851,547,249,381,
0,260,836,540,248,377,
0,258,824,535,246,374,
0,255,807,528,243,370,
0,254,894,572,268,366,
0,252,908,564,265,363,
0,250,911,558,263,359,
0,283,908,551,260,355,
0,280,884,543,258,387,
0,277,868,537,255,382,
0,275,855,531,254,378,
0,271,840,526,252,375,
0,270,827,519,249,371,
0,268,811,515,248,367,
0,265,897,546,255,364,
0,263,908,539,254,359,
0,260,910,533,252,356,
0,310,892,527,249,353,
0,307,873,519,248,386,
0,304,859,514,246,382,
0,301,845,509,243,377,
0,298,831,504,241,374,
0,295,817,499,240,370,
0,292,801,494,267,367,
0,290,902,558,265,363,
0,287,909,551,263,359,
0,285,911,543,260,356,
0,287,898,537,258,353,
0,285,877,530,255,376,
0,282,862,524,254,371,
0,280,847,519,252,368,
0,278,834,513,249,364,
0,275,820,508,248,359,
0,273,847,503,271,357,
0,271,904,566,269,353,
0,268,910,559,267,350,
0,266,911,551,263,347,
0,309,889,545,262,344,
0,306,872,537,259,379,
0,303,857,531,257,375,
0,300,844,526,255,371,
0,297,830,520,253,368,
0,295,817,515,252,364,
0,292,887,531,268,359,
0,289,906,572,264,356,
0,287,911,566,262,353,
0,310,914,559,260,350,
0,318,904,551,258,347,
0,315,880,543,255,384,
0,312,864,539,254,380,
0,310,850,532,252,376,
0,307,836,527,249,373,
0,304,820,521,248,369,
0,301,895,603,267,366,
0,299,908,595,263,362,
0,295,911,588,262,359,
0,341,905,580,259,355,
0,335,880,574,257,382,
0,332,865,566,255,390,
0,329,851,559,253,385,
0,326,838,552,251,382,
0,323,824,547,249,377,
0,319,807,540,247,375,
0,318,900,603,263,371,
0,315,909,595,262,367,
0,312,911,588,259,364,
0,342,903,581,257,359,
0,337,880,574,255,399,
0,334,865,566,253,394,
0,331,850,560,251,390,
0,327,836,553,249,386,
0,324,824,547,247,382,
0,321,807,542,245,379,
0,319,902,577,268,375,
0,316,910,569,265,371,
0,313,910,563,263,368,
0,316,889,556,261,364,
0,312,873,551,259,388,
0,310,857,543,257,384,
0,307,844,536,255,380,
0,304,830,531,252,376,
0,302,817,525,251,372,
0,299,856,519,265,368,
0,296,904,583,263,365,
0,295,911,575,261,361,
0,291,911,569,259,359,
0,335,891,562,256,355,
0,332,873,554,255,368,
0,327,859,548,252,363,
0,325,845,542,251,359,
0,322,831,536,248,356,
0,319,818,530,246,353,
0,316,886,543,263,350,
0,313,906,559,260,347,
0,311,911,551,258,344,
0,324,905,545,255,340,
0,329,881,539,254,337,
0,325,867,531,252,343,
0,322,852,526,249,339,
0,319,839,519,248,335,
0,316,825,515,246,332,
0,313,812,510,243,329,
0,311,895,582,266,327,
0,307,908,574,263,324,
0,305,911,567,260,321,
0,341,905,560,259,319,
0,337,881,553,255,356,
0,333,866,545,254,364,
0,329,851,540,252,359,
0,327,838,534,249,355,
0,323,824,527,248,352,
0,321,812,522,246,350,
0,319,899,599,268,345,
0,316,908,591,263,343,
0,312,908,583,262,339,
0,355,886,575,259,336,
0,351,870,570,257,386,
0,346,856,561,255,382,
0,343,841,556,253,376,
0,339,828,550,251,372,
0,336,815,543,249,369,
0,334,802,537,248,366,
0,331,903,531,275,361,
0,327,910,526,272,359,
0,324,913,521,271,355,
0,375,905,515,268,352,
0,371,880,510,265,401,
0,366,865,504,263,396,
0,363,851,499,262,391,
0,359,837,494,259,387,
0,355,824,488,257,384,
0,352,811,484,276,380,
0,350,905,560,273,376,
0,346,911,552,271,372,
0,344,913,546,268,369,
0,340,903,540,265,366,
0,337,879,534,263,384,
0,334,864,527,262,380,
0,331,850,520,259,376,
0,327,836,515,257,371,
0,325,823,510,255,368,
0,323,850,542,271,364,
0,319,906,574,268,360,
0,317,911,567,267,358,
0,319,908,560,263,355,
0,317,884,553,262,352,
0,315,868,547,259,387,
0,311,855,540,257,382,
0,308,840,534,255,377,
0,305,827,527,254,374,
0,304,814,522,252,371,
0,301,886,593,271,367,
0,299,908,583,268,363,
0,295,911,577,265,359,
0,294,903,571,263,356,
0,291,879,563,262,382,
0,289,864,558,259,390,
0,286,850,550,257,384,
0,284,836,543,255,381,
0,281,823,537,252,377,
0,280,809,531,251,374,
0,278,895,588,263,369,
0,275,909,580,262,366,
0,273,911,574,259,363,
0,271,905,567,257,359,
0,269,880,560,255,369,
0,267,865,553,253,365,
0,264,851,546,251,359,
0,263,838,540,248,358,
0,261,824,534,247,354,
0,259,811,528,245,351,
0,257,899,560,260,348,
0,255,910,553,258,344,
0,253,911,547,255,342,
0,262,898,540,254,339,
0,259,877,535,252,390,
0,257,862,528,249,385,
0,254,847,521,248,380,
0,252,833,516,245,376,
0,250,820,511,243,372,
0,248,811,506,271,368,
0,247,903,562,269,365,
0,245,911,556,266,361,
0,249,911,549,263,358,
0,277,895,543,262,355,
0,274,875,536,259,379,
0,271,860,531,257,375,
0,269,846,523,255,369,
0,267,831,518,253,366,
0,263,819,512,251,363,
0,263,860,550,267,359,
0,260,904,576,263,355,
0,257,911,569,262,352,
0,305,908,563,259,349,
0,302,883,556,257,347,
0,299,867,550,255,375,
0,295,854,543,252,371,
0,292,839,536,251,367,
0,289,826,531,248,363,
0,287,813,525,247,359,
0,285,886,608,263,355,
0,282,906,599,262,352,
0,280,911,591,259,350,
0,278,908,583,255,346,
0,275,883,577,255,377,
0,273,868,571,252,373,
0,270,854,564,250,369,
0,268,839,556,248,365,
0,265,827,550,246,361,
0,263,814,543,244,358,
0,262,896,611,260,355,
0,259,908,603,257,351,
0,257,911,595,255,348,
0,303,899,588,252,344,
0,300,878,582,251,380,
0,297,863,574,248,376,
0,294,848,568,247,371,
0,291,835,560,244,367,
0,287,822,554,243,363,
0,286,808,548,242,359,
0,284,900,611,263,356,
0,280,909,604,261,353,
0,279,912,596,258,350,
0,324,895,589,255,347,
0,321,876,583,254,380,
0,318,860,575,252,376,
0,314,847,569,249,371,
0,312,832,561,248,368,
0,308,819,555,246,364,
0,306,816,549,263,359,
0,303,903,604,262,357,
0,300,910,596,259,353,
0,300,911,589,255,350,
0,321,892,582,254,347,
0,319,873,575,252,344,
0,316,859,568,249,341,
0,312,845,562,248,338,
0,309,831,555,246,334,
0,306,818,548,243,332,
0,304,859,572,260,327,
0,301,904,577,257,326,
0,299,910,570,255,323,
0,335,900,563,253,319,
0,331,878,557,251,327,
0,327,863,551,248,368,
0,324,849,544,247,364,
0,320,835,539,244,360,
0,318,822,531,243,356,
0,315,809,526,240,353,
0,312,888,571,255,350,
0,309,907,563,254,346,
0,307,911,556,252,344,
0,319,901,550,249,340,
0,316,878,543,248,385,
0,313,864,537,245,380,
0,311,849,531,243,376,
0,307,835,526,241,372,
0,304,822,519,239,368,
0,302,808,513,238,364,
0,300,896,573,255,360,
0,296,908,566,253,358,
0,295,909,560,251,354,
0,323,888,552,248,351,
0,319,871,547,247,380,
0,316,857,540,244,376,
0,313,843,534,243,372,
0,310,829,527,240,368,
0,307,816,521,239,364,
0,304,803,515,243,360,
0,302,899,583,267,357,
0,299,908,575,265,353,
0,295,904,569,263,350,
0,300,881,563,259,347,
0,297,867,556,257,391,
0,295,851,550,255,387,
0,292,838,543,254,384,
0,289,825,537,251,380,
0,287,812,530,249,375,
0,284,812,537,268,371,
0,281,903,621,264,368,
0,280,910,613,262,364,
0,287,909,606,260,359,
0,295,886,599,257,357,
0,292,870,591,255,353,
0,289,856,584,253,351,
0,287,841,577,251,348,
0,284,828,569,249,344,
0,281,815,563,247,340,
0,280,867,569,268,337,
0,276,905,563,264,335,
0,275,911,556,263,332,
0,319,909,550,260,328,
0,316,884,543,257,329,
0,312,868,539,255,344,
0,310,855,532,253,340,
0,307,840,527,251,336,
0,304,827,519,249,334,
0,301,814,515,247,329,
0,298,891,601,259,327,
0,295,907,593,257,323,
0,292,911,585,255,321,
0,344,911,579,252,319,
0,339,887,572,250,367,
0,335,871,566,248,361,
0,332,856,560,246,358,
0,329,842,553,243,355,
0,326,828,545,242,351,
0,323,816,540,240,347,
0,319,897,584,266,344,
0,317,908,577,263,340,
0,315,912,570,261,337,
0,316,908,563,259,334,
0,312,883,558,255,372,
0,310,868,551,254,368,
0,307,854,544,252,364,
0,304,839,539,249,361,
0,301,826,531,248,358,
0,299,813,526,253,353,
0,295,900,577,267,350,
0,294,909,569,263,347,
0,291,911,563,262,344,
0,289,893,556,259,340,
0,287,875,551,257,353,
0,284,860,543,255,350,
0,283,846,537,253,347,
0,280,831,532,251,344,
0,278,819,524,248,340,
0,275,821,543,261,336,
0,273,903,615,258,333,
0,271,909,608,255,331,
0,297,908,600,254,327,
0,326,880,592,251,324,
0,322,864,585,249,369,
0,319,850,579,248,366,
0,316,836,572,244,362,
0,312,824,566,243,359,
0,310,810,558,241,355,
0,307,878,579,263,351,
0,304,905,572,260,348,
0,301,911,566,258,344,
0,324,913,560,255,341,
0,321,890,553,253,350,
0,318,873,547,251,363,
0,315,859,541,248,359,
0,312,844,536,247,355,
0,309,831,529,244,352,
0,305,817,523,243,348,
0,303,892,592,258,345,
0,300,907,585,255,342,
0,297,911,577,254,339,
0,323,909,571,252,335,
0,319,880,564,249,384,
0,317,865,558,247,380,
0,314,851,551,244,376,
0,312,838,545,243,371,
0,308,824,540,241,368,
0,304,811,532,239,364,
0,302,896,578,259,359,
0,300,908,571,255,356,
0,296,911,564,254,353,
0,335,899,558,252,350,
0,332,873,551,249,379,
0,329,859,544,247,375,
0,326,844,539,245,371,
0,323,831,532,243,368,
0,319,817,527,241,364,
0,316,805,520,254,359,
0,313,900,568,259,356,
0,311,909,560,255,352,
0,308,911,555,255,349,
0,318,896,547,252,346,
0,315,871,542,249,381,
0,312,857,536,248,377,
0,309,843,529,246,373,
0,306,830,524,243,369,
0,304,816,519,241,366,
0,300,829,536,262,361,
0,297,903,585,259,358,
0,295,910,579,255,355,
0,294,911,572,254,352,
0,292,891,565,252,348,
0,290,870,559,249,390,
0,287,856,551,248,385,
0,285,841,545,245,382,
0,283,828,540,243,378,
0,280,815,534,241,374,
0,278,874,591,259,369,
0,275,905,583,255,366,
0,273,911,576,254,363,
0,278,908,570,252,359,
0,275,884,563,249,368,
0,273,865,557,248,371,
0,271,851,551,245,367,
0,268,837,544,243,364,
0,267,824,539,241,359,
0,263,811,532,240,356,
0,262,895,616,263,352,
0,259,907,608,262,349,
0,257,912,600,259,346,
0,287,915,593,257,343,
0,284,910,587,255,382,
0,281,880,579,252,377,
0,279,865,572,250,374,
0,276,851,567,248,369,
0,274,837,560,246,366,
0,271,824,554,244,363,
0,269,898,575,262,358,
0,267,908,569,259,355,
0,263,911,563,257,352,
0,281,907,556,255,348,
0,279,883,550,252,390,
0,276,864,543,249,385,
0,273,849,537,248,381,
0,271,835,531,246,377,
0,269,822,526,243,374,
0,266,809,520,263,370,
0,263,901,627,267,366,
0,262,910,619,264,361,
0,259,911,611,262,359,
0,296,893,604,260,355,
0,294,875,597,258,383,
0,291,856,590,255,379,
0,288,842,583,253,375,
0,286,828,576,251,371,
0,284,816,570,248,367,
0,280,835,564,267,364,
0,278,903,582,263,359,
0,275,911,574,262,355,
0,294,911,568,259,352,
0,294,896,561,257,350,
0,291,876,555,255,376,
0,289,857,549,252,373,
0,286,843,543,250,369,
0,284,830,537,248,366,
0,281,816,531,246,361,
0,279,874,536,258,359,
0,275,905,577,255,354,
0,273,911,571,254,351,
0,276,907,563,251,348,
0,273,883,558,249,363,
0,271,867,551,248,366,
0,268,849,544,244,363,
0,267,835,539,243,359,
0,263,822,533,240,355,
0,262,809,527,239,352,
0,259,892,583,270,349,
0,257,907,575,267,344,
0,255,911,568,265,342,
0,280,904,561,263,339,
0,278,880,556,260,352,
0,275,862,549,258,348,
0,273,847,543,255,344,
0,271,834,537,254,340,
0,268,820,531,252,337,
0,265,807,526,249,335,
0,263,897,572,258,332,
0,260,908,563,255,327,
0,258,911,558,254,326,
0,304,902,551,251,322,
0,300,878,543,249,353,
0,297,860,538,247,350,
0,295,846,532,244,345,
0,292,831,526,243,343,
0,289,819,520,240,339,
0,287,806,515,258,336,
0,284,902,575,259,333,
0,281,910,568,255,329,
0,279,911,560,254,327,
0,305,900,553,252,323,
0,302,878,547,249,364,
0,300,860,542,248,359,
0,295,845,536,245,356,
0,294,831,529,243,353,
0,291,818,524,241,350,
0,288,843,519,263,347,
0,286,903,571,260,344,
0,283,910,563,258,339,
0,280,911,556,255,335,
0,279,888,550,254,333,
0,276,871,543,252,329,
0,273,854,537,249,327,
0,271,839,531,247,324,
0,269,826,525,244,321,
0,267,814,519,243,319,
0,264,877,524,263,316,
0,262,905,547,260,313,
0,259,911,540,258,310,
0,287,908,534,255,307,
0,284,883,528,254,339,
0,281,868,523,252,355,
0,279,850,516,249,352,
0,276,836,511,247,348,
0,273,824,506,244,345,
0,271,810,501,243,342,
0,269,894,564,260,339,
0,265,908,556,258,335,
0,263,912,550,255,332,
0,307,911,543,254,328,
0,304,891,537,252,375,
0,301,873,531,249,370,
0,299,856,525,248,367,
0,295,841,519,244,363,
0,293,828,514,243,359,
0,291,815,508,241,355,
0,287,899,565,262,352,
0,285,908,556,259,349,
0,283,913,550,257,345,
0,300,909,543,255,342,
0,297,884,537,252,364,
0,294,869,531,251,359,
0,291,851,525,248,357,
0,289,837,519,246,353,
0,286,824,513,243,350,
0,284,811,508,268,347,
0,281,902,566,266,344,
0,279,910,558,263,340,
0,277,914,551,262,336,
0,322,910,544,259,334,
0,319,884,539,257,369,
0,316,869,532,255,366,
0,312,851,526,252,361,
0,310,837,520,251,359,
0,307,824,515,248,355,
0,304,854,510,265,352,
0,302,904,563,263,348,
0,298,911,555,260,345,
0,338,911,548,258,341,
0,339,890,542,255,338,
0,336,873,536,254,363,
0,333,858,529,252,359,
0,330,840,524,249,355,
0,327,827,518,247,352,
0,324,814,513,245,349,
0,321,886,535,268,345,
0,319,906,580,265,343,
0,315,911,572,263,339,
0,312,912,564,262,335,
0,310,896,558,259,371,
0,307,876,551,257,370,
0,304,861,545,255,366,
0,302,844,540,252,363,
0,299,830,534,250,359,
0,296,816,527,248,355,
0,295,894,578,271,352,
0,291,908,571,268,349,
0,289,911,562,266,345,
0,321,910,555,263,342,
0,318,886,548,262,375,
0,315,870,543,259,370,
0,312,856,536,257,366,
0,310,838,531,255,363,
0,306,824,525,252,359,
0,304,812,519,251,356,
0,302,899,577,267,352,
0,299,909,569,264,349,
0,295,911,561,263,345,
0,295,905,555,260,342,
0,293,880,548,258,355,
0,290,865,542,255,352,
0,287,851,536,254,348,
0,286,834,530,251,344,
0,284,820,524,249,342,
0,281,807,519,268,339,
0,279,902,546,265,335,
0,276,910,540,263,332,
0,274,913,531,261,328,
0,311,903,526,259,326,
0,308,880,519,255,363,
0,305,864,515,254,359,
0,302,850,509,252,355,
0,300,833,504,249,352,
0,296,819,499,248,349,
0,294,869,494,263,345,
0,291,904,572,259,342,
0,289,911,566,257,339,
0,305,911,558,255,335,
0,303,891,551,253,332,
0,300,873,543,251,363,
0,297,859,539,249,359,
0,295,844,532,247,355,
0,291,828,527,244,352,
0,289,815,520,243,348,
0,287,888,536,268,345,
0,284,906,595,265,342,
0,281,911,588,263,339,
0,340,908,578,260,335,
0,335,883,572,259,374,
0,332,868,565,255,371,
0,329,854,559,255,367,
0,327,839,552,252,363,
0,323,824,547,249,359,
0,320,810,540,248,356,
0,318,893,559,263,353,
0,315,907,551,261,350,
0,312,909,545,259,347,
0,336,891,537,255,342,
0,333,873,531,255,380,
0,329,859,526,252,376,
0,327,844,520,250,371,
0,323,831,515,248,368,
0,320,814,510,246,364,
0,318,801,504,244,360,
0,316,899,571,266,357,
0,312,909,563,263,353,
0,309,911,556,262,351,
0,307,897,548,259,347,
0,304,876,542,257,390,
0,301,862,536,255,385,
0,299,847,529,253,382,
0,295,833,524,251,377,
0,294,817,519,248,374,
0,291,804,513,263,371,
0,289,902,592,260,367,
0,287,910,585,257,363,
0,291,912,578,255,359,
0,319,901,569,254,355,
0,317,878,563,252,370,
0,314,864,556,249,366,
0,312,849,550,247,363,
0,308,835,543,245,359,
0,305,818,538,243,355,
0,303,865,532,267,352,
0,300,904,588,263,349,
0,297,911,580,262,346,
0,335,911,574,259,343,
0,332,890,566,257,341,
0,329,873,559,255,366,
0,326,858,552,253,363,
0,323,844,547,251,359,
0,319,830,540,248,355,
0,317,815,534,246,352,
0,314,885,568,275,348,
0,312,906,574,271,345,
0,308,910,568,270,342,
0,357,899,561,268,339,
0,353,877,552,265,378,
0,350,862,546,263,374,
0,346,847,540,260,369,
0,343,834,534,259,366,
0,339,820,528,255,363,
0,335,805,523,254,359,
0,334,895,567,268,355,
0,330,908,559,265,352,
0,327,911,552,263,349,
0,335,900,546,261,345,
0,332,878,539,259,377,
0,328,863,532,255,374,
0,326,849,527,255,369,
0,323,835,520,252,366,
0,319,819,515,250,362,
0,317,806,510,250,359,
0,315,899,566,262,355,
0,312,908,559,259,352,
0,309,910,551,257,348,
0,309,891,545,255,345,
0,306,873,537,253,375,
0,304,859,531,251,371,
0,301,845,526,248,367,
0,299,831,519,247,364,
0,295,815,515,244,359,
0,294,816,510,262,357,
0,291,903,563,259,353,
0,289,910,557,257,350,
0,287,911,550,255,347,
0,284,891,543,252,344,
0,282,873,536,250,361,
0,280,859,530,248,358,
0,278,844,524,246,354,
0,275,831,519,244,351,
0,273,814,513,242,348,
0,271,864,508,275,344,
0,269,904,568,272,341,
0,267,911,561,270,337,
0,265,911,555,268,335,
0,269,889,548,265,332,
0,267,872,540,263,348,
0,264,857,535,260,345,
0,263,844,528,258,342,
0,260,830,523,255,339,
0,259,814,517,254,335,
0,257,890,557,271,332,
0,255,906,595,270,329,
0,252,911,588,268,327,
0,267,908,582,265,323,
0,263,884,573,263,321,
0,261,868,567,260,360,
0,259,854,560,259,357,
0,255,839,553,255,353,
0,255,827,547,254,350,
0,252,811,542,252,347,
0,251,896,593,273,344,
0,248,908,585,270,340,
0,247,911,578,268,337,
0,244,899,571,265,334,
0,242,877,563,263,359,
0,240,862,556,262,364,
0,239,847,551,259,360,
0,237,834,543,257,357,
0,236,821,538,255,353,
0,233,805,532,253,351,
0,231,900,595,271,347,
0,231,909,587,270,344,
0,229,911,579,268,340,
0,247,899,573,265,337,
0,244,878,564,263,368,
0,241,863,558,261,363,
0,240,847,551,259,359,
0,238,835,545,255,355,
0,236,822,540,255,352,
0,233,824,534,252,349,
0,231,903,590,257,345,
0,230,910,583,255,342,
0,228,912,575,252,339,
0,268,897,568,251,335,
0,263,876,561,248,377,
0,262,861,555,247,372,
0,259,847,548,244,368,
0,257,833,542,243,364,
0,255,820,536,241,361,
0,252,871,531,262,358,
0,251,905,525,259,354,
0,248,911,519,257,351,
0,272,911,514,255,348,
0,327,888,508,252,344,
0,323,871,503,250,376,
0,319,856,497,248,370,
0,316,843,492,246,367,
0,313,829,487,244,363,
0,311,816,483,242,359,
0,308,892,535,269,356,
0,305,907,560,267,352,
0,303,911,553,263,349,
0,305,909,547,262,345,
0,302,885,540,259,344,
0,299,870,533,257,371,
0,295,855,527,255,366,
0,294,841,521,253,363,
0,291,827,515,251,359,
0,288,814,511,249,355,
0,286,897,593,271,352,
0,284,908,584,269,349,
0,281,911,577,267,345,
0,280,903,571,264,343,
0,279,880,564,263,380,
0,275,864,556,260,376,
0,273,851,550,258,371,
0,271,836,543,255,367,
0,269,824,537,254,364,
0,267,810,531,252,359,
0,265,901,599,267,356,
0,263,910,591,264,353,
0,260,912,583,263,350,
0,307,902,577,260,347,
0,304,880,571,258,383,
0,300,864,562,255,377,
0,297,849,556,254,374,
0,294,835,550,252,369,
0,291,823,543,249,366,
0,289,809,537,249,363,
0,287,903,556,265,359,
0,284,911,550,263,355,
0,281,914,543,261,352,
0,281,910,536,259,349,
0,279,886,531,257,382,
0,276,869,524,255,376,
0,273,855,519,252,373,
0,271,841,513,251,369,
0,269,827,508,248,366,
0,267,819,519,271,362,
0,265,905,588,267,359,
0,263,911,580,264,355,
0,272,910,574,263,352,
0,303,886,568,260,349,
0,300,871,561,258,385,
0,295,856,552,255,380,
0,294,842,547,254,376,
0,291,828,540,252,373,
0,288,816,535,249,369,
0,286,868,594,268,366,
0,283,907,638,264,363,
0,280,910,629,263,359,
0,333,899,622,260,355,
0,328,876,614,258,357,
0,326,862,607,255,377,
0,321,847,598,254,372,
0,319,834,591,252,369,
0,316,820,583,249,366,
0,312,807,577,248,362,
0,311,894,632,268,359,
0,307,908,623,265,355,
0,304,913,615,263,352,
0,321,914,608,260,348,
0,319,902,600,258,385,
0,316,878,593,255,381,
0,312,864,584,254,376,
0,308,849,579,252,372,
0,306,835,572,249,368,
0,303,822,566,248,365,
0,300,896,560,267,361,
0,298,909,553,263,358,
0,295,911,547,262,355,
0,295,900,542,259,352,
0,292,878,536,257,387,
0,289,863,531,255,384,
0,287,848,524,253,379,
0,284,835,519,251,376,
0,282,822,513,249,371,
0,280,808,508,259,368,
0,278,900,579,271,364,
0,275,910,572,268,360,
0,273,909,566,265,358,
0,295,887,559,263,354,
0,294,871,553,260,363,
0,290,856,546,259,359,
0,287,842,539,255,355,
0,285,828,533,254,352,
0,282,816,527,252,348,
0,280,825,539,274,345,
0,278,903,588,271,342,
0,275,911,582,268,339,
0,273,911,575,265,335,
0,271,892,568,263,333,
0,268,874,561,261,377,
0,265,860,555,259,373,
0,263,846,547,256,368,
0,262,831,541,255,364,
0,259,819,536,252,361,
0,258,871,606,268,358,
0,255,905,607,265,354,
0,254,911,600,263,351,
0,284,904,592,260,348,
0,281,880,585,259,352,
0,279,865,579,255,384,
0,275,851,572,254,379,
0,273,838,564,252,374,
0,271,824,558,250,370,
0,268,811,551,248,367,
0,266,892,587,263,363,
0,263,907,579,260,359,
0,262,912,572,258,356,
0,307,909,566,255,353,
0,303,884,559,254,380,
0,300,869,552,251,376,
0,296,855,547,249,371,
0,294,841,539,248,367,
0,291,827,534,245,363,
0,289,814,527,243,359,
0,287,897,614,263,356,
0,284,910,605,262,353,
0,281,913,598,259,350,
0,285,903,591,255,347,
0,283,880,583,255,371,
0,280,864,577,252,368,
0,276,849,570,250,364,
0,274,836,563,248,359,
0,271,823,556,246,355,
0,270,810,551,255,352,
0,268,902,564,257,349,
0,265,911,558,255,345,
0,263,911,551,253,343,
0,307,893,545,251,339,
0,304,875,540,248,359,
0,300,860,534,247,356,
0,297,846,527,244,353,
0,295,831,520,243,348,
0,291,819,515,240,345,
0,289,825,523,275,343,
0,287,903,562,271,339,
0,284,911,556,269,335,
0,281,908,549,266,333,
0,280,884,543,263,330,
0,278,868,536,262,355,
0,275,854,531,259,352,
0,271,839,525,257,348,
0,270,827,518,255,344,
0,268,814,512,253,341,
0,265,880,523,271,338,
0,263,905,518,268,335,
0,261,911,512,265,332,
0,299,910,507,263,328,
0,295,887,501,260,352,
0,292,871,496,259,377,
0,289,856,492,255,374,
0,286,843,486,254,371,
0,284,828,481,252,366,
0,281,816,476,250,362,
0,280,894,577,269,359,
0,276,907,568,267,355,
0,274,911,562,263,352,
0,352,903,556,262,349,
0,348,879,549,259,351,
0,344,864,543,257,348,
0,340,850,536,255,344,
0,336,836,529,252,341,
0,333,823,524,251,337,
0,330,810,518,248,335,
0,327,897,604,270,331,
0,324,908,596,268,327,
0,321,913,590,265,326,
0,385,909,582,263,323,
0,381,884,575,260,369,
0,377,868,568,258,364,
0,374,854,563,255,361,
0,369,840,555,254,358,
0,366,827,548,252,353,
0,362,814,543,263,350,
0,359,901,649,260,347,
0,355,909,639,259,344,
0,352,910,632,255,340,
0,415,888,624,254,337,
0,411,871,617,252,377,
0,406,856,609,249,374,
0,402,843,603,248,370,
0,397,829,594,246,366,
0,393,816,588,243,361,
0,390,828,597,266,359,
0,386,903,595,263,355,
0,383,910,587,261,352,
0,395,901,580,259,348,
0,408,878,574,255,345,
0,403,864,568,254,377,
0,399,849,561,252,373,
0,395,835,556,249,369,
0,391,822,548,248,366,
0,387,809,542,246,361,
0,384,876,597,263,358,
0,380,905,589,260,355,
0,376,911,582,257,352,
0,419,908,575,255,348,
0,414,883,568,253,376,
0,409,867,561,251,390,
0,405,854,556,248,385,
0,401,839,549,247,382,
0,396,826,542,244,377,
0,391,813,536,243,373,
0,388,892,615,262,369,
0,385,907,608,259,366,
0,382,911,600,257,363,
0,422,908,592,254,359,
0,416,883,585,252,384,
0,412,867,579,250,380,
0,408,853,572,248,376,
0,403,839,566,246,371,
0,399,825,558,243,368,
0,395,812,551,242,364,
0,391,898,627,265,359,
0,387,909,619,263,357,
0,384,912,611,261,353,
0,426,908,604,258,351,
0,422,883,596,255,371,
0,417,867,590,254,368,
0,412,852,583,252,364,
0,408,839,575,249,359,
0,403,825,568,248,356,
0,399,813,563,263,353,
0,396,902,639,262,350,
0,391,910,632,259,347,
0,388,913,624,257,344,
0,413,901,616,255,340,
0,408,878,609,253,376,
0,404,863,602,251,371,
0,400,849,595,248,368,
0,396,835,588,247,364,
0,391,822,580,244,359,
0,388,836,611,263,356,
0,384,903,659,260,353,
0,381,910,652,259,350,
0,396,911,643,255,347,
0,403,884,635,253,344,
0,399,869,627,251,343,
0,396,855,620,249,339,
0,391,840,612,247,336,
0,388,828,606,245,334,
0,384,814,597,243,330,
0,380,876,659,271,327,
0,376,905,652,268,324,
0,372,910,643,266,321,
0,431,906,636,263,319,
0,425,878,628,262,358,
0,420,863,620,259,366,
0,415,849,614,257,362,
0,412,835,606,255,359,
0,408,822,600,253,355,
0,403,808,591,251,351,
0,399,893,603,267,348,
0,396,907,595,263,344,
0,391,911,588,263,341,
0,444,907,582,260,338,
0,438,878,575,257,377,
0,433,864,568,255,372,
0,429,849,563,253,369,
0,424,835,556,251,366,
0,420,822,551,249,361,
0,415,809,543,247,358,
0,411,899,632,260,354,
0,407,908,624,258,351,
0,403,912,617,255,348,
0,454,908,609,254,344,
0,448,880,602,252,387,
0,444,864,595,249,384,
0,439,850,588,247,380,
0,434,836,581,245,376,
0,429,823,575,243,372,
0,424,810,568,262,368,
0,420,902,681,259,364,
0,416,910,671,255,359,
0,413,912,664,254,358,
0,423,905,655,252,354,
0,419,876,647,249,382,
0,415,862,639,248,378,
0,411,847,632,244,374,
0,407,834,624,243,371,
0,401,821,616,241,367,
0,399,851,653,259,363,
0,395,904,671,255,359,
0,391,911,663,254,355,
0,421,912,655,252,352,
0,435,895,647,249,352,
0,432,871,639,247,407,
0,427,857,632,245,403,
0,423,843,623,243,398,
0,419,829,615,241,394,
0,413,816,609,239,391,
0,409,886,696,255,385,
0,406,906,685,253,382,
0,401,911,675,251,379,
0,423,908,667,248,375,
0,418,883,659,247,414,
0,414,864,651,244,412,
0,409,850,643,242,408,
0,406,836,635,240,403,
0,401,823,627,238,399,
0,396,809,620,236,395,
0,393,895,705,255,390,
0,390,908,695,252,387,
0,385,912,685,250,384,
0,454,911,676,248,379,
0,448,889,668,246,418,
0,444,868,659,243,413,
0,439,854,652,241,408,
0,435,839,643,240,404,
0,430,827,636,238,400,
0,424,814,628,236,397,
0,420,899,667,257,391,
0,415,909,658,255,388,
0,412,913,649,252,384,
0,489,911,641,251,380,
0,483,883,633,248,398,
0,478,867,626,246,393,
0,472,853,619,243,390,
0,467,839,611,241,386,
0,462,825,605,240,382,
0,455,813,599,255,379,
0,451,903,593,252,374,
0,448,910,587,251,371,
0,448,914,581,248,367,
0,515,912,575,246,364,
0,508,884,568,244,403,
0,502,869,563,241,399,
0,497,855,557,240,395,
0,491,840,551,238,391,
0,486,827,545,236,387,
0,480,879,540,257,384,
0,475,905,633,255,379,
0,470,911,625,252,375,
0,496,915,617,251,371,
0,503,910,610,248,368,
0,497,880,603,246,388,
0,492,865,595,243,384,
0,486,851,589,241,380,
0,480,837,583,240,376,
0,476,824,575,238,373,
0,470,888,598,255,369,
0,464,906,679,252,365,
0,460,911,669,250,361,
0,515,915,660,248,359,
0,508,910,652,246,381,
0,503,880,644,243,377,
0,497,865,637,241,373,
0,492,851,629,240,369,
0,487,838,622,238,366,
0,481,824,615,236,363,
0,476,897,761,248,359,
0,471,908,748,245,355,
0,465,912,737,243,352,
0,476,911,728,241,348,
0,472,892,718,239,387,
0,466,870,708,238,384,
0,461,856,699,235,380,
0,456,841,691,233,376,
0,452,828,681,231,372,
0,448,815,673,230,368,
0,443,900,679,249,364,
0,438,910,671,248,359,
0,434,913,664,246,357,
0,446,915,655,243,353,
0,440,904,647,241,403,
0,436,876,639,240,398,
0,432,861,632,237,394,
0,428,847,625,235,390,
0,423,833,619,233,387,
0,420,820,612,238,384,
0,415,903,787,236,379,
0,412,910,774,233,374,
0,428,913,763,231,371,
0,496,908,752,230,367,
0,491,883,742,228,364,
0,494,864,732,227,361,
0,487,850,723,224,358,
0,483,836,713,223,355,
0,478,823,704,222,352,
0,472,881,704,230,348,
0,466,905,828,227,345,
0,462,911,816,226,342,
0,505,916,803,224,339,
0,530,915,792,222,342,
0,534,902,781,220,391,
0,527,873,770,219,387,
0,520,859,760,217,384,
0,515,845,750,216,380,
0,509,831,739,214,376,
0,504,891,774,235,372,
0,497,907,819,232,369,
0,492,911,806,231,364,
0,543,908,795,228,361,
0,536,884,783,227,410,
0,540,869,772,225,409,
0,534,851,761,223,404,
0,527,838,752,221,400,
0,521,824,742,220,396,
0,515,811,732,217,392,
0,511,896,847,236,389,
0,504,908,871,233,385,
0,497,911,857,231,380,
0,513,907,844,230,376,
0,508,883,831,228,427,
0,502,867,819,226,422,
0,496,849,807,224,416,
0,492,835,796,222,412,
0,487,823,785,220,408,
0,481,809,775,222,404,
0,477,900,891,239,400,
0,471,909,878,237,396,
0,466,913,864,235,391,
0,536,914,851,233,388,
0,530,900,838,231,428,
0,540,877,825,230,423,
0,534,859,814,227,418,
0,527,845,802,225,414,
0,521,831,792,223,409,
0,516,820,780,243,406,
0,511,903,864,240,401,
0,504,910,847,238,396,
0,498,914,834,236,393,
0,588,910,821,235,390,
0,590,886,809,232,437,
0,613,870,797,231,432,
0,605,851,786,228,428,
0,598,837,775,226,423,
0,590,824,765,224,419,
0,583,874,791,238,415,
0,577,905,903,235,411,
0,568,911,908,233,406,
0,612,913,891,231,401,
0,641,905,875,230,399,
0,684,880,862,227,415,
0,671,865,849,225,412,
0,663,847,836,224,407,
0,654,833,824,222,403,
0,646,820,812,220,399,
0,638,896,856,238,395,
0,630,908,905,236,391,
0,620,912,910,233,387,
0,684,914,895,231,384,
0,673,901,878,230,401,
0,716,878,865,228,396,
0,705,863,851,226,391,
0,696,845,839,224,388,
0,686,831,827,222,384,
0,678,819,815,220,382,
0,669,898,893,240,377,
0,660,908,908,237,374,
0,649,912,903,236,369,
0,643,913,883,233,367,
0,635,897,870,231,419,
0,734,876,856,230,414,
0,723,861,843,227,409,
0,712,844,831,225,406,
0,703,830,819,224,401,
0,694,817,807,225,398,
0,685,900,902,231,393,
0,675,909,909,230,390,
0,664,913,895,228,385,
0,713,911,878,226,382,
0,703,889,864,224,430,
0,768,872,851,223,425,
0,756,858,839,220,420,
0,744,840,826,219,415,
0,735,827,814,217,412,
0,724,820,803,236,408,
0,715,903,792,233,403,
0,704,910,782,231,399,
0,694,911,768,229,395,
0,735,896,759,227,391,
0,740,876,749,225,404,
0,798,861,739,224,399,
0,785,847,730,222,396,
0,774,830,721,220,391,
0,763,816,712,217,388,
0,752,871,704,240,385,
0,742,905,793,238,381,
0,729,911,781,236,377,
0,724,912,768,233,373,
0,736,897,756,231,380,
0,799,876,747,230,407,
0,802,861,736,228,403,
0,790,847,727,227,399,
0,778,830,717,224,395,
0,768,817,707,222,391,
0,757,889,856,225,387,
0,746,906,906,224,384,
0,733,911,911,222,380,
0,829,905,907,220,375,
0,814,881,884,218,371,
0,871,866,871,216,368,
0,856,851,857,215,364,
0,843,838,844,214,361,
0,829,821,831,211,359,
0,817,808,820,210,355,
0,806,897,894,229,352,
0,793,908,908,227,349,
0,779,912,914,225,347,
0,844,913,916,223,343,
0,830,896,910,222,396,
0,859,875,885,220,391,
0,844,860,871,217,387,
0,830,847,857,216,383,
0,818,830,845,214,379,
0,806,816,833,225,376,
0,795,900,899,233,371,
0,783,909,910,231,368,
0,768,913,911,230,364,
0,759,915,888,228,360,
0,748,901,874,226,412,
0,814,877,860,224,408,
0,801,862,847,222,403,
0,790,845,835,221,399,
0,778,831,823,219,395,
0,768,882,879,229,391,
0,756,905,907,227,387,
0,745,911,913,224,384,
0,734,915,916,223,380,
0,731,917,913,221,376,
0,742,915,891,219,433,
0,798,886,876,217,428,
0,786,871,862,216,423,
0,774,852,849,214,419,
0,763,839,836,212,415,
0,752,885,825,236,411,
0,742,905,813,233,407,
0,732,911,803,231,403,
0,719,915,792,230,399,
0,711,915,779,227,414,
0,788,899,768,226,433,
0,779,876,758,224,428,
0,768,861,748,222,423,
0,756,844,739,220,419,
0,745,830,730,218,415,
0,736,892,811,236,412,
0,724,907,903,234,408,
0,715,912,909,231,403,
0,704,915,896,230,399,
0,694,910,875,228,439,
0,800,884,861,226,433,
0,787,868,848,224,428,
0,775,855,835,223,423,
0,764,837,824,221,419,
0,753,824,812,219,415,
0,743,899,800,236,411,
0,732,908,790,233,408,
0,723,912,779,231,403,
0,768,908,766,230,399,
0,756,883,756,227,401,
0,837,868,746,226,397,
0,824,854,736,224,393,
0,811,839,728,222,390,
0,799,823,718,220,385,
0,787,810,710,231,383,
0,775,900,880,234,379,
0,764,909,907,231,376,
0,753,913,909,231,371,
0,742,911,888,228,368,
0,732,889,873,227,433,
0,812,871,859,224,428,
0,799,857,846,223,423,
0,787,844,833,221,419,
0,775,827,898,219,415,
0,765,867,896,236,412,
0,754,905,908,234,408,
0,743,911,914,231,403,
0,733,915,918,231,399,
0,721,916,918,228,396,
0,733,909,908,227,436,
0,775,881,883,224,432,
0,763,866,869,223,428,
0,752,852,856,222,423,
0,742,835,844,220,419,
0,732,884,871,231,415,
0,721,905,902,228,410,
0,711,911,887,227,406,
0,702,915,871,225,402,
0,691,913,856,223,398,
0,788,891,842,221,402,
0,780,872,830,220,398,
0,768,859,818,217,395,
0,756,844,807,216,391,
0,746,827,796,214,387,
0,736,892,875,222,384,
0,726,907,907,220,380,
0,716,911,913,218,376,
0,743,913,915,216,373,
0,769,900,900,215,385,
0,833,877,880,212,409,
0,820,862,866,211,404,
0,807,847,852,210,400,
0,795,834,840,208,396,
0,783,818,828,207,393,
0,772,898,897,217,389,
0,761,908,909,216,385,
0,751,913,914,214,382,
0,837,914,917,212,378,
0,904,903,910,211,412,
0,909,878,885,209,407,
0,915,864,871,207,402,
0,918,849,857,206,398,
0,915,835,845,204,393,
0,894,819,867,225,391,
0,878,902,906,225,387,
0,863,910,913,223,383,
0,850,913,915,221,380,
0,900,908,911,219,376,
0,911,884,884,217,406,
0,915,868,870,216,399,
0,918,854,856,214,396,
0,920,839,844,212,391,
0,913,827,831,211,388,
0,886,863,880,236,384,
0,871,904,907,234,381,
0,858,911,913,231,377,
0,845,915,916,231,374,
0,900,916,918,228,370,
0,902,911,906,227,415,
0,911,883,882,224,412,
0,915,868,868,223,408,
0,911,854,856,221,403,
0,888,839,843,219,399,
0,873,884,833,227,396,
0,860,905,904,225,391,
0,846,911,911,224,387,
0,833,915,916,222,384,
0,903,909,918,220,380,
0,902,883,909,219,376,
0,911,867,884,216,372,
0,915,854,870,216,368,
0,911,839,857,213,366,
0,887,827,845,211,362,
0,872,895,889,238,359,
0,859,908,908,236,355,
0,845,912,913,233,353,
0,862,915,917,231,350,
0,905,911,918,230,363,
0,908,887,905,227,385,
0,914,871,881,226,382,
0,917,856,867,224,377,
0,916,842,855,223,374,
0,898,829,842,221,371,
0,879,900,834,239,367,
0,864,909,892,236,363,
0,851,913,876,235,359,
0,895,914,862,231,356,
0,910,903,849,231,413,
0,915,879,832,228,407,
0,918,864,820,227,401,
0,920,849,809,225,398,
0,920,836,798,223,393,
0,902,823,787,222,390,
0,880,902,777,225,386,
0,865,910,767,223,382,
0,852,913,757,221,379,
0,902,908,748,220,376,
0,911,883,738,217,375,
0,916,867,727,216,369,
0,920,854,718,215,367,
0,920,839,709,212,363,
0,921,826,700,211,359,
0,914,814,693,222,356,
0,886,904,684,223,353,
0,871,911,676,222,350,
0,857,913,669,220,348,
0,905,909,662,218,344,
0,914,883,654,216,415,
0,917,867,646,214,408,
0,920,854,638,212,404,
0,921,839,632,211,400,
0,922,826,624,209,396,
0,915,818,705,211,392,
0,886,905,771,209,388,
0,871,911,760,207,385,
0,868,913,750,206,381,
0,908,904,739,204,377,
0,915,880,729,203,438,
0,918,864,717,201,432,
0,920,851,708,199,427,
0,921,837,699,199,422,
0,920,824,690,198,418,
0,905,880,792,224,414,
0,880,907,839,222,409,
0,865,911,827,220,406,
0,888,910,814,218,401,
0,908,887,802,216,427,
0,915,871,791,215,439,
0,918,856,776,212,432,
0,920,842,766,211,428,
0,921,829,755,209,423,
0,918,816,745,207,419,
0,891,892,891,224,415,
0,875,909,875,221,411,
0,861,913,861,220,407,
0,894,911,847,217,403,
0,910,890,835,216,433,
0,915,872,823,214,428,
0,918,858,807,212,423,
0,920,844,796,211,418,
0,920,831,903,209,414,
0,900,817,907,207,409,
0,879,897,909,227,406,
0,865,910,913,224,401,
0,851,913,913,222,398,
0,899,911,894,220,393,
0,910,887,878,219,449,
0,914,870,864,217,444,
0,917,856,847,216,438,
0,918,841,835,214,433,
0,908,828,824,211,429,
0,883,816,812,227,424,
0,868,903,799,227,420,
0,855,911,789,224,416,
0,841,911,779,223,412,
0,904,892,768,221,408,
0,913,873,759,219,442,
0,917,859,748,217,437,
0,920,845,736,216,431,
0,921,831,728,214,427,
0,918,818,719,211,423,
0,892,839,802,220,418,
0,876,905,866,219,414,
0,862,911,852,216,409,
0,849,915,839,215,406,
0,907,911,827,212,402,
0,913,886,814,211,399,
0,917,870,802,209,395,
0,920,856,889,207,391,
0,920,841,908,206,387,
0,904,828,913,205,384,
0,881,883,916,224,380,
0,866,908,916,222,376,
0,853,912,900,219,373,
0,883,910,880,217,369,
0,908,886,866,216,408,
0,913,870,853,214,414,
0,918,856,840,212,409,
0,920,841,825,210,404,
0,918,828,860,208,399,
0,896,815,906,207,396,
0,877,896,911,231,391,
0,863,909,915,231,388,
0,849,913,918,227,385,
0,896,915,920,226,381,
0,905,909,920,224,408,
0,907,882,911,222,403,
0,915,867,880,220,399,
0,915,853,867,219,393,
0,900,839,854,216,390,
0,880,825,841,216,386,
0,866,899,896,231,382,
0,851,910,908,230,378,
0,839,913,902,227,375,
0,900,907,881,225,371,
0,911,882,868,224,419,
0,915,867,855,222,415,
0,915,852,839,220,411,
0,897,839,827,219,406,
0,878,825,815,217,401,
0,864,812,804,232,398,
0,851,902,792,231,393,
0,838,911,782,229,390,
0,825,911,772,227,386,
0,898,896,762,224,382,
0,883,876,752,223,419,
0,908,860,743,221,414,
0,912,847,731,219,409,
0,897,833,780,217,404,
0,879,819,902,216,399,
0,865,828,911,227,396,
0,851,903,911,225,392,
0,838,910,896,223,388,
0,825,901,878,220,385,
0,888,878,864,219,381,
0,884,863,851,217,417,
0,882,849,839,216,412,
0,864,835,824,214,408,
0,850,822,812,212,403,
0,836,809,800,210,399,
0,824,880,861,231,395,
0,812,905,847,230,391,
0,799,911,833,227,387,
0,835,905,821,226,384,
0,860,881,809,224,435,
0,867,866,797,222,444,
0,853,851,786,220,440,
0,836,838,773,218,435,
0,823,824,763,216,430,
0,811,811,753,215,425,
0,799,894,888,223,421,
0,787,907,905,220,416,
0,776,913,896,219,412,
0,843,911,878,216,408,
0,828,888,864,215,432,
0,859,871,851,213,428,
0,844,857,839,211,423,
0,828,844,823,209,419,
0,815,830,900,208,413,
0,802,817,895,207,408,
0,791,900,877,231,404,
0,779,909,863,229,400,
0,768,913,850,227,397,
0,758,908,838,225,393,
0,748,883,825,223,423,
0,795,867,813,221,419,
0,782,852,801,220,415,
0,768,839,787,217,411,
0,757,825,777,216,406,
0,746,813,858,231,401,
0,736,902,905,228,398,
0,727,910,904,227,393,
0,717,911,886,224,390,
0,736,896,871,222,387,
0,725,875,857,220,435,
0,758,860,845,218,430,
0,747,846,831,216,425,
0,733,832,817,215,419,
0,723,819,806,213,415,
0,713,859,856,236,412,
0,704,904,877,233,408,
0,696,911,863,231,403,
0,687,911,849,228,399,
0,687,889,836,227,398,
0,735,872,824,225,452,
0,761,857,812,223,448,
0,750,844,799,221,443,
0,736,831,786,220,436,
0,726,817,775,217,432,
0,716,879,896,234,428,
0,706,905,909,231,423,
0,696,911,914,230,419,
0,735,903,916,227,415,
0,751,880,912,225,412,
0,785,865,888,224,408,
0,773,851,873,222,404,
0,761,836,860,220,400,
0,748,824,844,219,396,
0,737,811,831,216,391,
0,727,894,820,229,388,
0,717,908,808,227,385,
0,707,911,798,225,382,
0,697,898,787,223,377,
0,689,876,776,221,407,
0,732,862,766,219,402,
0,721,847,756,217,398,
0,711,833,747,216,394,
0,699,820,735,214,389,
0,689,807,726,216,385,
0,681,899,897,236,382,
0,671,908,909,233,377,
0,664,913,915,231,375,
0,656,915,917,229,371,
0,649,904,918,227,369,
0,685,879,904,225,366,
0,675,864,881,224,362,
0,666,850,868,222,359,
0,655,836,851,220,355,
0,647,824,839,235,352,
0,639,902,889,232,349,
0,632,910,874,231,347,
0,625,911,860,229,344,
0,617,887,847,227,340,
0,611,871,835,225,387,
0,644,856,823,223,384,
0,636,842,811,221,380,
0,625,828,799,220,376,
0,617,816,786,217,371,
0,610,859,896,226,368,
0,603,904,909,224,364,
0,596,911,914,222,359,
0,590,914,917,220,357,
0,583,902,915,218,353,
0,607,878,896,216,406,
0,617,864,878,215,401,
0,609,849,864,213,398,
0,600,835,851,211,393,
0,591,822,835,210,388,
0,585,892,900,219,384,
0,579,907,910,216,381,
0,572,911,914,215,377,
0,602,915,911,212,374,
0,655,908,888,211,417,
0,795,881,873,209,422,
0,807,866,860,207,417,
0,795,852,847,206,413,
0,780,838,835,204,408,
0,768,824,819,203,403,
0,758,895,902,228,399,
0,747,908,911,226,396,
0,736,912,915,224,391,
0,868,913,918,222,388,
0,900,892,920,220,408,
0,905,873,915,217,403,
0,913,860,889,216,399,
0,915,846,875,215,395,
0,905,831,862,212,391,
0,882,819,846,213,386,
0,868,899,904,231,382,
0,854,909,911,231,379,
0,841,913,915,228,375,
0,902,914,906,227,371,
0,911,890,883,224,415,
0,915,872,869,223,411,
0,919,858,856,220,407,
0,920,844,844,219,403,
0,918,830,831,217,399,
0,895,817,817,239,393,
0,877,903,806,237,390,
0,863,910,794,235,387,
0,849,913,783,232,383,
0,903,903,773,231,379,
0,912,879,763,228,422,
0,915,864,753,227,417,
0,919,849,743,224,413,
0,920,836,734,223,408,
0,908,823,725,221,404,
0,883,858,714,236,399,
0,868,904,705,233,396,
0,855,911,697,231,391,
0,859,913,689,230,388,
0,907,896,681,227,387,
0,913,875,673,225,428,
0,917,860,665,224,423,
0,920,846,658,222,419,
0,920,831,651,220,415,
0,915,819,643,219,411,
0,888,886,823,226,406,
0,873,905,903,224,401,
0,859,908,903,222,398,
0,888,889,883,220,393,
0,909,868,870,219,441,
0,914,854,856,216,435,
0,918,839,843,215,431,
0,920,826,830,213,426,
0,921,813,818,211,422,
0,918,800,804,210,417,
0,890,895,792,224,412,
0,875,908,782,223,408,
0,861,911,771,220,404,
0,899,903,761,219,399,
0,911,876,752,217,449,
0,915,861,742,215,444,
0,918,847,732,212,440,
0,920,833,723,211,435,
0,922,820,714,209,430,
0,918,807,704,211,425,
0,889,899,729,228,420,
0,874,908,719,227,415,
0,860,908,709,225,412,
0,902,888,700,223,408,
0,911,868,691,220,409,
0,915,854,683,219,406,
0,919,839,675,216,401,
0,920,825,667,215,398,
0,922,813,659,214,394,
0,916,801,651,236,391,
0,888,902,672,231,386,
0,872,910,664,231,383,
0,860,913,655,228,379,
0,903,907,647,227,376,
0,908,877,639,225,433,
0,913,863,633,223,429,
0,916,848,626,220,423,
0,915,834,620,219,419,
0,896,821,613,217,415,
0,875,860,647,243,412,
0,860,904,646,240,407,
0,847,910,638,238,402,
0,835,907,630,236,399,
0,837,883,622,234,395,
0,883,864,615,231,434,
0,907,850,607,230,430,
0,896,835,600,228,425,
0,878,823,594,226,420,
0,864,809,588,224,416,
0,847,891,778,239,412,
0,833,907,852,236,407,
0,822,911,838,234,403,
0,809,911,825,231,399,
0,825,888,813,231,436,
0,896,868,801,228,432,
0,909,854,790,226,428,
0,908,839,779,224,423,
0,888,827,768,223,419,
0,872,814,758,221,415,
0,856,896,880,237,411,
0,841,908,867,235,406,
0,828,911,852,232,401,
0,831,913,839,231,398,
0,839,896,828,229,438,
0,903,871,815,227,432,
0,912,857,803,225,428,
0,915,843,792,223,423,
0,907,830,781,222,419,
0,883,816,770,223,415,
0,866,900,758,227,411,
0,852,909,747,225,406,
0,839,911,737,224,401,
0,826,899,728,221,398,
0,815,877,719,220,425,
0,903,859,710,217,420,
0,906,844,701,216,415,
0,887,831,693,214,412,
0,871,818,803,212,408,
0,857,805,792,235,403,
0,840,902,776,232,399,
0,828,910,765,231,395,
0,816,910,755,229,391,
0,803,888,744,227,387,
0,822,873,734,225,442,
0,903,854,724,223,437,
0,895,839,715,221,432,
0,877,827,706,219,428,
0,863,814,697,217,423,
0,849,859,719,236,419,
0,833,904,866,233,414,
0,820,911,852,231,409,
0,807,911,839,230,406,
0,796,894,826,227,401,
0,876,875,814,225,401,
0,904,856,802,224,398,
0,890,842,791,222,393,
0,874,828,780,220,390,
0,860,816,769,217,387,
0,847,889,760,238,384,
0,830,907,746,236,379,
0,817,910,736,234,376,
0,839,900,728,231,371,
0,905,878,718,230,411,
0,910,863,709,228,406,
0,914,846,700,226,401,
0,917,831,691,224,398,
0,911,819,684,222,393,
0,886,806,675,220,390,
0,871,896,668,239,386,
0,854,908,658,236,381,
0,840,910,651,235,377,
0,882,897,643,232,374,
0,874,876,636,231,391,
0,904,861,629,229,387,
0,911,844,622,227,383,
0,913,830,615,225,379,
0,897,816,609,223,376,
0,879,804,603,227,371,
0,864,899,646,227,368,
0,847,908,636,226,364,
0,834,911,627,224,361,
0,900,897,620,223,358,
0,911,876,612,220,361,
0,915,861,604,219,358,
0,918,844,598,216,355,
0,920,830,591,215,352,
0,915,817,585,214,348,
0,888,816,579,241,346,
0,873,903,668,239,343,
0,856,910,656,236,339,
0,843,910,647,235,336,
0,830,890,639,232,334,
0,843,873,632,231,388,
0,903,858,624,229,384,
0,888,840,616,227,380,
0,872,828,609,224,376,
0,858,814,602,223,372,
0,845,877,620,231,369,
0,828,905,690,230,365,
0,816,911,679,227,361,
0,804,913,670,226,358,
0,793,902,661,224,366,
0,870,879,652,222,384,
0,896,864,644,220,380,
0,878,846,636,218,376,
0,864,831,629,216,373,
0,850,819,621,215,369,
0,838,890,712,225,366,
0,820,906,835,224,362,
0,807,911,818,222,358,
0,797,915,806,220,355,
0,785,911,795,217,411,
0,890,884,783,216,404,
0,878,868,771,215,400,
0,864,851,761,212,396,
0,849,838,751,211,391,
0,836,824,741,209,388,
0,824,897,732,220,385,
0,807,908,721,217,381,
0,796,908,710,216,376,
0,785,887,702,215,373,
0,774,871,694,213,415,
0,893,856,684,211,409,
0,878,842,676,209,406,
0,864,825,668,207,401,
0,849,812,660,206,397,
0,836,799,681,226,393,
0,824,902,781,239,390,
0,807,910,769,236,385,
0,796,913,755,234,381,
0,784,911,745,231,377,
0,774,889,736,231,415,
0,888,872,725,228,411,
0,872,857,716,227,407,
0,857,839,706,224,403,
0,844,827,697,223,399,
0,831,824,688,236,395,
0,819,903,679,233,391,
0,803,910,671,231,387,
0,792,911,662,230,383,
0,780,892,654,227,379,
0,799,875,647,225,399,
0,882,859,639,224,395,
0,867,841,632,222,391,
0,852,828,624,220,387,
0,839,815,617,218,384,
0,827,880,724,241,380,
0,813,905,799,239,376,
0,798,910,787,237,372,
0,787,900,774,235,368,
0,775,878,762,233,369,
0,856,864,752,231,369,
0,883,848,742,230,366,
0,868,831,732,227,363,
0,855,818,721,225,359,
0,840,806,712,224,356,
0,828,890,704,238,353,
0,815,907,695,236,350,
0,799,911,686,233,347,
0,788,910,675,231,344,
0,777,888,668,230,399,
0,886,871,659,227,395,
0,871,856,652,225,391,
0,856,839,644,224,387,
0,843,825,637,222,384,
0,829,813,630,220,380,
0,817,897,835,224,376,
0,804,908,889,223,371,
0,790,911,873,220,368,
0,881,910,856,219,364,
0,883,886,844,217,387,
0,904,870,831,216,384,
0,911,856,818,214,380,
0,905,838,807,212,376,
0,883,825,795,210,371,
0,869,812,783,227,368,
0,856,900,774,227,364,
0,842,909,764,225,361,
0,826,911,751,224,359,
0,814,904,741,222,354,
0,802,881,732,220,403,
0,895,865,722,218,399,
0,879,851,713,216,395,
0,864,833,704,215,391,
0,850,820,696,212,387,
0,836,838,688,231,384,
0,824,903,758,230,380,
0,811,910,747,227,376,
0,796,911,734,226,372,
0,784,891,723,224,368,
0,809,873,714,222,420,
0,872,859,704,220,415,
0,857,844,696,219,411,
0,844,828,686,216,407,
0,831,815,678,215,403,
0,818,881,694,243,399,
0,806,905,894,240,395,
0,793,911,886,239,391,
0,780,914,867,236,387,
0,769,910,854,235,387,
0,857,884,841,232,384,
0,867,868,828,231,380,
0,852,855,816,228,376,
0,839,837,804,227,374,
0,825,824,793,225,369,
0,814,894,783,237,366,
0,801,907,771,235,363,
0,790,911,761,233,359,
0,775,911,749,231,356,
0,764,892,739,230,401,
0,857,873,730,227,396,
0,843,859,721,225,391,
0,829,845,711,224,387,
0,816,828,703,222,384,
0,803,816,695,220,380,
0,792,897,818,243,376,
0,780,908,884,240,372,
0,769,912,868,238,369,
0,755,911,851,236,366,
0,745,888,839,235,406,
0,850,871,826,231,401,
0,836,857,815,231,397,
0,823,844,803,228,393,
0,810,826,792,226,390,
0,798,814,780,237,385,
0,786,902,770,236,382,
0,775,910,760,235,378,
0,764,911,750,231,375,
0,751,902,738,231,371,
0,740,879,728,228,440,
0,852,864,719,227,434,
0,839,849,710,225,430,
0,825,835,701,223,425,
0,812,819,693,221,420,
0,799,844,685,248,416,
0,787,904,676,246,412,
0,776,911,669,243,408,
0,766,913,662,241,404,
0,753,905,652,239,400,
0,803,881,644,237,431,
0,860,865,637,235,426,
0,846,851,631,233,422,
0,832,837,623,231,417,
0,819,820,616,229,413,
0,807,876,610,239,409,
0,795,905,604,236,405,
0,783,911,598,235,401,
0,772,911,591,232,397,
0,759,888,583,231,425,
0,848,872,577,228,440,
0,852,857,572,227,435,
0,838,844,566,225,431,
0,825,830,560,224,427,
0,812,814,556,221,423,
0,799,891,561,231,418,
0,787,907,555,228,414,
0,776,911,547,226,409,
0,766,908,543,224,406,
0,755,884,536,223,415,
0,851,868,531,221,411,
0,836,854,526,219,407,
0,824,840,521,217,403,
0,811,827,516,216,399,
0,798,811,512,214,395,
0,787,897,618,236,391,
0,775,908,609,233,387,
0,764,911,601,231,384,
0,753,899,594,230,380,
0,740,877,585,227,423,
0,852,863,578,225,419,
0,838,847,572,224,415,
0,824,835,565,222,411,
0,812,821,559,220,407,
0,799,806,553,227,403,
0,787,902,692,225,398,
0,775,910,683,224,395,
0,764,912,673,222,391,
0,754,905,664,220,387,
0,741,881,654,218,419,
0,836,865,646,216,415,
0,824,851,638,215,411,
0,811,838,820,213,406,
0,798,824,903,211,401,
0,786,835,909,232,398,
0,775,903,895,230,393,
0,763,910,878,228,390,
0,752,909,864,226,387,
0,760,886,851,224,383,
0,811,871,835,222,380,
0,865,856,823,220,376,
0,850,841,811,219,374,
0,836,828,799,217,369,
0,824,815,788,216,367,
0,811,882,780,225,364,
0,798,905,897,224,359,
0,787,911,882,222,357,
0,775,911,867,220,354,
0,761,893,854,218,351,
0,867,875,838,216,396,
0,867,860,825,215,391,
0,854,846,814,213,387,
0,839,831,802,211,384,
0,826,819,792,209,380,
0,814,896,782,230,376,
0,801,908,771,228,372,
0,790,911,761,226,369,
0,779,911,752,224,365,
0,764,891,742,223,390,
0,865,873,730,220,403,
0,850,859,721,219,398,
0,836,845,712,216,394,
0,824,831,704,215,390,
0,811,818,696,214,387,
0,799,899,880,228,383,
0,787,908,908,226,379,
0,775,911,913,224,376,
0,764,906,915,223,371,
0,751,882,905,221,391,
0,873,867,879,219,387,
0,859,852,865,217,383,
0,845,839,852,216,379,
0,831,825,839,214,376,
0,819,812,828,212,371,
0,806,902,816,229,368,
0,794,910,805,227,364,
0,783,909,793,225,361,
0,771,887,783,224,358,
0,768,871,773,222,415,
0,875,856,760,220,408,
0,860,842,750,217,404,
0,846,828,740,216,400,
0,832,816,731,215,396,
0,820,803,723,231,391,
0,807,903,839,227,388,
0,796,910,825,225,385,
0,783,909,813,224,381,
0,773,886,801,222,377,
0,822,871,790,220,423,
0,881,856,775,217,417,
0,866,841,765,216,413,
0,852,828,754,215,408,
0,839,815,743,213,404,
0,826,884,735,233,400,
0,813,907,725,231,396,
0,801,911,716,229,393,
0,790,911,707,227,389,
0,778,888,699,225,385,
0,871,871,690,223,403,
0,862,857,679,221,397,
0,847,844,671,220,393,
0,834,830,664,217,390,
0,821,816,657,216,385,
0,809,894,654,235,382,
0,796,907,646,231,378,
0,785,911,639,230,375,
0,774,912,632,227,371,
0,763,895,625,226,388,
0,870,875,618,224,391,
0,855,860,610,222,386,
0,840,846,604,220,382,
0,827,832,598,219,378,
0,814,819,591,217,375,
0,802,899,585,236,371,
0,791,909,579,233,368,
0,779,912,574,231,364,
0,768,908,568,229,361,
0,757,884,562,227,407,
0,876,868,556,225,401,
0,861,854,671,224,396,
0,847,840,662,222,391,
0,833,827,653,220,388,
0,820,814,644,218,384,
0,807,902,636,236,381,
0,796,910,628,234,377,
0,783,911,621,231,374,
0,773,898,614,230,370,
0,761,877,607,228,403,
0,888,862,598,226,398,
0,871,847,591,224,393,
0,857,833,583,223,389,
0,844,820,577,221,385,
0,831,807,572,236,382,
0,818,903,627,233,377,
0,805,910,619,231,374,
0,793,910,611,229,370,
0,782,888,603,227,367,
0,771,872,596,225,399,
0,860,857,587,224,396,
0,846,844,580,222,391,
0,833,830,574,220,387,
0,820,817,568,217,383,
0,807,855,678,230,379,
0,796,907,689,227,376,
0,783,911,679,225,371,
0,772,911,671,223,368,
0,779,891,662,222,364,
0,829,873,654,220,403,
0,868,859,643,217,398,
0,854,844,636,216,393,
0,839,831,628,215,390,
0,827,817,620,212,385,
0,814,880,614,227,382,
0,801,908,606,225,377,
0,790,911,600,223,374,
0,779,903,592,222,371,
0,768,880,585,220,399,
0,864,864,579,217,406,
0,859,850,572,216,401,
0,844,836,566,215,396,
0,831,824,568,212,391,
0,819,811,561,211,388,
0,806,896,555,227,384,
0,793,909,550,225,380,
0,782,913,543,223,376,
0,771,914,539,221,374,
0,760,896,534,220,423,
0,865,875,528,217,417,
0,847,861,522,216,412,
0,833,847,518,214,408,
0,819,833,513,212,403,
0,807,819,519,211,399,
0,796,899,716,216,396,
0,783,910,705,215,391,
0,772,912,696,212,387,
0,761,900,686,211,384,
0,751,878,678,209,382,
0,857,863,668,207,377,
0,839,849,658,206,374,
0,826,835,649,204,369,
0,813,822,642,203,366,
0,801,809,673,243,364,
0,790,902,788,243,359,
0,777,908,775,240,356,
0,767,896,765,238,353,
0,755,876,755,236,350,
0,755,862,744,235,406,
0,864,847,734,231,401,
0,845,833,721,231,396,
0,831,819,711,228,392,
0,819,807,703,227,388,
0,807,844,768,244,385,
0,795,903,871,242,381,
0,783,911,857,239,377,
0,771,907,844,237,374,
0,760,883,831,236,370,
0,811,867,819,233,408,
0,851,854,807,231,403,
0,833,839,793,230,398,
0,820,826,782,227,393,
0,807,813,771,226,390,
0,796,883,761,231,386,
0,783,906,751,228,382,
0,772,911,741,227,379,
0,761,908,732,224,376,
0,751,883,722,223,381,
0,856,867,713,221,382,
0,849,853,704,219,378,
0,831,839,694,217,373,
0,819,826,686,216,369,
0,807,813,678,215,367,
0,796,894,798,232,363,
0,783,908,785,231,359,
0,771,911,774,228,356,
0,761,903,762,226,353,
0,751,880,752,224,399,
0,888,864,742,223,393,
0,873,850,732,221,390,
0,855,836,719,219,384,
0,841,824,710,217,381,
0,828,810,701,216,377,
0,816,900,892,224,374,
0,803,909,887,223,369,
0,792,913,871,220,366,
0,780,911,858,219,363,
0,769,888,846,217,416,
0,882,871,831,216,412,
0,867,857,820,214,408,
0,849,843,806,211,402,
0,835,830,795,210,398,
0,823,819,783,241,394,
0,811,903,773,239,390,
0,799,910,763,237,387,
0,787,914,753,234,383,
0,811,910,743,231,379,
0,812,884,734,231,432,
0,883,868,724,228,428,
0,867,854,715,227,423,
0,849,839,704,225,417,
0,835,827,696,223,414,
0,824,848,688,240,409,
0,811,904,679,238,406,
0,799,910,671,236,401,
0,787,907,664,233,398,
0,902,883,655,231,400,
0,897,867,647,230,438,
0,910,852,641,227,433,
0,904,839,634,225,428,
0,883,825,641,224,423,
0,868,812,721,222,419,
0,856,884,711,231,415,
0,841,906,701,230,411,
0,828,911,691,227,406,
0,853,904,683,225,402,
0,903,880,674,224,422,
0,903,865,665,222,417,
0,910,851,657,220,412,
0,895,838,649,218,408,
0,878,824,639,216,403,
0,863,811,632,215,399,
0,850,894,730,238,396,
0,837,908,719,236,391,
0,824,911,710,233,388,
0,812,908,700,231,384,
0,799,884,691,230,399,
0,878,868,681,227,395,
0,863,854,673,225,391,
0,845,839,664,224,387,
0,831,827,654,222,382,
0,819,814,647,226,379,
0,807,899,732,240,375,
0,795,909,721,239,371,
0,783,911,711,237,368,
0,772,895,701,234,365,
0,761,876,692,231,423,
0,848,860,683,231,418,
0,835,846,674,228,414,
0,818,832,665,227,409,
0,806,819,655,225,403,
0,793,807,647,238,399,
0,782,902,691,236,396,
0,770,910,681,233,391,
0,760,911,671,231,388,
0,749,891,664,229,384,
0,750,873,655,227,423,
0,847,859,647,225,419,
0,833,844,639,224,415,
0,817,831,632,222,411,
0,804,817,623,220,406,
0,793,862,772,244,401,
0,781,904,807,241,397,
0,769,911,794,240,393,
0,759,911,783,238,390,
0,748,889,771,235,388,
0,815,872,760,233,415,
0,863,857,750,231,411,
0,847,844,740,230,406,
0,831,830,731,227,401,
0,818,817,719,225,397,
0,807,888,878,236,393,
0,793,907,903,234,389,
0,782,911,888,231,385,
0,771,906,872,230,382,
0,760,882,859,228,408,
0,868,867,846,226,403,
0,852,852,833,224,399,
0,839,838,821,223,395,
0,823,825,809,221,391,
0,809,812,795,219,387,
0,798,896,784,251,383,
0,785,908,774,248,379,
0,775,912,764,246,376,
0,764,908,753,243,371,
0,752,883,743,241,418,
0,872,868,734,240,414,
0,857,854,725,238,409,
0,844,839,716,236,404,
0,827,826,707,233,400,
0,814,813,696,234,396,
0,802,899,688,243,391,
0,790,909,679,241,387,
0,778,912,671,239,384,
0,768,899,664,237,380,
0,756,878,656,235,415,
0,860,862,649,232,411,
0,845,847,641,231,406,
0,831,834,635,230,401,
0,815,822,626,227,398,
0,803,824,620,241,393,
0,791,903,612,239,389,
0,780,910,606,238,385,
0,768,911,600,236,382,
0,758,887,593,233,378,
0,768,871,588,231,414,
0,852,856,582,229,409,
0,838,842,575,227,406,
0,824,828,569,225,401,
0,808,816,563,224,397,
0,796,870,632,240,391,
0,784,905,633,237,388,
0,773,911,624,235,385,
0,762,913,617,233,381,
0,752,898,609,231,380,
0,828,876,602,229,396,
0,854,862,595,227,391,
0,839,847,588,225,388,
0,827,834,581,224,384,
0,811,820,573,222,380,
0,799,889,705,235,376,
0,787,906,697,232,372,
0,775,911,688,231,369,
0,764,911,679,229,366,
0,753,887,670,227,399,
0,871,871,662,224,395,
0,856,856,653,223,391,
0,841,841,646,221,387,
0,828,828,638,219,384,
0,812,816,628,217,380,
0,799,897,769,236,375,
0,787,908,758,233,371,
0,776,912,747,231,368,
0,765,911,736,230,364,
0,755,884,727,227,398,
0,870,867,716,225,393,
0,855,854,707,224,389,
0,840,839,697,222,385,
0,828,826,696,220,382,
0,812,814,896,229,377,
0,799,900,903,240,372,
0,787,910,887,238,369,
0,775,913,872,236,366,
0,765,911,858,234,363,
0,754,883,846,231,391,
0,847,867,833,230,387,
0,831,852,820,227,384,
0,819,839,809,226,380,
0,807,825,798,224,376,
0,792,826,792,247,372,
0,780,903,790,243,368,
0,768,911,780,241,364,
0,758,913,769,240,360,
0,747,904,759,238,358,
0,771,876,749,235,376,
0,865,861,739,233,371,
0,851,847,729,231,368,
0,838,833,721,230,364,
0,824,820,711,227,359,
0,809,874,701,242,356,
0,796,905,692,240,353,
0,784,911,684,238,350,
0,774,912,676,236,348,
0,763,899,668,233,364,
0,826,873,660,231,399,
0,843,859,653,230,395,
0,829,845,646,227,391,
0,816,831,639,226,387,
0,803,818,632,224,384,
0,789,890,739,233,379,
0,777,907,728,231,375,
0,766,911,716,230,371,
0,755,911,707,227,368,
0,744,888,697,225,423,
0,854,867,688,224,419,
0,839,853,679,222,414,
0,825,839,671,220,409,
0,812,825,663,217,406,
0,799,812,655,216,401,
0,785,897,878,240,396,
0,774,908,862,238,392,
0,763,913,847,236,388,
0,752,913,835,233,385,
0,742,896,824,231,403,
0,871,871,810,230,399,
0,856,857,799,227,395,
0,841,844,787,226,391,
0,828,830,776,224,387,
0,816,816,766,238,384,
0,800,900,899,238,379,
0,788,910,900,236,375,
0,777,913,882,235,371,
0,868,911,867,231,368,
0,854,888,855,231,412,
0,905,867,841,228,408,
0,900,852,829,227,403,
0,880,839,817,224,399,
0,866,825,806,223,396,
0,852,812,795,231,391,
0,835,903,900,230,387,
0,823,909,884,227,384,
0,811,903,871,226,380,
0,903,881,856,224,376,
0,908,866,844,222,417,
0,913,847,831,220,412,
0,916,834,819,218,408,
0,912,821,807,216,404,
0,888,807,796,215,399,
0,873,876,785,240,396,
0,856,905,771,238,391,
0,843,911,761,236,387,
0,835,908,752,233,384,
0,906,883,742,231,415,
0,911,868,732,230,428,
0,915,850,723,227,423,
0,916,836,715,225,419,
0,903,823,705,224,414,
0,881,809,696,222,410,
0,864,892,689,238,406,
0,849,907,679,236,401,
0,836,911,671,233,397,
0,824,911,663,231,393,
0,812,891,655,230,421,
0,893,873,647,228,415,
0,878,855,639,225,412,
0,864,841,633,224,408,
0,849,827,627,222,403,
0,836,815,620,220,399,
0,820,898,614,248,396,
0,807,908,605,247,391,
0,796,912,600,244,387,
0,785,911,592,242,384,
0,774,888,587,240,428,
0,860,871,580,239,423,
0,846,854,575,236,419,
0,831,839,569,234,414,
0,819,827,563,231,409,
0,806,814,578,236,406,
0,792,899,834,235,401,
0,780,908,827,232,397,
0,769,911,814,231,393,
0,758,896,802,229,390,
0,748,876,791,227,411,
0,850,861,780,225,406,
0,836,843,768,224,402,
0,823,830,758,222,398,
0,809,816,748,220,393,
0,798,819,739,227,391,
0,783,903,871,225,386,
0,771,910,854,224,382,
0,760,910,840,222,378,
0,827,888,828,220,375,
0,840,871,815,218,412,
0,871,857,803,216,408,
0,856,839,792,215,403,
0,842,825,781,212,399,
0,828,813,770,211,396,
0,816,878,775,230,391,
0,800,905,828,227,387,
0,789,911,812,225,384,
0,777,911,799,224,380,
0,768,891,788,222,412,
0,856,873,777,220,428,
0,850,855,767,218,423,
0,836,841,756,216,419,
0,823,827,746,214,415,
0,809,815,736,212,411,
0,798,893,728,238,406,
0,783,907,718,236,402,
0,771,910,707,233,398,
0,780,899,698,231,393,
0,789,876,689,230,390,
0,880,862,681,228,386,
0,864,844,673,226,383,
0,851,831,665,224,379,
0,837,817,658,223,376,
0,824,804,651,220,372,
0,812,898,643,242,368,
0,796,908,636,240,365,
0,784,911,627,238,361,
0,774,898,620,236,358,
0,762,876,614,233,405,
0,857,862,607,231,400,
0,844,844,600,230,396,
0,830,831,594,227,391,
0,816,817,588,226,388,
0,804,805,582,239,385,
0,792,901,575,236,381,
0,777,910,570,235,377,
0,766,913,563,232,373,
0,835,910,558,231,369,
0,822,886,551,229,423,
0,888,870,547,227,418,
0,871,851,542,225,414,
0,857,838,536,223,409,
0,844,824,531,221,405,
0,831,856,551,234,401,
0,818,903,708,231,397,
0,803,911,696,230,393,
0,791,912,686,227,388,
0,780,901,677,226,385,
0,819,878,668,224,411,
0,865,863,660,223,406,
0,850,845,652,220,401,
0,836,831,643,219,398,
0,824,819,636,216,393,
0,812,881,629,245,390,
0,799,905,621,243,386,
0,783,911,612,240,382,
0,773,911,606,238,377,
0,761,888,599,236,413,
0,865,872,591,235,419,
0,863,857,585,232,415,
0,849,839,579,231,411,
0,835,826,572,228,406,
0,822,813,566,227,402,
0,809,897,671,239,398,
0,797,908,707,237,394,
0,783,913,694,235,390,
0,771,915,685,233,385,
0,760,916,676,231,394,
0,847,903,668,230,390,
0,831,878,659,227,386,
0,819,860,651,225,382,
0,807,846,643,224,379,
0,794,831,636,222,376,
0,783,899,775,240,371,
0,771,908,886,238,368,
0,757,913,867,236,364,
0,820,912,852,234,359,
0,807,894,840,231,403,
0,876,874,827,230,399,
0,860,860,815,228,395,
0,847,843,803,226,391,
0,833,829,792,224,387,
0,819,816,782,248,384,
0,807,903,771,244,380,
0,796,910,760,242,376,
0,781,913,748,240,371,
0,769,910,737,238,368,
0,763,886,728,236,396,
0,867,870,719,235,391,
0,853,855,711,231,387,
0,839,838,702,230,384,
0,825,824,694,228,380,
0,813,842,685,238,376,
0,800,903,731,235,372,
0,789,910,719,233,369,
0,775,911,708,231,366,
0,764,891,699,230,361,
0,812,874,689,227,379,
0,848,859,680,225,376,
0,835,844,671,224,371,
0,822,828,664,222,368,
0,808,815,657,220,364,
0,797,882,668,237,360,
0,784,905,700,235,358,
0,774,910,691,233,355,
0,760,903,679,231,351,
0,749,880,670,229,392,
0,857,864,662,227,396,
0,849,850,653,225,391,
0,836,836,646,224,388,
0,823,819,638,221,384,
0,810,807,632,220,380,
0,799,896,760,240,376,
0,785,908,829,237,372,
0,774,912,816,235,369,
0,760,910,801,233,365,
0,750,886,790,231,404,
0,859,870,778,230,399,
0,844,855,768,227,395,
0,830,841,757,225,391,
0,817,824,747,224,387,
0,806,812,737,222,384,
0,793,899,796,236,380,
0,781,908,860,235,376,
0,769,911,847,232,372,
0,756,907,830,231,368,
0,745,882,818,229,393,
0,849,867,806,227,390,
0,835,852,795,225,385,
0,821,839,783,224,382,
0,808,822,772,221,377,
0,796,809,762,231,374,
0,784,902,886,230,370,
0,772,910,871,227,367,
0,761,911,856,226,364,
0,748,896,839,224,359,
0,739,876,828,223,368,
0,853,861,816,220,365,
0,839,847,803,219,361,
0,825,833,793,217,358,
0,813,817,783,216,355,
0,800,850,774,238,352,
0,788,903,763,235,348,
0,777,911,752,233,345,
0,766,913,743,231,343,
0,752,903,731,229,340,
0,802,879,721,227,393,
0,845,864,712,225,389,
0,831,849,704,224,385,
0,818,835,696,222,382,
0,805,819,687,220,377,
0,793,888,679,241,374,
0,781,907,671,239,370,
0,770,911,664,236,367,
0,760,913,655,235,363,
0,745,899,646,232,385,
0,856,877,639,231,381,
0,841,863,632,228,376,
0,827,847,625,227,373,
0,814,834,618,225,369,
0,801,818,611,223,366,
0,790,896,606,241,363,
0,778,908,599,240,359,
0,767,911,592,237,355,
0,753,911,587,236,352,
0,743,890,579,233,398,
0,859,872,573,231,393,
0,844,859,568,230,389,
0,831,844,561,227,385,
0,817,831,556,226,381,
0,805,815,551,225,377,
0,793,899,713,236,374,
0,781,908,714,233,370,
0,770,912,704,231,367,
0,764,909,695,230,363,
0,753,884,684,228,417,
0,854,868,675,226,412,
0,839,855,665,224,408,
0,826,840,657,223,403,
0,813,827,649,221,399,
0,801,822,668,230,396,
0,789,903,861,227,391,
0,777,910,846,225,388,
0,766,913,833,224,385,
0,752,905,820,222,381,
0,743,881,805,220,406,
0,898,865,793,217,401,
0,885,851,782,216,397,
0,870,837,771,215,393,
0,856,824,761,213,389,
0,842,865,752,217,385,
0,829,905,741,216,382,
0,816,908,732,214,377,
0,804,889,723,212,374,
0,790,872,713,211,371,
0,828,857,703,209,423,
0,903,843,694,207,418,
0,894,830,685,206,414,
0,876,817,677,204,409,
0,863,804,669,204,405,
0,849,889,662,214,401,
0,835,907,765,212,398,
0,823,909,859,211,393,
0,811,893,845,209,390,
0,795,873,831,207,385,
0,875,860,816,206,423,
0,903,846,804,204,418,
0,888,831,792,202,414,
0,872,818,781,200,409,
0,859,803,771,199,406,
0,846,897,760,211,401,
0,831,908,750,209,398,
0,819,911,740,207,393,
0,807,908,731,205,390,
0,792,883,721,204,423,
0,893,867,710,202,435,
0,903,853,702,200,431,
0,884,839,692,199,425,
0,870,826,684,198,422,
0,856,810,676,196,417,
0,843,901,807,217,413,
0,829,909,795,216,409,
0,816,910,783,214,405,
0,804,892,771,212,401,
0,790,873,761,211,451,
0,899,859,747,209,444,
0,899,845,737,207,440,
0,881,831,728,206,435,
0,866,819,718,204,431,
0,852,831,709,204,427,
0,839,903,776,217,422,
0,826,910,765,216,417,
0,814,911,755,214,414,
0,801,891,743,211,409,
0,787,873,734,210,454,
0,898,859,721,208,448,
0,881,844,711,207,443,
0,867,831,703,205,438,
0,853,817,798,204,433,
0,839,880,786,227,428,
0,827,905,775,224,423,
0,814,907,763,222,420,
0,801,889,752,220,415,
0,790,871,742,219,412,
0,825,857,730,216,429,
0,901,843,720,215,423,
0,885,830,711,213,419,
0,870,816,702,211,415,
0,856,803,692,210,411,
0,843,889,700,225,407,
0,830,907,692,222,403,
0,817,911,683,220,399,
0,804,902,675,219,395,
0,792,879,667,216,391,
0,877,864,657,215,448,
0,903,849,649,213,440,
0,886,835,642,211,436,
0,871,823,635,209,432,
0,857,809,627,208,428,
0,844,899,729,222,423,
0,831,908,740,219,419,
0,817,912,729,217,415,
0,806,910,719,216,411,
0,793,886,710,214,436,
0,894,870,698,211,431,
0,902,856,689,210,425,
0,884,841,760,208,421,
0,870,828,851,207,416,
0,856,815,837,205,413,
0,841,902,824,221,408,
0,828,910,812,219,404,
0,816,913,799,217,400,
0,803,907,788,215,396,
0,792,883,778,214,443,
0,898,867,764,211,438,
0,886,852,754,210,432,
0,870,839,743,208,428,
0,856,825,735,207,423,
0,842,812,725,207,419,
0,829,904,716,226,415,
0,816,911,707,224,410,
0,804,913,698,223,406,
0,792,903,689,220,402,
0,781,880,681,219,448,
0,900,864,671,216,442,
0,886,850,664,216,436,
0,870,836,655,214,432,
0,856,824,647,211,428,
0,843,848,745,227,423,
0,830,906,881,224,419,
0,817,911,865,222,415,
0,804,909,852,220,411,
0,792,886,839,218,407,
0,782,870,826,216,450,
0,903,856,812,215,444,
0,888,841,799,212,439,
0,872,828,788,211,434,
0,859,815,777,209,430,
0,846,868,768,224,425,
0,831,907,756,222,422,
0,819,911,747,220,417,
0,807,910,737,217,413,
0,795,887,728,216,409,
0,833,871,719,215,451,
0,898,856,707,212,446,
0,880,842,699,211,440,
0,865,828,690,209,436,
0,851,816,682,207,432,
0,839,892,836,220,427,
0,825,908,839,218,423,
0,813,909,827,216,419,
0,801,889,815,215,414,
0,789,872,803,212,427,
0,872,858,792,211,423,
0,908,844,777,209,416,
0,903,830,767,207,412,
0,883,817,756,206,408,
0,867,804,746,204,404,
0,855,892,736,211,400,
0,841,900,818,209,396,
0,828,881,806,207,393,
0,816,865,793,206,390,
0,803,851,782,204,398,
0,896,836,771,203,393,
0,911,823,758,201,388,
0,910,810,747,199,385,
0,889,798,737,199,382,
0,873,786,728,201,377,
0,860,899,718,214,375,
0,846,909,710,211,371,
0,833,902,700,209,368,
0,820,879,691,207,364,
0,808,864,684,206,393,
0,901,849,675,204,390,
0,911,836,665,203,384,
0,910,823,657,201,380,
0,888,809,650,199,376,
0,873,831,643,227,373,
0,859,903,636,225,369,
0,846,911,734,223,366,
0,831,907,723,220,363,
0,820,883,712,219,359,
0,808,867,703,217,395,
0,904,854,694,215,390,
0,912,839,682,213,385,
0,906,826,673,211,381,
0,883,813,665,209,377,
0,870,845,718,223,374,
0,856,862,803,220,370,
0,842,843,792,218,367,
0,829,830,780,216,363,
0,816,816,768,214,361,
0,854,803,758,212,411,
0,907,791,747,211,406,
0,913,780,735,209,401,
0,906,768,725,207,397,
0,883,757,716,206,393,
0,869,888,892,225,389,
0,855,906,892,223,385,
0,841,907,876,220,382,
0,828,886,862,219,377,
0,816,870,848,217,421,
0,888,856,835,215,416,
0,910,841,824,214,412,
0,910,828,808,211,407,
0,889,815,797,210,402,
0,874,802,787,208,399,
0,860,896,903,217,395,
0,847,908,911,216,391,
0,833,911,914,212,387,
0,820,893,911,211,384,
0,808,875,889,209,410,
0,896,860,873,207,406,
0,907,846,860,206,401,
0,888,831,844,204,396,
0,873,819,831,203,391,
0,860,806,820,206,388,
0,846,902,808,227,384,
0,831,910,798,224,380,
0,819,914,787,222,377,
0,807,912,775,220,374,
0,796,889,766,219,399,
0,899,872,755,216,396,
0,886,857,746,215,391,
0,870,844,734,214,387,
0,856,830,725,211,383,
0,843,862,716,222,380,
0,830,905,824,220,376,
0,817,911,810,219,371,
0,804,915,799,216,368,
0,819,911,787,215,365,
0,807,888,775,212,412,
0,894,871,764,211,407,
0,873,857,754,209,403,
0,859,843,742,207,397,
0,846,830,732,206,393,
0,833,880,886,230,390,
0,819,905,908,227,385,
0,807,911,913,226,382,
0,796,911,915,224,379,
0,783,891,910,222,387,
0,820,873,886,220,423,
0,874,859,871,218,419,
0,856,844,858,216,415,
0,842,831,842,215,409,
0,829,817,830,213,406,
0,816,895,819,231,402,
0,804,908,807,230,398,
0,792,913,796,228,394,
0,849,910,785,225,391,
0,892,886,775,224,435,
0,898,870,764,222,429,
0,910,856,755,220,424,
0,903,841,744,218,420,
0,882,828,732,216,415,
0,867,815,724,215,411,
0,854,899,871,228,407,
0,839,908,856,227,402,
0,827,913,843,225,399,
0,822,913,830,222,395,
0,809,896,819,220,425,
0,892,875,807,219,421,
0,877,860,795,217,417,
0,859,846,783,216,412,
0,845,832,770,214,408,
0,831,819,760,223,403,
0,819,902,749,231,399,
0,807,910,739,230,395,
0,795,914,730,227,391,
0,878,910,720,225,387,
0,862,885,711,224,423,
0,903,868,703,222,418,
0,902,855,695,220,414,
0,879,841,687,219,409,
0,864,827,676,216,404,
0,851,838,722,231,399,
0,836,903,755,228,396,
0,824,911,744,226,391,
0,812,911,734,224,388,
0,889,888,724,222,385,
0,873,871,715,220,406,
0,905,857,705,218,401,
0,896,844,696,216,397,
0,875,830,684,215,393,
0,860,817,676,213,388,
0,847,888,668,227,384,
0,833,906,660,225,381,
0,820,911,652,223,377,
0,808,911,646,221,374,
0,797,891,639,219,380,
0,836,873,632,217,403,
0,881,859,624,216,399,
0,866,844,618,214,395,
0,848,831,609,211,391,
0,835,818,608,211,387,
0,823,894,843,224,383,
0,809,907,828,222,379,
0,798,912,816,220,376,
0,786,911,803,218,371,
0,775,889,792,216,428,
0,871,872,780,215,423,
0,859,857,769,212,419,
0,844,844,760,211,414,
0,828,831,889,209,409,
0,815,817,902,207,404,
0,803,899,884,216,400,
0,791,909,870,215,396,
0,779,913,856,213,392,
0,768,911,844,211,389,
0,758,888,831,209,419,
0,854,871,819,207,415,
0,839,857,807,206,411,
0,825,843,796,204,407,
0,809,830,782,203,403,
0,797,816,772,221,398,
0,785,902,868,227,393,
0,774,910,854,225,390,
0,763,913,841,223,386,
0,752,905,828,221,383,
0,742,880,816,219,433,
0,844,865,804,217,428,
0,830,851,792,216,423,
0,817,837,782,214,419,
0,801,824,768,212,415,
0,789,830,811,224,409,
0,777,903,903,221,406,
0,766,910,911,220,401,
0,755,912,907,217,398,
0,744,896,885,216,393,
0,735,876,871,214,440,
0,844,861,857,211,435,
0,830,847,844,210,432,
0,817,833,831,208,427,
0,801,820,891,207,423,
0,790,888,908,224,417,
0,777,907,909,222,412,
0,766,911,891,220,408,
0,755,912,875,218,404,
0,744,887,862,216,403,
0,798,871,848,215,415,
0,844,856,836,212,411,
0,831,843,824,211,406,
0,817,828,812,209,402,
0,802,816,798,207,398,
0,790,896,796,222,393,
0,778,908,784,220,390,
0,768,912,774,219,387,
0,756,914,764,216,383,
0,745,895,754,215,412,
0,854,875,743,212,407,
0,854,860,735,211,401,
0,839,846,725,209,398,
0,826,832,716,207,393,
0,810,819,705,206,390,
0,798,899,697,226,385,
0,786,909,689,224,382,
0,775,913,681,223,378,
0,764,912,673,220,375,
0,753,886,665,219,399,
0,868,869,658,216,395,
0,853,855,651,215,391,
0,839,841,643,213,387,
0,825,828,636,211,384,
0,810,815,627,220,379,
0,798,902,621,219,375,
0,786,910,614,217,371,
0,775,911,608,216,368,
0,764,900,601,214,364,
0,752,875,595,211,412,
0,880,860,588,209,408,
0,865,845,583,207,403,
0,851,831,577,206,399,
0,837,819,572,204,396,
0,821,843,564,223,391,
0,807,904,559,221,387,
0,796,911,553,219,384,
0,784,910,547,217,380,
0,819,888,543,216,376,
0,806,867,537,214,419,
0,885,853,532,211,414,
0,870,839,527,210,410,
0,855,825,522,207,406,
0,841,812,518,207,402,
0,825,888,511,226,396,
0,812,907,507,224,393,
0,799,911,503,222,389,
0,788,908,498,220,385,
0,777,884,494,218,407,
0,829,865,489,216,427,
0,857,851,485,215,422,
0,844,837,480,212,417,
0,830,824,476,211,414,
0,817,811,472,209,409,
0,802,896,601,216,403,
0,790,908,593,214,399,
0,778,911,585,212,396,
0,768,911,579,210,391,
0,756,888,572,208,436,
0,861,868,565,207,431,
0,846,854,559,205,425,
0,831,839,552,203,422,
0,819,826,546,201,417,
0,803,814,540,200,413,
0,792,900,533,224,408,
0,779,909,527,221,403,
0,768,913,521,220,399,
0,758,908,516,217,396,
0,747,883,511,216,423,
0,861,864,505,214,418,
0,846,850,500,211,414,
0,831,836,496,210,409,
0,819,823,491,208,406,
0,803,811,486,218,401,
0,792,903,480,217,396,
0,780,910,476,216,391,
0,768,913,472,214,389,
0,758,905,467,212,385,
0,747,881,463,211,400,
0,820,862,459,208,396,
0,807,847,455,207,391,
0,795,834,451,205,388,
0,782,821,448,204,384,
0,768,861,444,230,381,
0,757,904,531,227,376,
0,746,911,525,225,374,
0,736,911,519,223,369,
0,727,892,513,221,366,
0,723,874,508,220,420,
0,829,856,502,216,415,
0,815,841,497,216,412,
0,803,828,492,214,408,
0,791,816,647,211,403,
0,775,888,639,225,399,
0,764,907,630,224,394,
0,753,911,622,221,390,
0,743,906,615,220,387,
0,732,882,607,217,403,
0,801,867,600,216,399,
0,841,848,592,214,396,
0,827,835,585,212,391,
0,814,822,579,210,387,
0,801,808,573,209,384,
0,787,896,632,224,380,
0,775,908,620,223,376,
0,764,912,613,221,372,
0,753,911,606,219,368,
0,743,890,598,217,366,
0,843,870,591,216,363,
0,828,855,583,213,359,
0,815,841,577,211,356,
0,802,827,571,209,353,
0,790,815,565,207,350,
0,775,900,559,221,348,
0,764,909,551,220,344,
0,753,911,545,217,340,
0,743,900,540,216,337,
0,733,878,535,214,380,
0,864,859,527,212,376,
0,849,845,523,210,372,
0,835,831,518,208,368,
0,823,819,512,207,365,
0,810,816,555,229,361,
0,795,903,742,227,359,
0,783,910,728,224,354,
0,771,909,717,223,351,
0,760,888,707,221,348,
0,751,871,698,219,389,
0,862,854,689,217,385,
0,847,839,679,215,381,
0,833,827,671,213,377,
0,820,814,664,211,374,
0,807,865,670,221,370,
0,792,904,847,219,366,
0,781,911,830,217,361,
0,770,911,817,216,359,
0,760,896,805,214,355,
0,764,876,793,211,390,
0,847,857,782,210,385,
0,833,843,771,207,382,
0,820,830,761,206,377,
0,807,816,751,204,374,
0,796,888,814,214,370,
0,781,907,839,211,367,
0,769,911,826,209,363,
0,759,905,814,207,359,
0,748,881,802,206,357,
0,816,866,791,205,353,
0,840,847,779,203,351,
0,825,834,768,201,348,
0,813,821,758,199,344,
0,800,808,748,199,341,
0,789,896,844,220,338,
0,774,908,856,217,335,
0,763,912,843,216,332,
0,752,913,831,214,329,
0,742,894,818,212,380,
0,862,875,806,211,376,
0,846,856,795,209,371,
0,831,842,783,207,368,
0,819,829,772,205,364,
0,807,816,762,204,360,
0,795,900,829,209,358,
0,780,910,813,207,354,
0,768,913,801,205,350,
0,758,909,789,204,347,
0,747,884,779,202,352,
0,873,868,768,199,348,
0,858,851,756,199,344,
0,844,837,747,197,341,
0,830,824,737,195,338,
0,817,827,742,217,335,
0,806,903,899,216,332,
0,790,910,894,213,329,
0,779,913,878,211,326,
0,768,908,864,209,323,
0,757,884,851,207,369,
0,864,867,838,206,366,
0,850,850,825,204,361,
0,836,836,814,203,358,
0,823,823,801,201,355,
0,810,873,792,222,352,
0,798,905,781,220,348,
0,783,911,768,217,344,
0,772,911,758,216,341,
0,761,890,748,214,337,
0,775,873,738,212,388,
0,855,859,728,211,384,
0,839,841,719,208,380,
0,827,827,711,207,376,
0,814,814,702,205,373,
0,802,889,694,222,369,
0,790,907,686,220,366,
0,775,911,675,219,362,
0,764,908,668,216,358,
0,753,883,660,215,398,
0,828,868,652,213,404,
0,836,854,646,211,399,
0,822,836,638,209,396,
0,809,823,632,207,391,
0,797,810,624,206,388,
0,785,897,780,216,384,
0,774,908,767,215,380,
0,760,913,753,212,376,
0,749,913,743,211,372,
0,739,896,732,209,402,
0,856,876,722,207,397,
0,840,861,712,206,393,
0,827,844,704,204,389,
0,814,830,695,202,385,
0,801,817,686,204,382,
0,790,900,861,224,377,
0,777,908,880,222,374,
0,764,908,862,220,369,
0,753,888,848,217,366,
0,743,871,836,216,398,
0,838,856,823,215,393,
0,824,843,811,213,390,
0,810,825,799,211,386,
0,798,812,896,209,382,
0,785,822,910,231,379,
0,775,903,911,230,375,
0,763,910,894,227,371,
0,750,908,874,225,367,
0,739,888,861,224,364,
0,729,871,847,222,412,
0,829,856,835,220,407,
0,816,843,823,219,403,
0,803,825,811,216,399,
0,791,812,799,214,394,
0,779,873,790,230,391,
0,768,905,779,227,387,
0,756,911,768,225,383,
0,743,911,755,223,378,
0,733,892,745,222,375,
0,753,874,736,220,419,
0,838,860,727,217,415,
0,824,846,718,216,411,
0,811,828,709,214,407,
0,798,815,700,212,403,
0,786,892,723,231,399,
0,775,907,711,230,395,
0,763,911,703,227,391,
0,750,911,691,226,386,
0,739,889,683,224,420,
0,823,872,675,222,419,
0,823,857,667,220,415,
0,809,844,659,219,411,
0,797,827,652,216,407,
0,784,814,644,215,403,
0,774,897,839,221,399,
0,761,908,866,219,395,
0,751,911,852,217,391,
0,738,905,835,216,386,
0,728,881,824,214,435,
0,834,866,811,211,430,
0,820,851,799,211,425,
0,807,838,788,209,420,
0,795,822,777,207,416,
0,783,808,768,211,412,
0,771,900,756,235,408,
0,760,909,747,231,403,
0,747,911,736,231,399,
0,850,903,725,228,396,
0,835,879,716,227,411,
0,849,864,707,224,407,
0,835,849,698,223,402,
0,822,836,690,221,398,
0,808,819,681,219,394,
0,796,849,673,227,391,
0,784,903,665,225,387,
0,773,911,658,224,384,
0,760,914,651,222,380,
0,748,915,641,220,376,
0,738,899,635,218,406,
0,825,876,627,216,401,
0,812,862,620,215,396,
0,799,847,614,212,393,
0,787,830,608,211,389,
0,775,879,622,231,385,
0,764,905,715,228,382,
0,753,911,704,226,377,
0,740,913,695,224,375,
0,730,899,683,223,370,
0,753,877,674,220,399,
0,799,862,665,219,396,
0,787,847,657,217,391,
0,775,834,649,216,387,
0,764,817,641,213,384,
0,753,893,792,222,380,
0,742,907,849,220,376,
0,731,911,835,217,373,
0,735,913,823,216,369,
0,755,896,807,214,421,
0,813,876,796,212,415,
0,799,860,784,211,410,
0,787,847,774,209,406,
0,775,832,763,207,401,
0,763,816,752,205,398,
0,752,898,743,224,394,
0,742,908,733,223,391,
0,731,912,723,220,387,
0,827,910,715,219,383,
0,824,886,704,217,419,
0,856,870,695,215,414,
0,841,856,686,213,409,
0,828,841,678,211,405,
0,815,824,670,209,400,
0,803,812,662,217,398,
0,792,901,881,229,393,
0,779,910,888,227,389,
0,768,912,872,225,385,
0,816,903,859,224,382,
0,803,880,843,222,414,
0,866,864,829,220,408,
0,851,850,817,217,404,
0,838,836,806,216,400,
0,825,819,900,215,396,
0,812,839,899,233,392,
0,799,903,880,231,388,
0,787,911,866,228,385,
0,775,913,853,227,381,
0,793,901,839,224,377,
0,781,878,824,223,424,
0,833,863,812,221,420,
0,820,849,801,219,415,
0,807,835,790,217,412,
0,795,819,779,216,408,
0,783,880,894,216,403,
0,771,905,908,214,399,
0,760,911,911,212,395,
0,750,913,899,211,391,
0,737,905,879,208,387,
0,771,880,862,207,403,
0,812,865,849,205,399,
0,799,851,836,204,396,
0,787,837,824,202,391,
0,775,820,813,200,387,
0,764,894,896,220,384,
0,752,907,908,219,380,
0,742,912,914,216,376,
0,732,913,918,215,373,
0,764,896,916,213,369,
0,811,876,896,211,408,
0,797,861,878,209,404,
0,785,847,864,207,399,
0,773,833,852,206,396,
0,762,817,839,204,391,
0,752,898,828,236,388,
0,740,908,816,234,384,
0,730,912,804,231,381,
0,719,909,793,231,377,
0,708,884,780,228,398,
0,799,868,770,227,406,
0,785,854,760,224,401,
0,774,840,750,223,398,
0,762,827,740,221,393,
0,751,811,771,220,390,
0,740,901,902,231,385,
0,729,910,911,230,382,
0,719,911,911,228,379,
0,710,904,893,226,375,
0,699,880,873,224,438,
0,783,865,859,222,431,
0,771,851,847,220,425,
0,760,836,834,219,422,
0,748,824,822,217,417,
0,737,835,811,216,413,
0,728,903,799,231,408,
0,717,911,788,230,404,
0,707,913,777,228,401,
0,698,905,768,226,397,
0,688,881,755,224,442,
0,781,865,745,223,435,
0,769,851,736,220,431,
0,758,837,727,219,427,
0,747,824,718,217,422,
0,736,886,708,227,417,
0,726,906,700,225,414,
0,715,911,691,224,409,
0,705,911,684,222,406,
0,696,895,675,220,401,
0,736,875,665,218,399,
0,782,860,658,216,395,
0,770,846,651,215,391,
0,759,831,643,213,387,
0,748,819,636,211,384,
0,737,894,630,236,380,
0,727,908,623,235,377,
0,716,912,615,231,374,
0,707,911,610,231,370,
0,697,892,604,228,367,
0,801,873,595,227,384,
0,831,859,590,225,380,
0,819,845,583,223,376,
0,807,831,577,221,371,
0,794,818,572,220,368,
0,783,897,566,225,364,
0,771,908,560,224,361,
0,760,911,555,222,359,
0,749,897,550,220,355,
0,739,876,544,218,407,
0,883,862,537,216,409,
0,878,847,533,215,404,
0,863,834,527,213,400,
0,848,820,523,211,396,
0,835,807,519,209,392,
0,823,902,513,227,388,
0,810,910,508,224,385,
0,798,911,504,223,381,
0,786,894,499,221,377,
0,775,875,496,219,403,
0,899,860,489,217,396,
0,892,846,486,216,392,
0,876,831,481,214,388,
0,861,819,477,212,384,
0,847,807,472,211,382,
0,834,903,595,213,377,
0,822,909,588,211,374,
0,808,900,580,209,370,
0,797,878,574,207,367,
0,785,864,568,206,408,
0,904,849,559,204,401,
0,909,835,552,203,398,
0,894,822,547,201,393,
0,877,808,540,199,390,
0,863,797,587,214,386,
0,849,903,747,211,382,
0,835,892,736,209,378,
0,824,873,726,207,375,
0,811,859,716,205,371,
0,799,844,706,204,409,
0,903,831,694,202,403,
0,888,817,685,200,399,
0,871,805,676,199,395,
0,857,792,668,198,391,
0,845,846,660,231,387,
0,831,906,652,230,384,
0,819,908,644,227,380,
0,807,891,637,225,376,
0,802,873,630,224,384,
0,814,858,623,222,423,
0,819,844,614,220,418,
0,806,831,607,218,414,
0,793,817,600,216,409,
0,782,804,593,215,406,
