=~=~=~=~=~=~=~=~=~=~=~= PuTTY log 2021.04.22 11:07:19 =~=~=~=~=~=~=~=~=~=~=~=
,206,464,323,
0,399,465,204,460,319,
0,395,460,203,470,318,
00,307,
0,401,414,159,455,304,
0,398,409,158,450,302,
0,393,472,156,491,299,
0,404,466,155,485,295,
0,400,460,177,480,293,
0,396,455,174,473,291,
0,392,450,176,468,326,
0,389,445,174,463,323,
0,385,440,172,45ibj
0,381,435,171,455,316,
0,377,432,169,450,312,
0,3StartUp!
126,399,499,135,460,254,
0,396,496,135,455,252,
0,393,492,135,453,251,
0,391,518,134,497,249,
0,417,529,133,493,248,
0,414,524,132,488,246,
0,409,519,131,485,244,
0,408,515,131,483,243,
0,403,510,130,477,241,
0,401,506,129,473,252,
0,398,500,128,468,249,
0,394,495,127,463,248,
0,390,489,126,459,245,
0,386,484,126,455,243,
0,382,480,124,449,241,
0,392,499,124,495,239,
0,404,494,123,488,237,
0,400,487,130,483,235,
0,396,481,129,478,233,
0,392,476,127,472,255,
0,389,472,127,467,254,
0,385,467,126,462,252,
0,381,462,124,457,249,
0,377,457,124,453,247,
0,375,453,123,486,244,
0,423,523,121,496,243,
0,420,516,121,491,240,
0,417,508,140,484,249,
0,412,503,140,480,248,
0,408,497,138,474,262,
0,404,494,137,472,260,
0,402,488,136,467,258,
0,397,483,135,462,255,
0,393,478,134,457,253,
0,390,476,133,515,251,
0,468,537,132,508,248,
0,462,531,131,503,247,
0,457,523,159,496,244,
0,452,518,158,491,243,
0,448,511,157,486,275,
0,444,505,156,480,273,
0,440,500,155,476,270,
0,433,495,153,471,268,
0,429,489,152,465,265,
0,425,550,151,524,263,
0,453,594,150,518,260,
0,448,586,148,511,275,
0,444,577,167,504,271,
1,439,570,164,499,302,
1,435,563,163,494,298,
1,430,557,162,488,295,
2,425,551,160,483,292,
2,420,543,159,479,289,
2,417,538,158,473,287,
2,413,532,156,534,284,
3,464,527,156,527,281,
3,460,521,217,521,280,
3,454,513,236,514,276,
3,449,508,235,508,307,
3,445,504,231,504,304,
3,440,497,231,498,300,
3,436,493,228,492,297,
3,431,487,226,487,295,
3,427,483,224,483,291,
4,438,552,222,531,289,
4,467,545,220,525,287,
4,463,539,219,519,284,
3,457,531,217,512,281,
3,453,525,216,507,302,
4,448,519,214,502,299,
3,444,513,212,496,295,
3,440,508,210,491,294,
3,434,502,208,486,290,
3,430,497,207,519,287,
4,435,577,205,527,285,
4,435,569,204,520,283,
3,431,563,202,515,280,
3,427,554,200,508,278,
4,423,547,199,503,292,
3,419,541,198,497,290,
3,415,535,196,492,287,
3,409,528,195,487,285,
3,406,523,193,483,281,
3,402,518,192,542,280,
3,465,518,190,535,276,
3,459,512,188,527,275,
3,455,507,199,523,271,
3,449,500,198,515,271,
3,445,495,196,510,304,
3,440,489,194,504,301,
3,436,484,192,499,298,
3,431,480,191,494,295,
3,427,475,189,489,292,
3,423,514,188,531,289,
3,455,524,187,524,287,
3,451,517,185,519,284,
3,447,512,192,513,282,
3,442,504,190,507,324,
3,438,499,188,500,326,
3,433,493,187,496,322,
3,429,487,185,491,319,
3,423,483,184,486,316,
3,420,478,182,481,313,
3,415,527,181,531,310,
3,463,519,179,525,307,
3,457,513,179,519,304,
3,452,508,185,513,302,
3,448,500,184,507,323,
3,443,495,183,501,319,
3,439,489,181,496,316,
3,434,484,179,491,313,
3,429,480,179,486,311,
3,424,474,176,481,307,
3,448,592,176,528,304,
3,460,583,174,522,302,
3,455,576,192,516,299,
3,451,569,190,511,295,
3,446,561,188,504,323,
3,441,555,187,499,319,
3,436,548,185,494,316,
3,432,542,184,487,313,
3,428,536,182,483,311,
3,423,530,180,521,307,
3,451,567,179,536,304,
3,449,560,177,529,302,
3,444,552,179,524,299,
3,440,544,177,518,295,
3,435,538,176,511,294,
3,431,532,174,505,291,
3,427,526,172,500,289,
3,423,519,172,496,287,
3,417,515,171,490,284,
3,414,510,168,532,281,
3,437,519,167,526,279,
3,432,513,167,519,276,
3,428,507,166,515,287,
3,423,500,164,509,284,
3,419,496,169,502,302,
3,415,491,167,497,299,
3,411,485,167,492,295,
2,408,480,166,487,293,
3,403,476,164,481,290,
2,399,472,163,532,287,
2,455,467,161,525,284,
2,449,463,160,519,283,
2,444,458,176,513,280,
2,440,452,175,508,304,
2,435,448,174,502,300,
2,431,444,172,496,297,
2,427,440,171,492,295,
1,423,435,169,486,292,
2,417,432,167,481,289,
1,414,517,167,531,287,
2,435,510,165,525,284,
1,431,504,164,519,281,
1,425,497,177,513,279,
1,422,491,176,508,305,
1,417,486,174,500,302,
1,414,480,172,496,300,
2,409,475,171,491,296,
1,406,470,169,486,294,
1,401,465,167,481,291,
1,423,473,167,527,287,
1,444,467,166,521,286,
1,440,463,204,515,310,
1,435,457,201,510,307,
1,431,451,199,504,304,
1,427,448,198,497,301,
1,423,443,196,492,299,
1,418,439,195,487,295,
1,414,434,193,483,292,
1,409,430,191,512,291,
1,431,487,190,516,287,
1,429,481,188,511,284,
1,425,476,188,505,282,
1,420,471,186,499,280,
1,417,463,187,494,301,
1,412,459,185,487,297,
0,408,454,184,483,295,
1,404,449,182,478,292,
0,400,444,181,473,289,
0,396,442,179,518,287,
0,460,571,177,511,284,
0,454,563,176,505,281,
0,449,556,176,500,280,
0,444,550,175,495,277,
0,440,541,174,489,302,
0,435,536,172,483,298,
0,431,529,171,478,295,
0,427,523,169,473,293,
0,423,518,168,468,290,
0,418,551,167,519,287,
0,428,544,166,513,284,
0,423,537,164,507,282,
0,419,531,206,502,280,
0,415,526,204,496,277,
0,411,518,202,489,275,
0,408,512,200,484,272,
0,403,507,199,480,270,
0,399,502,198,475,268,
0,396,496,195,470,266,
0,391,570,194,524,263,
0,432,562,192,518,262,
0,427,556,191,512,276,
0,423,548,189,505,274,
0,419,542,188,500,271,
0,414,534,187,494,269,
0,410,528,185,488,267,
0,406,523,184,483,264,
0,402,516,182,479,263,
0,399,511,180,473,260,
0,397,505,179,518,258,
0,429,500,177,512,255,
0,423,495,176,507,253,
0,419,489,175,501,252,
0,415,484,174,496,289,
0,412,479,172,489,286,
0,408,473,172,484,283,
0,403,469,170,480,280,
0,399,463,169,474,278,
0,396,460,167,504,275,
0,449,458,166,519,273,
0,456,454,164,512,270,
0,452,449,168,507,268,
0,448,444,167,502,265,
0,443,440,166,496,287,
0,438,435,164,489,285,
0,433,431,163,484,283,
0,430,427,162,480,280,
0,425,423,161,475,278,
0,422,451,159,515,275,
0,441,512,159,509,271,
0,436,505,157,503,270,
0,432,499,157,497,267,
0,428,494,156,492,264,
0,423,488,155,487,295,
0,419,482,154,481,292,
0,415,477,153,476,289,
0,412,472,152,472,287,
0,408,467,151,466,284,
0,404,504,150,520,281,
0,418,502,148,514,279,
0,414,496,147,508,276,
0,409,489,159,503,274,
0,406,484,159,497,287,
0,401,479,158,492,284,
0,398,472,156,486,281,
0,393,467,155,480,279,
0,391,463,154,476,276,
0,387,457,152,471,274,
0,384,524,152,518,271,
0,423,516,150,512,268,
0,419,510,149,506,267,
0,415,504,152,500,263,
0,412,498,151,496,304,
0,408,493,149,490,300,
0,403,487,148,483,297,
0,399,481,147,479,295,
0,396,476,146,473,291,
0,391,471,145,470,289,
0,388,467,143,515,287,
0,419,462,143,510,284,
0,415,457,167,504,281,
0,411,452,166,498,279,
0,407,448,165,493,296,
0,403,444,163,487,294,
0,399,439,162,481,291,
0,395,434,161,476,288,
0,391,430,159,472,286,
0,387,425,158,503,284,
0,390,440,157,508,280,
0,399,434,156,502,278,
0,395,430,196,496,275,
0,391,425,194,491,273,
0,387,422,192,487,307,
0,384,417,191,481,305,
0,380,412,189,475,302,
0,377,409,188,471,299,
0,374,406,186,465,295,
0,371,402,184,513,294,
0,441,401,183,507,291,
0,436,398,181,502,287,
0,432,394,179,496,285,
0,427,391,179,491,283,
0,423,387,177,486,307,
0,419,384,176,480,304,
0,415,380,174,473,301,
0,411,377,173,469,298,
0,407,374,172,464,295,
0,403,427,171,493,293,
0,424,448,169,487,291,
0,420,443,167,481,287,
0,415,438,167,476,285,
0,412,433,166,472,282,
0,408,428,164,467,280,
0,403,423,163,462,278,
0,399,419,161,455,275,
0,396,415,160,451,272,
0,391,410,159,448,271,
0,389,480,159,503,268,
0,455,472,157,496,266,
0,451,467,156,491,263,
0,446,462,156,486,261,
0,441,457,155,480,278,
0,436,452,153,476,275,
0,432,448,152,471,271,
0,428,441,151,464,270,
0,423,436,150,460,267,
0,419,432,148,455,264,
0,415,428,147,502,263,
0,417,423,156,496,260,
0,414,420,157,491,257,
0,409,415,156,485,255,
0,406,412,174,480,254,
0,401,408,172,475,252,
0,398,404,170,470,249,
0,395,399,168,463,248,
0,391,396,167,459,246,
0,387,391,166,492,244,
0,399,463,164,499,242,
0,435,456,163,493,240,
0,431,451,161,487,238,
0,426,447,160,482,236,
0,423,442,159,477,252,
0,418,437,158,472,249,
0,414,432,157,467,248,
0,409,427,156,462,245,
0,406,423,155,457,243,
0,402,426,153,498,241,
0,441,487,152,492,239,
0,442,480,151,487,237,
0,438,475,169,481,235,
0,433,470,167,476,233,
0,429,465,167,472,264,
0,424,460,166,466,262,
0,420,454,164,462,259,
0,416,449,163,455,257,
0,412,444,161,451,255,
0,408,489,160,492,253,
0,413,499,159,487,251,
0,408,494,158,481,248,
0,403,487,156,476,246,
0,399,482,155,472,279,
0,396,477,154,466,275,
0,392,472,152,461,272,
0,389,465,152,456,270,
0,385,461,151,451,268,
0,382,455,150,447,265,
0,380,519,148,486,263,
0,444,511,147,480,260,
0,438,505,147,475,259,
0,433,499,151,470,255,
0,428,494,150,465,294,
0,423,487,148,460,291,
0,420,483,147,455,287,
0,415,476,146,451,286,
0,412,472,145,446,283,
0,408,466,143,441,280,
0,404,545,143,476,278,
0,432,537,142,471,275,
0,427,531,169,465,310,
0,422,525,167,460,305,
0,417,519,166,455,332,
0,414,513,164,451,328,
0,409,508,163,447,325,
0,406,500,161,442,322,
0,401,496,160,436,319,
0,398,490,159,466,316,
0,395,593,158,473,313,
0,427,584,156,467,311,
0,421,577,155,463,307,
0,416,570,153,457,304,
0,412,563,152,454,302,
0,408,557,152,448,299,
0,404,551,151,444,295,
0,400,543,150,440,294,
0,396,536,148,435,291,
0,393,613,147,482,289,
0,396,671,146,476,287,
0,408,663,144,471,284,
0,403,654,156,465,282,
0,399,645,155,460,280,
0,395,637,154,455,293,
0,391,628,153,451,290,
0,387,621,152,447,287,
0,384,612,150,443,285,
0,380,605,149,437,283,
0,377,694,148,487,280,
0,441,693,147,480,278,
0,435,683,145,476,275,
0,430,674,159,470,273,
0,425,665,159,465,305,
0,421,656,158,460,302,
0,417,647,156,455,299,
0,413,639,155,451,295,
0,409,631,153,446,293,
0,405,623,152,441,291,
0,401,716,152,487,288,
0,427,705,150,481,286,
0,422,696,149,476,284,
0,417,686,167,471,280,
0,412,676,167,467,330,
0,408,668,166,461,326,
0,404,659,164,456,323,
0,400,651,163,451,319,
0,397,641,162,446,317,
0,393,633,160,441,315,
0,391,711,159,491,312,
0,435,701,158,486,308,
0,431,691,157,480,306,
0,425,681,163,475,303,
0,420,672,163,470,327,
0,416,664,161,465,324,
0,412,655,159,460,322,
0,408,647,159,455,319,
0,404,638,157,449,316,
0,400,630,156,479,313,
0,399,673,155,496,311,
0,417,664,153,489,307,
0,413,655,165,484,305,
0,408,646,163,480,302,
0,403,638,162,474,324,
0,399,630,160,469,321,
0,396,622,159,464,318,
0,391,615,158,460,315,
0,388,606,156,454,312,
0,385,600,156,494,310,
0,415,615,154,487,307,
0,417,608,153,483,304,
0,413,600,167,478,302,
0,408,593,164,472,298,
0,403,587,166,467,312,
0,399,580,164,463,308,
0,396,574,163,457,305,
0,391,568,161,454,303,
0,388,560,160,448,300,
0,385,596,159,494,297,
0,443,593,158,487,295,
0,437,585,156,483,292,
0,432,579,164,478,290,
0,427,572,163,472,331,
0,423,564,161,467,332,
0,419,558,159,463,329,
0,415,551,159,457,326,
0,411,546,157,454,323,
0,407,539,156,448,319,
0,403,547,155,499,318,
0,429,540,153,494,315,
0,423,533,152,487,312,
0,419,527,156,483,309,
0,415,523,154,478,328,
0,411,517,153,472,326,
0,407,512,152,467,322,
0,403,507,151,463,319,
0,399,502,150,458,316,
0,395,496,148,452,313,
0,391,552,147,500,311,
0,422,545,146,495,307,
0,417,539,145,489,305,
0,412,532,147,484,302,
0,408,526,159,480,327,
0,403,519,158,473,324,
0,399,514,157,470,321,
0,396,508,156,464,318,
0,391,504,154,460,315,
0,388,496,153,488,312,
0,396,553,152,504,310,
0,452,546,151,499,307,
0,448,540,161,493,304,
0,443,532,159,487,301,
0,437,527,159,483,331,
0,432,520,158,478,327,
0,428,515,156,472,324,
0,423,509,155,467,321,
0,419,504,154,463,319,
0,415,497,152,508,316,
0,414,540,152,502,313,
0,423,534,150,496,310,
0,419,527,171,491,307,
0,414,520,169,485,304,
0,410,515,195,480,316,
0,406,509,192,475,312,
0,402,504,191,470,310,
0,399,497,189,465,307,
0,395,492,188,460,304,
0,391,508,186,498,302,
0,432,501,185,492,299,
0,427,496,184,487,295,
0,423,489,182,481,294,
0,417,484,180,476,291,
0,413,480,178,472,313,
0,408,476,177,466,310,
0,404,472,176,462,307,
0,401,467,175,456,304,
0,397,462,173,452,302,
0,393,521,172,492,299,
0,435,515,171,487,295,
0,430,508,169,481,294,
0,425,503,172,476,291,
0,420,497,171,472,288,
0,415,492,168,466,286,
0,412,486,167,462,284,
0,408,481,166,456,281,
0,403,476,164,452,279,
0,399,471,163,448,276,
0,396,518,163,497,274,
0,420,511,161,492,271,
0,416,504,159,487,270,
0,412,499,159,481,268,
0,408,493,162,476,265,
0,403,487,191,472,263,
0,399,483,189,466,261,
0,396,477,188,462,259,
0,391,472,186,456,257,
0,388,467,184,452,255,
0,400,510,183,497,253,
0,444,504,182,492,251,
0,439,497,192,487,249,
0,434,492,189,481,248,
0,428,487,188,476,281,
0,423,481,185,472,279,
0,420,476,184,466,275,
0,415,471,183,462,273,
0,412,465,181,457,271,
0,408,467,179,472,269,
0,417,531,178,492,267,
0,431,524,177,487,263,
0,427,518,176,481,262,
0,422,512,174,476,259,
0,417,506,174,472,281,
0,413,500,172,467,278,
0,408,495,171,462,275,
0,404,489,170,457,273,
0,401,484,168,452,270,
0,398,519,167,496,268,
0,428,527,166,488,265,
0,423,519,165,483,263,
0,419,513,166,479,262,
0,415,508,164,473,259,
0,409,502,163,468,273,
0,406,496,161,463,270,
0,402,491,159,459,268,
0,398,486,159,454,265,
0,395,481,158,449,263,
0,391,566,156,500,260,
0,414,558,156,494,259,
0,409,551,155,487,255,
0,406,543,153,483,254,
0,401,537,152,478,280,
0,396,531,160,472,287,
0,391,525,159,467,283,
0,389,519,157,463,280,
0,385,513,156,458,278,
0,382,508,155,454,275,
0,379,598,153,500,273,
0,416,589,152,492,271,
0,412,582,157,487,268,
0,408,575,186,482,265,
0,403,568,184,477,281,
0,399,561,182,472,279,
0,396,555,180,467,275,
0,391,548,179,463,273,
0,387,542,178,457,271,
0,384,536,176,454,269,
0,399,614,175,502,266,
0,415,605,174,494,263,
0,411,598,188,489,262,
0,406,590,185,483,259,
0,403,583,184,479,293,
0,398,575,182,473,290,
0,393,569,180,468,287,
0,390,562,179,463,284,
0,386,556,178,459,281,
0,383,550,176,477,280,
0,399,560,175,499,276,
0,401,553,174,492,274,
0,397,547,172,487,300,
0,393,540,171,481,296,
0,390,535,170,476,323,
0,384,529,167,472,319,
0,381,523,167,467,316,
0,377,518,166,462,313,
0,374,512,164,457,311,
0,371,507,163,507,308,
0,428,573,162,500,305,
0,423,566,160,494,303,
0,417,559,178,487,300,
0,414,551,177,483,297,
0,409,545,177,478,340,
0,404,540,175,472,336,
0,400,534,173,467,332,
0,396,527,172,463,329,
0,393,521,171,458,327,
0,390,556,169,504,323,
0,419,604,167,496,320,
0,414,595,167,490,318,
0,409,588,168,484,315,
0,406,581,167,480,332,
0,401,574,167,475,331,
0,397,568,167,470,327,
0,393,560,166,465,323,
0,390,554,163,460,320,
0,385,547,163,455,318,
0,383,542,161,508,315,
0,418,535,159,500,312,
0,414,529,159,496,321,
0,409,523,159,490,318,
0,405,518,159,485,315,
0,401,512,157,480,312,
0,396,507,156,475,309,
0,391,501,155,470,306,
0,388,496,153,465,304,
0,385,491,152,460,301,
0,399,542,152,500,298,
0,419,533,150,494,295,
0,414,527,154,487,293,
0,409,520,152,483,291,
0,406,515,152,478,309,
0,401,509,150,473,305,
0,397,504,148,468,302,
0,393,497,147,463,300,
0,390,492,147,459,296,
0,385,487,145,475,294,
0,399,504,144,503,291,
0,415,496,143,495,289,
0,412,492,158,489,287,
0,408,486,157,484,284,
0,403,481,161,480,291,
0,399,476,159,475,287,
0,394,472,158,470,285,
0,391,467,157,464,283,
0,387,462,156,460,280,
0,384,487,155,499,278,
0,428,580,153,492,275,
0,423,571,152,486,273,
0,419,564,152,480,271,
0,415,557,152,476,270,
0,410,551,151,471,280,
0,406,543,149,465,278,
0,401,538,147,460,275,
0,398,531,146,455,272,
0,393,526,145,451,270,
0,391,542,143,504,268,
0,431,551,143,497,265,
0,426,543,142,491,263,
0,422,537,164,486,262,
0,417,531,163,480,281,
0,412,525,161,476,289,
0,409,519,159,471,286,
0,403,513,158,465,283,
0,399,508,156,460,280,
0,396,503,156,455,278,
0,393,583,154,492,275,
0,419,575,153,486,273,
0,414,567,152,480,271,
0,409,560,152,475,268,
0,406,553,150,470,275,
0,402,547,148,464,272,
0,398,541,147,460,270,
0,393,535,146,455,267,
0,390,528,145,451,264,
0,386,523,143,446,263,
0,385,588,143,492,260,
0,433,579,142,487,259,
0,429,571,157,480,255,
0,424,564,155,475,254,
0,420,558,155,470,262,
0,415,551,153,465,259,
0,412,543,152,460,255,
0,408,538,151,455,254,
0,403,531,149,451,252,
0,399,526,148,462,249,
0,399,632,147,487,248,
0,402,624,145,481,246,
0,398,614,161,475,244,
0,395,606,159,470,242,
0,391,599,166,465,273,
0,387,591,164,460,271,
0,383,583,163,455,268,
0,379,577,161,451,265,
0,376,571,159,447,263,
0,373,580,159,496,260,
0,431,654,157,489,258,
0,425,644,156,483,255,
0,422,635,157,477,254,
0,417,626,156,472,252,
0,413,619,155,467,280,
0,408,611,153,462,278,
0,403,604,152,457,275,
0,399,596,150,452,271,
0,396,590,149,448,270,
0,392,611,148,508,268,
0,448,623,147,502,264,
0,442,615,145,496,263,
0,437,605,152,489,260,
0,432,598,151,484,281,
0,428,590,155,480,286,
0,423,583,153,473,284,
0,419,576,152,469,280,
0,415,569,151,464,278,
0,411,563,150,460,275,
0,408,559,148,499,272,
0,417,552,147,494,270,
0,412,547,145,488,268,
0,408,539,169,482,265,
0,404,534,167,476,263,
0,400,527,166,472,262,
0,397,522,164,467,259,
0,391,517,163,462,257,
0,388,511,161,457,255,
0,385,507,160,453,253,
0,387,540,159,493,251,
0,417,532,158,487,248,
0,414,527,167,483,281,
0,409,519,166,476,278,
0,405,513,164,472,290,
0,401,507,163,466,287,
0,397,502,161,461,284,
0,391,496,160,456,281,
0,388,492,159,451,279,
0,385,487,158,462,276,
0,414,535,156,492,274,
0,418,527,155,487,271,
0,414,519,162,481,269,
0,409,514,160,475,267,
0,406,508,160,470,264,
0,401,503,159,465,263,
0,398,497,158,460,260,
0,393,492,156,455,258,
0,389,487,156,451,255,
0,385,481,154,498,253,
0,430,519,152,492,251,
0,425,513,152,486,249,
0,420,506,156,481,247,
0,415,500,154,475,245,
0,412,495,153,470,277,
0,408,489,152,465,275,
0,404,483,151,460,271,
0,399,479,150,455,270,
0,396,475,148,451,267,
0,391,470,147,502,263,
0,455,465,146,496,262,
0,449,460,145,489,259,
0,445,455,143,484,257,
0,440,451,142,479,279,
0,435,448,159,473,285,
0,432,443,158,468,283,
0,428,440,156,463,280,
0,422,435,156,459,277,
0,418,432,153,454,274,
0,415,525,152,503,271,
0,431,525,152,496,270,
0,427,519,156,491,267,
0,422,511,207,486,264,
0,418,505,206,479,287,
0,414,499,204,473,284,
0,409,494,201,469,281,
0,406,488,199,464,279,
0,401,483,198,460,276,
0,398,478,196,455,273,
0,404,532,195,505,271,
0,455,526,193,499,268,
0,449,519,192,494,265,
0,444,512,190,488,263,
0,440,506,189,482,305,
0,435,500,188,477,303,
0,432,495,186,472,300,
0,427,489,184,467,296,
0,422,484,183,462,294,
0,418,480,182,472,291,
0,420,534,180,497,288,
0,438,527,179,492,286,
0,433,520,177,487,287,
0,428,513,176,481,284,
0,423,507,175,476,289,
0,420,502,174,470,287,
0,415,496,172,465,284,
0,412,491,172,460,281,
0,408,486,169,455,280,
0,403,480,167,501,276,
0,436,515,167,495,273,
0,432,509,166,489,271,
0,427,504,181,484,269,
0,423,496,179,479,267,
0,418,491,177,472,295,
0,414,486,176,467,293,
0,409,480,175,463,290,
0,406,476,174,457,287,
0,401,471,172,454,285,
0,398,515,170,488,281,
0,416,537,169,483,280,
0,412,531,167,478,277,
0,408,524,174,472,274,
0,404,517,172,467,272,
0,399,511,184,462,270,
0,396,505,183,456,268,
0,391,499,181,452,265,
0,389,494,179,448,263,
0,384,488,177,444,261,
0,382,524,176,503,259,
0,430,517,175,496,255,
0,425,511,174,492,255,
0,421,505,179,486,252,
0,417,498,177,480,287,
0,413,492,176,474,284,
0,408,487,175,470,280,
0,404,482,174,464,279,
0,401,477,172,460,275,
0,396,472,170,455,273,
0,395,579,169,496,271,
0,429,571,167,491,268,
0,424,563,167,486,265,
0,419,556,165,480,263,
0,415,548,169,474,281,
0,412,542,167,469,279,
0,408,536,167,464,276,
0,403,529,165,460,273,
0,399,524,163,455,271,
0,396,518,163,460,269,
0,409,512,161,487,265,
0,417,507,159,481,263,
0,413,502,164,476,262,
0,409,496,163,471,259,
0,405,489,161,464,295,
0,401,484,159,460,292,
0,397,480,159,455,289,
0,393,475,158,451,287,
0,390,470,157,447,284,
0,385,465,156,497,281,
0,423,518,155,491,279,
0,419,511,153,485,276,
0,415,505,153,480,274,
0,410,499,152,475,271,
0,407,493,151,468,321,
0,402,487,150,463,318,
0,398,483,148,459,315,
0,395,477,147,455,312,
0,391,472,147,449,309,
0,387,498,145,496,305,
0,440,529,143,489,303,
0,435,523,143,484,300,
0,430,516,151,479,297,
0,425,511,150,473,295,
0,422,504,148,467,292,
0,417,497,147,463,289,
0,413,492,146,458,287,
0,409,487,145,454,285,
0,406,482,143,449,283,
0,400,527,143,497,280,
0,428,519,142,491,278,
0,423,513,140,486,275,
0,419,508,163,480,272,
0,414,502,162,476,299,
0,410,495,174,469,295,
0,406,489,173,463,292,
0,402,484,171,459,289,
0,398,479,169,455,287,
0,395,473,167,451,285,
0,391,549,167,495,281,
0,435,542,166,489,279,
0,430,535,164,484,276,
0,425,528,163,479,274,
0,422,523,163,473,296,
0,417,515,161,467,294,
0,413,510,159,463,291,
0,409,504,159,458,288,
0,405,498,158,454,286,
0,401,493,156,465,284,
0,410,514,155,500,280,
0,419,508,153,495,278,
0,415,502,159,489,275,
0,411,496,158,484,273,
0,407,491,156,480,307,
0,403,484,155,473,304,
0,399,479,154,467,302,
0,395,474,152,463,299,
0,391,469,152,459,295,
0,387,464,151,507,294,
0,440,473,149,500,290,
0,433,468,147,495,287,
0,430,463,177,489,285,
0,425,459,176,484,283,
0,420,454,174,479,318,
0,416,448,172,472,315,
0,412,444,171,467,312,
0,408,440,169,463,310,
0,404,435,167,459,306,
0,399,449,167,499,304,
0,430,483,166,492,300,
0,425,477,164,487,297,
0,422,472,172,481,295,
0,417,467,171,476,307,
0,413,462,169,472,315StartUp!
126,431,571,160,467,261,
0,428,567,159,493,259,
0,425,561,159,505,258,
0,442,557,158,500,255,
0,439,552,157,496,255,
0,435,547,156,492,253,
0,432,543,155,487,251,
0,428,539,154,486,249,
0,425,535,153,480,268,
0,422,529,152,476,265,
0,419,524,152,472,263,
0,415,519,150,467,261,
0,410,513,148,462,259,
0,407,508,147,475,255,
0,428,540,147,499,254,
0,433,533,145,494,252,
0,429,527,144,488,249,
0,423,519,143,482,248,
0,420,513,142,477,246,
0,415,507,142,472,243,
0,412,502,140,467,241,
0,408,497,139,463,239,
0,403,492,138,457,237,
0,399,487,137,504,236,
0,439,537,135,497,233,
0,433,531,135,492,231,
0,429,524,137,486,246,
0,424,516,135,480,243,
0,420,511,135,475,265,
0,415,505,134,470,263,
0,412,502,134,467,263,
0,410,497,133,463,259,
0,405,492,131,457,257,
0,401,511,131,519,255,
0,462,543,130,513,252,
0,456,536,129,508,272,
0,451,531,176,502,277,
0,448,523,174,496,289,
0,443,516,172,490,286,
0,438,511,171,484,284,
0,433,505,169,480,280,
0,430,499,167,475,278,
0,423,494,166,470,275,
0,420,583,165,519,273,
0,480,575,163,512,271,
1,475,568,162,507,280,
1,470,561,176,501,278,
2,464,552,175,494,306,
2,460,546,173,489,302,
3,455,540,172,484,300,
3,450,534,170,479,296,
3,446,527,169,474,294,
4,440,522,167,469,291,
4,436,577,166,524,287,
4,475,570,199,518,286,
5,470,563,196,512,286,
6,464,556,195,507,283,
6,460,547,193,499,298,
6,455,542,192,495,295,
6,450,535,190,489,292,
6,446,528,188,484,289,
6,441,523,187,480,287,
7,436,518,185,488,284,
6,432,609,184,525,281,
6,440,600,182,519,279,
6,435,593,185,513,280,
6,431,585,184,508,278,
6,428,576,182,500,284,
7,423,569,180,496,281,
6,419,563,179,490,280,
6,415,556,177,486,276,
6,412,550,176,480,274,
7,407,543,175,516,271,
6,404,574,173,510,269,
6,401,566,172,504,267,
6,398,560,173,499,298,
6,393,552,172,493,295,
6,391,544,171,487,319,
6,387,539,169,481,316,
6,384,532,167,476,312,
6,380,527,167,472,310,
6,376,520,166,467,307,
6,374,551,163,515,304,
6,376,585,163,509,301,
6,372,577,161,504,298,
5,369,570,176,498,295,
5,366,563,175,492,302,
6,363,556,173,486,307,
5,359,548,172,481,304,
5,358,543,171,476,302,
4,355,536,169,472,299,
4,351,530,167,467,295,
5,348,588,167,515,293,
5,412,580,164,510,291,
4,407,573,163,504,287,
4,403,566,176,498,286,
4,399,560,175,493,308,
4,395,551,173,487,305,
4,391,544,172,481,302,
5,387,539,171,477,300,
4,384,532,169,472,296,
4,380,527,167,467,295,
4,376,719,166,515,291,
4,385,707,164,508,288,
4,382,697,179,503,295,
4,377,688,178,497,294,
4,374,679,176,492,307,
4,371,668,175,486,304,
4,368,659,174,480,302,
3,364,651,172,476,299,
4,360,643,171,471,295,
4,357,635,169,473,294,
4,376,666,167,515,290,
4,412,656,167,509,287,
4,407,647,171,504,285,
3,403,639,168,498,283,
4,399,632,167,492,305,
3,395,622,166,487,302,
3,391,615,164,481,300,
3,387,608,163,476,295,
3,384,600,162,472,294,
3,380,593,161,519,291,
3,438,679,159,511,287,
3,432,671,158,505,286,
3,428,662,197,500,283,
3,423,653,195,495,280,
3,419,642,193,489,279,
3,415,634,192,483,276,
3,411,626,190,478,274,
3,407,619,188,472,271,
3,403,611,187,467,270,
3,398,604,185,525,268,
3,408,597,184,519,264,
3,403,590,182,513,263,
3,399,583,195,507,260,
3,396,577,193,502,271,
3,391,568,192,496,284,
3,388,563,190,489,281,
3,385,556,188,484,279,
2,382,551,187,480,276,
3,379,544,185,475,274,
2,375,580,184,519,271,
2,408,572,182,513,268,
2,403,566,180,508,267,
2,399,559,179,502,263,
2,395,551,178,496,296,
2,391,543,176,492,294,
2,387,537,176,485,291,
2,384,532,174,480,287,
2,380,527,173,475,286,
2,376,521,172,471,283,
1,372,649,170,515,280,
1,396,639,168,509,278,
1,391,632,171,504,275,
1,388,623,169,498,272,
1,384,615,167,493,295,
1,380,605,167,487,292,
1,377,599,166,481,289,
1,374,591,164,476,287,
1,371,583,163,472,285,
1,367,577,162,468,283,
1,368,691,160,508,280,
1,395,679,159,502,276,
1,391,671,166,496,277,
1,387,662,164,491,275,
1,384,654,163,486,272,
1,380,643,162,480,270,
1,376,635,161,475,268,
0,372,627,159,470,265,
1,369,620,158,464,263,
1,366,612,157,515,262,
1,432,643,156,512,259,
1,427,635,155,505,255,
1,422,627,163,500,283,
1,417,619,161,495,280,
0,413,611,159,489,287,
1,409,601,158,484,284,
0,405,595,157,478,281,
0,401,588,156,473,280,
0,398,581,155,468,276,
1,393,595,153,510,274,
0,401,647,152,504,271,
0,396,639,151,499,283,
0,393,631,166,493,297,
0,389,623,163,487,300,
1,385,615,162,483,310,
0,382,605,161,478,307,
0,379,598,159,472,304,
0,376,591,159,466,301,
0,371,583,157,462,299,
0,368,618,156,510,295,
0,424,609,155,504,293,
0,419,601,153,497,290,
0,415,594,159,492,287,
0,411,587,158,487,285,
0,408,579,156,481,283,
0,403,572,156,476,280,
0,399,565,154,471,278,
0,396,559,153,466,275,
0,391,552,152,462,273,
0,388,691,151,509,271,
0,441,680,149,504,268,
0,436,671,187,497,295,
0,432,662,185,492,291,
0,427,654,184,487,321,
0,423,645,182,482,318,
0,419,635,180,476,315,
0,415,627,179,471,312,
0,411,620,177,465,310,
0,407,612,176,463,307,
0,403,665,174,508,304,
0,422,655,173,502,301,
0,418,647,172,496,297,
0,414,639,171,491,295,
0,409,631,169,486,294,
0,406,623,167,481,291,
0,401,613,167,475,287,
0,398,606,165,470,286,
0,394,599,164,465,284,
0,391,591,163,513,281,
0,387,611,161,511,279,
0,390,603,159,505,276,
0,387,595,187,499,300,
0,384,588,184,495,296,
0,380,582,183,489,332,
0,376,575,182,484,327,
0,372,567,179,478,325,
0,369,560,179,472,323,
0,366,555,177,467,319,
0,363,555,176,521,316,
0,430,583,174,515,313,
0,430,575,172,509,310,
0,425,568,171,504,307,
0,421,561,170,498,305,
0,416,554,168,493,304,
0,412,548,167,487,302,
0,408,540,166,481,299,
0,404,535,165,476,295,
0,400,529,163,472,294,
0,397,598,163,524,291,
0,433,595,161,518,289,
0,428,588,159,512,286,
0,423,580,166,506,284,
0,419,574,164,500,295,
0,415,567,163,496,291,
0,411,560,162,490,289,
0,407,551,160,483,286,
0,403,545,159,479,284,
0,399,539,158,474,281,
0,396,644,157,509,279,
0,459,635,156,504,276,
0,451,626,155,497,273,
0,447,618,153,492,271,
0,442,611,152,487,279,
0,438,603,152,482,275,
0,433,595,150,477,273,
0,429,587,149,471,271,
0,425,579,147,466,268,
0,420,573,147,462,267,
0,417,567,146,510,263,
0,442,560,144,504,262,
0,436,554,151,499,296,
0,432,547,149,493,294,
0,428,542,147,487,291,
0,423,536,147,483,288,
0,419,530,145,478,286,
0,415,523,144,472,284,
0,411,518,143,467,280,
0,408,512,142,508,279,
0,403,561,141,504,276,
0,419,554,140,499,273,
0,413,547,148,493,271,
0,409,541,147,487,268,
0,405,535,146,483,285,
0,401,528,145,478,283,
0,398,523,143,473,280,
0,393,515,143,467,277,
0,391,510,142,462,275,
0,387,513,140,500,272,
0,422,562,140,495,270,
0,430,555,139,489,268,
0,425,548,179,483,265,
0,421,542,177,479,263,
0,416,536,179,473,262,
0,412,529,178,468,259,
0,408,523,176,463,257,
0,404,516,175,457,255,
0,400,510,174,454,254,
0,397,516,172,511,252,
0,436,510,171,504,249,
0,430,504,169,499,248,
0,425,499,168,493,267,
0,422,494,167,487,264,
0,417,489,166,483,262,
0,413,484,165,478,259,
0,409,480,163,472,257,
0,406,474,163,467,255,
0,401,470,161,462,254,
0,398,575,159,496,251,
0,427,568,159,489,249,
0,421,560,158,484,254,
0,417,553,182,480,251,
0,412,547,180,475,266,
0,408,540,179,469,263,
0,404,534,177,463,261,
0,400,527,176,460,259,
0,397,520,175,454,255,
0,393,515,173,451,255,
0,390,574,172,511,252,
0,457,566,171,504,249,
0,451,559,169,499,250,
0,447,551,167,494,247,
0,442,545,166,488,274,
0,438,539,164,483,271,
0,433,532,163,478,269,
0,429,527,163,473,267,
0,424,519,161,467,263,
0,420,514,159,504,262,
0,423,606,159,508,259,
0,461,598,158,503,257,
0,455,590,157,497,255,
0,449,583,155,492,252,
0,446,575,154,487,257,
0,440,568,152,481,255,
0,436,562,152,476,252,
0,432,553,151,472,250,
0,428,547,150,465,248,
0,423,543,148,512,247,
0,450,595,147,505,244,
0,462,588,146,499,243,
0,455,579,148,494,240,
0,451,573,147,488,238,
0,447,566,145,483,236,
0,442,560,144,479,235,
0,438,553,143,473,233,
0,433,545,143,468,231,
0,429,539,142,463,230,
0,425,545,140,511,228,
0,459,539,140,504,227,
0,454,531,139,499,225,
0,448,526,156,494,228,
0,444,520,153,488,252,
0,439,515,152,483,248,
0,435,509,152,478,246,
0,430,504,150,473,243,
0,425,497,149,468,241,
0,422,492,147,463,240,
0,418,618,147,510,238,
0,487,608,145,504,236,
0,482,600,144,499,233,
0,476,593,154,492,231,
0,471,585,152,487,269,
0,465,579,151,483,267,
0,460,572,150,478,263,
0,455,565,148,472,262,
0,451,557,147,467,259,
0,448,551,146,462,257,
0,443,731,145,519,255,
0,476,719,184,513,252,
0,470,708,182,507,252,
0,463,699,179,502,249,
0,459,689,178,496,270,
0,455,679,176,491,268,
0,449,671,175,486,265,
0,445,663,174,481,263,
0,440,652,172,476,260,
0,436,644,171,511,258,
0,444,760,177,518,255,
0,463,747,177,512,254,
0,458,736,176,507,252,
0,452,726,174,501,249,
0,448,716,172,496,293,
0,443,706,171,491,290,
0,439,696,169,485,287,
0,434,688,167,480,284,
0,430,676,167,476,282,
0,426,668,166,531,280,
0,461,660,164,524,278,
0,460,652,163,518,275,
0,455,643,163,512,272,
0,449,636,161,506,270,
0,444,628,159,500,271,
0,440,621,159,496,269,
0,435,614,158,491,267,
0,432,607,156,486,263,
0,427,599,155,480,263,
0,423,591,153,519,260,
0,455,585,152,512,258,
0,451,579,152,506,255,
0,446,572,153,500,254,
0,440,567,152,496,252,
0,435,560,151,491,265,
0,432,555,150,484,263,
0,428,548,148,480,261,
0,423,543,147,475,259,
0,419,536,146,469,255,
0,415,687,145,525,254,
0,507,727,143,518,252,
0,500,716,159,512,250,
0,495,706,211,507,248,
0,487,696,207,502,265,
0,483,687,206,496,262,
0,478,678,204,491,259,
0,473,669,203,486,257,
0,468,660,200,480,255,
0,463,651,199,475,253,
0,460,643,198,514,251,
0,468,636,196,508,248,
0,463,627,195,503,247,
0,459,620,209,497,244,
0,453,613,207,492,259,
0,448,606,206,487,257,
0,444,600,204,481,254,
0,440,591,202,477,252,
0,436,585,199,472,249,
0,432,577,199,502,248,
0,440,618,198,510,246,
0,460,609,195,504,243,
0,455,601,194,499,241,
0,451,595,193,493,240,
0,445,588,191,487,283,
0,440,580,190,483,280,
0,435,573,188,478,276,
0,432,567,187,472,274,
0,428,561,185,468,271,
0,423,553,184,526,270,
0,438,600,214,519,267,
0,441,591,211,513,264,
0,436,584,209,508,263,
0,432,577,207,502,260,
0,427,571,205,496,257,
0,423,563,203,492,255,
0,419,557,201,487,253,
0,415,551,199,481,251,
0,411,545,199,476,249,
0,408,579,197,526,248,
0,480,602,195,519,245,
0,473,594,193,513,243,
0,468,587,192,508,243,
0,463,579,191,503,241,
0,457,572,189,497,263,
0,453,566,188,492,262,
0,448,560,187,487,259,
0,444,552,185,481,257,
0,440,547,184,476,255,
0,435,639,183,518,253,
0,479,631,181,512,251,
0,472,622,179,506,248,
0,467,614,178,500,247,
0,463,607,176,496,271,
0,456,599,175,490,280,
0,452,591,174,485,276,
0,448,584,172,480,274,
0,443,577,172,475,271,
0,439,571,171,471,269,
0,435,647,169,512,267,
0,444,638,167,507,264,
0,439,630,167,502,304,
0,434,622,173,496,300,
0,430,614,172,490,297,
0,424,607,169,485,294,
0,420,599,168,480,291,
0,417,591,167,475,288,
0,413,584,166,470,286,
0,409,578,164,465,284,
0,422,635,163,509,280,
0,472,625,163,504,279,
0,467,617,172,497,281,
0,462,609,170,492,279,
0,457,603,168,487,275,
0,451,595,167,481,273,
0,447,588,166,476,271,
0,442,580,164,472,268,
0,438,574,163,467,266,
0,433,568,162,479,263,
0,469,617,160,503,262,
0,473,609,159,497,259,
0,468,601,158,492,257,
0,463,594,157,487,255,
0,457,587,159,481,271,
0,452,579,158,476,268,
0,448,573,156,472,266,
0,444,567,155,467,263,
0,439,560,154,462,262,
0,435,553,153,517,259,
0,439,588,152,508,257,
0,434,579,151,504,255,
0,430,572,155,497,253,
0,425,566,153,492,251,
0,420,559,152,487,250,
0,416,552,151,482,248,
0,413,546,150,477,246,
0,409,540,149,472,243,
0,406,535,147,467,241,
0,402,575,147,518,240,
0,492,653,146,510,238,
0,485,644,144,504,258,
0,480,636,161,499,259,
0,475,627,159,494,257,
0,468,620,159,487,255,
0,463,612,157,483,253,
0,459,604,156,478,251,
0,455,598,154,472,248,
0,449,590,152,467,247,
0,445,583,152,507,244,
0,448,575,151,499,241,
0,444,569,150,494,240,
0,440,563,156,488,238,
0,435,556,155,483,263,
0,430,550,159,479,260,
0,425,543,158,473,257,
0,422,538,157,468,255,
0,417,532,156,463,252,
0,414,527,155,460,251,
0,411,583,153,510,248,
0,429,573,152,503,246,
0,424,566,155,497,252,
0,420,559,153,492,249,
0,415,551,152,487,248,
0,411,545,151,481,246,
0,408,540,149,476,243,
0,403,533,148,472,240,
0,399,527,147,467,239,
0,396,521,145,472,237,
0,435,579,145,508,235,
0,443,572,143,499,233,
0,439,566,147,495,231,
0,434,559,146,489,230,
0,430,551,145,484,259,
0,423,545,143,479,255,
0,420,539,143,473,254,
0,415,532,142,469,251,
0,412,527,140,464,249,
0,408,536,140,515,247,
0,469,643,139,509,244,
0,463,635,137,502,243,
0,457,627,151,496,260,
0,453,618,150,491,258,
0,448,611,148,486,284,
0,443,603,147,481,281,
0,439,595,145,476,279,
0,434,588,143,471,276,
0,430,582,143,466,273,
0,427,630,142,500,271,
0,438,704,141,495,268,
0,433,694,140,488,267,
0,429,684,198,483,263,
0,423,675,195,478,280,
0,420,665,193,472,291,
0,415,657,192,467,287,
0,412,649,190,463,284,
0,408,641,188,459,282,
0,403,633,187,454,280,
0,400,654,185,504,277,
0,461,643,184,497,275,
0,455,634,183,491,272,
0,451,626,181,485,270,
0,447,619,179,480,268,
0,441,611,178,475,265,
0,436,604,176,470,263,
0,432,596,175,465,260,
0,428,590,174,460,259,
0,423,583,172,455,257,
0,419,661,171,502,255,
0,435,648,169,496,252,
0,431,639,175,489,250,
0,427,632,172,484,248,
0,422,624,172,479,281,
0,418,615,170,473,278,
0,413,608,167,468,275,
0,409,601,167,463,272,
0,406,594,166,460,270,
0,401,588,164,462,268,
0,433,581,163,499,265,
0,462,572,162,493,263,
0,457,567,161,487,261,
0,452,560,159,481,259,
0,448,554,159,476,284,
0,443,548,157,472,281,
0,438,542,156,467,279,
0,433,536,155,462,275,
0,429,531,153,457,273,
0,424,526,153,512,271,
0,438,583,152,506,268,
0,432,575,151,500,266,
0,428,568,161,493,269,
0,423,560,159,487,267,
0,419,553,159,483,274,
0,415,547,157,478,271,
0,411,541,156,473,270,
0,407,535,154,468,266,
0,403,529,153,463,263,
0,399,524,152,512,262,
0,448,518,151,506,259,
0,442,511,150,499,257,
0,438,506,167,494,255,
0,433,502,167,488,270,
0,428,496,165,483,287,
0,423,492,163,479,284,
0,419,487,162,473,281,
0,415,483,160,468,279,
0,411,478,159,463,276,
0,408,560,158,499,273,
0,416,551,157,493,271,
0,412,543,156,486,274,
0,408,536,155,481,271,
0,404,530,154,476,269,
0,399,524,152,471,267,
0,396,518,152,465,263,
0,391,512,150,461,262,
0,389,507,149,456,259,
0,385,501,147,452,257,
0,401,671,147,506,255,
0,472,671,145,499,253,
0,467,660,158,493,251,
0,462,652,159,487,248,
0,456,643,157,483,270,
0,451,635,156,478,268,
0,448,627,155,472,265,
0,441,620,153,467,262,
0,438,611,152,463,259,
0,433,604,151,464,257,
0,465,736,150,508,255,
0,488,725,147,503,253,
0,483,712,176,496,273,
0,478,702,174,491,271,
0,472,692,172,486,268,
0,468,684,171,480,265,
0,463,675,169,476,263,
0,457,665,167,471,260,
0,452,657,166,465,258,
0,448,649,165,516,255,
0,449,641,163,511,254,
0,444,633,162,505,252,
0,440,624,166,499,259,
0,435,616,164,494,255,
0,432,609,163,487,287,
0,428,603,162,483,286,
0,423,595,160,478,283,
0,419,588,159,473,280,
0,415,582,158,468,278,
0,412,579,156,513,275,
0,467,611,156,507,271,
0,462,604,155,501,270,
0,457,595,156,494,268,
0,452,587,155,488,275,
0,448,580,153,483,291,
0,443,573,152,479,287,
0,439,568,152,473,286,
0,433,561,150,468,282,
0,429,555,148,463,280,
0,425,612,147,504,278,
0,451,603,146,497,275,
0,446,595,145,492,273,
0,441,586,150,486,271,
0,436,579,148,480,273,
0,432,572,147,476,270,
0,428,565,146,471,268,
0,423,559,145,465,265,
0,419,552,143,461,263,
0,415,546,143,456,261,
0,412,577,142,513,259,
0,467,569,140,507,255,
0,462,562,144,502,254,
0,457,553,144,495,252,
0,452,547,152,489,280,
0,448,541,152,483,276,
0,443,536,151,479,273,
0,439,529,150,473,271,
0,433,524,148,469,268,
0,428,519,147,465,265,
0,455,540,145,511,263,
0,457,534,144,505,262,
0,452,527,162,499,295,
0,448,519,160,493,291,
0,443,514,159,487,289,
0,438,508,158,483,286,
0,433,504,156,478,284,
0,428,499,156,472,281,
0,423,494,153,467,278,
0,420,489,152,509,275,
0,470,572,152,502,273,
0,465,565,150,496,271,
0,460,559,172,491,269,
0,455,550,171,484,267,
0,451,543,169,480,294,
0,446,537,167,475,291,
0,441,531,167,470,287,
0,436,525,165,464,285,
0,432,519,163,460,282,
0,428,513,163,510,280,
0,443,508,161,504,277,
0,438,502,159,497,275,
0,433,497,168,492,271,
0,428,491,167,486,270,
0,423,486,166,480,273,
0,420,481,164,476,271,
0,415,476,163,471,269,
0,412,472,162,465,267,
0,408,467,160,461,263,
0,404,521,159,511,262,
0,480,529,158,504,259,
0,475,523,157,499,266,
0,470,516,191,493,263,
0,464,510,189,487,291,
0,460,504,187,481,287,
0,455,498,185,476,284,
0,450,492,184,472,282,
0,444,487,183,467,280,
0,440,482,180,462,277,
0,436,548,179,508,274,
0,460,541,178,502,271,
0,455,535,191,496,270,
0,451,528,193,491,267,
0,446,520,191,484,265,
0,441,515,189,480,263,
0,436,508,188,475,260,
0,432,504,186,470,258,
0,428,497,184,464,255,
0,423,492,183,460,254,
0,440,487,182,508,252,
0,463,482,180,503,249,
0,458,477,179,497,248,
0,454,472,177,492,246,
0,448,467,176,485,305,
0,444,462,175,480,303,
0,440,457,173,475,300,
0,435,454,172,470,297,
0,430,449,171,465,295,
0,425,452,169,503,291,
0,478,584,167,508,288,
0,472,575,167,503,286,
0,467,569,165,497,283,
0,462,560,163,492,280,
0,457,553,163,486,286,
0,452,547,161,480,283,
0,448,541,160,476,280,
0,444,535,159,471,278,
0,438,529,158,465,275,
0,434,524,156,515,273,
0,468,568,155,508,271,
0,463,560,154,503,268,
0,458,553,157,497,266,
0,454,545,156,492,263,
0,448,539,154,485,262,
0,444,532,153,480,259,
0,440,526,152,475,257,
0,435,520,151,470,255,
0,430,515,150,465,254,
0,427,570,148,515,251,
0,479,615,147,508,249,
0,473,607,146,503,248,
0,467,600,163,497,245,
0,463,590,161,492,243,
0,458,583,159,486,241,
0,454,575,158,480,240,
0,449,569,158,476,238,
0,444,563,156,471,236,
0,439,556,154,465,235,
0,435,617,153,521,231,
0,486,608,152,515,231,
0,480,600,155,510,230,
0,475,593,158,504,227,
0,470,584,156,499,253,
0,465,577,156,492,250,
0,460,571,154,487,248,
0,455,563,152,481,246,
0,451,558,152,477,243,
0,446,551,150,472,241,
0,452,604,149,515,239,
0,470,595,147,510,236,
0,465,588,151,504,235,
0,460,581,149,499,232,
0,455,572,148,493,239,
0,451,566,147,487,236,
0,446,559,145,481,234,
0,441,551,144,476,231,
0,438,546,143,472,231,
0,432,540,142,498,228,
0,439,548,141,500,226,
0,435,542,140,495,224,
0,432,536,152,489,223,
0,427,529,151,484,222,
0,423,523,150,480,240,
0,419,516,148,473,237,
0,415,511,147,468,235,
0,412,506,146,463,233,
0,408,500,145,459,231,
0,403,573,143,513,230,
0,455,679,143,507,227,
0,451,670,141,501,225,
0,446,661,147,496,246,
0,441,652,145,490,243,
0,436,641,144,484,272,
0,432,633,143,479,270,
0,428,625,142,473,267,
0,423,617,141,468,265,
0,419,610,140,463,263,
0,415,703,138,519,260,
0,454,711,137,513,257,
0,449,700,135,508,255,
0,444,691,138,503,253,
0,440,681,137,497,270,
0,435,670,135,491,267,
0,431,662,135,485,264,
0,427,653,134,480,263,
0,422,644,134,475,260,
0,419,636,132,471,258,
0,414,630,131,518,255,
0,446,622,130,511,253,
0,440,615,132,505,259,
0,436,607,143,500,255,
0,432,600,142,495,254,
0,427,591,141,487,252,
0,423,584,140,483,249,
0,419,578,139,478,248,
0,415,572,137,473,246,
0,411,566,135,468,243,
0,442,596,135,521,241,
0,457,588,134,515,239,
0,452,580,148,510,237,
0,448,574,147,504,236,
0,443,567,145,498,241,
0,438,559,144,492,240,
0,433,552,143,487,238,
0,430,547,142,481,236,
0,425,541,140,476,233,
0,422,536,140,504,231,
0,463,583,141,513,230,
0,464,575,140,507,227,
0,460,568,145,502,245,
0,455,561,143,496,243,
0,450,555,142,491,272,
0,445,547,141,484,270,
0,440,540,140,480,268,
0,435,534,139,474,265,
0,432,528,137,470,263,
0,428,523,137,522,260,
0,466,536,135,515,257,
0,460,529,135,509,255,
0,455,523,137,504,253,
0,451,518,136,498,251,
0,447,512,135,493,268,
0,442,505,134,487,265,
0,438,501,133,481,263,
0,433,496,132,476,260,
0,429,491,131,472,258,
0,425,534,130,518,255,
0,443,537,129,511,253,
0,438,531,127,505,254,
0,433,524,135,499,252,
0,429,519,134,495,252,
0,423,513,132,489,249,
0,420,505,131,483,248,
0,416,500,131,478,245,
0,412,495,129,473,243,
0,408,489,128,468,241,
0,406,559,127,519,240,
0,476,551,126,512,236,
0,472,544,126,507,235,
0,466,537,126,501,233,
0,461,531,126,496,263,
0,456,526,124,491,262,
0,451,518,124,484,259,
0,448,512,123,479,257,
0,443,507,121,474,255,
0,439,501,121,470,252,
0,435,558,120,518,250,
0,487,551,120,512,248,
0,482,543,142,507,246,
0,477,537,140,500,243,
0,472,531,139,496,271,
0,467,525,137,490,268,
0,462,518,136,484,265,
0,457,512,135,479,263,
0,453,505,135,474,261,
0,448,500,134,496,259,
0,458,593,132,512,256,
0,459,584,131,507,254,
0,455,577,154,500,254,
0,449,570,152,496,252,
0,445,563,152,489,249,
0,440,556,150,485,248,
0,436,549,148,479,245,
0,432,543,147,473,243,
0,428,536,146,469,241,
0,423,530,145,513,239,
0,432,543,143,507,237,
0,427,537,142,500,235,
0,423,531,148,496,233,
0,419,525,147,489,231,
0,415,519,147,484,261,
0,411,513,146,480,259,
0,408,507,145,473,255,
0,403,501,143,468,254,
0,399,496,143,463,252,
0,396,524,142,508,249,
0,451,541,140,502,248,
0,446,534,139,496,273,
0,441,527,147,491,270,
0,436,521,146,486,268,
0,432,515,145,480,265,
0,428,510,143,476,263,
0,423,503,143,470,260,
0,419,497,142,464,258,
0,415,492,140,460,255,
0,412,572,139,511,254,
0,460,563,138,505,252,
0,455,556,136,499,249,
0,450,550,140,494,247,
0,446,543,139,488,278,
0,441,537,138,483,275,
0,436,531,136,479,271,
0,432,524,135,472,270,
0,428,518,135,467,267,
0,423,512,134,463,265,
0,420,650,132,510,263,
0,451,639,131,504,260,
0,447,632,143,499,259,
0,443,623,142,493,257,
0,438,615,140,487,258,
0,433,608,140,483,255,
0,429,599,139,478,254,
0,424,591,137,472,252,
0,420,583,135,467,249,
0,416,577,135,483,248,
0,415,571,134,505,246,
0,435,564,132,499,243,
0,431,558,132,494,241,
0,427,551,131,488,239,
0,423,546,131,483,248,
0,418,540,131,479,247,
0,414,532,129,473,244,
0,410,527,128,467,242,
0,407,521,127,463,240,
0,403,515,127,510,238,
0,455,553,126,504,236,
0,456,546,125,497,234,
0,451,540,142,492,252,
0,448,533,140,487,249,
0,443,527,139,481,252,
0,438,520,137,476,249,
0,433,513,136,472,248,
0,429,508,135,465,245,
0,425,503,135,461,243,
0,421,537,134,512,241,
0,463,567,132,505,239,
0,456,560,131,499,237,
0,451,552,137,494,236,
0,448,545,136,489,252,
0,442,540,135,483,252,
0,438,533,135,479,249,
0,433,526,133,473,248,
0,429,519,132,467,246,
0,424,514,131,463,243,
0,422,570,130,504,241,
0,484,563,169,499,239,
0,477,556,203,493,237,
0,472,548,201,487,235,
0,467,542,199,483,267,
0,462,536,198,478,263,
0,457,529,195,472,262,
0,452,522,194,467,259,
0,448,516,192,462,257,
0,444,511,191,457,255,
0,440,505,190,515,252,
0,472,499,188,509,250,
0,464,495,186,504,270,
0,460,489,185,499,267,
0,455,484,184,493,263,
0,450,480,182,487,262,
0,446,476,180,483,259,
0,441,470,179,478,257,
0,436,465,177,472,255,
0,432,461,176,483,253,
0,430,590,175,508,251,
0,455,582,174,503,248,
0,451,575,176,497,247,
0,446,568,174,492,244,
0,441,560,173,487,248,
0,436,553,172,481,244,
0,432,547,170,476,243,
0,428,539,168,472,240,
0,423,533,167,465,239,
0,419,527,167,511,237,
0,447,521,166,504,235,
0,463,515,164,499,233,
0,457,511,222,494,231,
0,452,504,220,487,229,
0,448,499,217,483,263,
0,444,495,216,478,261,
0,439,489,214,473,258,
0,435,483,211,467,255,
0,431,478,210,462,254,
0,426,495,208,518,252,
0,443,523,207,511,249,
0,438,517,205,505,248,
0,432,511,203,500,245,
0,428,505,201,495,271,
0,423,499,199,489,280,
0,419,494,198,484,278,
0,415,488,196,480,275,
0,412,482,195,473,271,
0,408,477,193,468,270,
0,404,498,192,505,268,
0,440,492,191,499,265,
0,435,486,189,494,265,
0,430,480,189,488,284,
0,425,476,188,483,283,
0,421,471,186,479,280,
0,417,465,184,473,278,
0,413,461,184,468,275,
0,409,455,182,463,272,
0,405,451,180,458,270,
0,401,527,179,508,268,
0,481,519,177,502,265,
0,476,513,176,496,263,
0,470,507,175,491,261,
0,464,502,174,486,274,
0,460,496,172,480,271,
0,455,490,171,476,269,
0,450,485,170,471,267,
0,446,479,168,464,263,
0,441,473,167,477,263,
0,438,491,167,512,259,
0,477,486,166,505,257,
0,472,480,164,500,258,
0,465,475,163,495,255,
0,460,470,162,489,253,
0,455,464,161,484,251,
0,451,460,159,480,248,
0,446,455,159,475,247,
0,441,449,157,468,245,
0,438,446,156,519,243,
0,479,539,155,512,241,
0,488,531,154,507,239,
0,483,526,159,501,237,
0,477,519,157,496,235,
0,472,513,156,490,255,
0,467,508,155,485,253,
0,463,502,153,480,251,
0,457,496,152,475,248,
0,454,489,151,469,247,
0,448,516,150,510,244,
0,455,551,149,504,242,
0,450,545,147,498,240,
0,446,539,147,492,255,
0,440,532,145,487,255,
0,435,527,144,482,258,
0,432,519,143,477,255,
0,428,515,143,472,253,
0,423,509,142,467,251,
0,419,502,141,462,248,
0,415,502,140,512,247,
0,461,496,139,505,244,
0,455,491,137,500,243,
0,451,486,164,495,240,
0,445,480,162,489,268,
0,440,476,163,484,264,
0,436,471,161,479,262,
0,432,466,160,474,260,
0,428,462,159,469,257,
0,423,455,158,463,255,
0,420,529,157,508,253,
0,483,522,155,503,251,
0,477,515,153,497,248,
0,472,509,156,492,247,
0,465,504,154,486,243,
0,460,497,153,481,241,
0,455,492,152,476,240,
0,451,487,151,472,238,
0,447,482,150,466,236,
0,441,476,148,472,234,
0,438,504,147,513,231,
0,453,499,146,508,230,
0,448,493,147,502,255,
0,443,487,152,496,252,
0,438,482,150,491,268,
0,433,476,148,486,265,
0,429,472,147,480,263,
0,425,467,146,476,260,
0,421,462,145,471,258,
0,417,455,143,512,255,
0,436,555,143,505,254,
0,461,548,142,499,252,
0,455,542,152,495,249,
0,450,535,151,489,248,
0,446,528,149,484,268,
0,441,523,147,479,265,
0,436,516,147,473,263,
0,432,511,145,469,261,
0,428,505,143,464,259,
0,423,525,143,518,255,
0,463,577,142,512,254,
0,461,570,141,506,252,
0,455,563,142,500,251,
0,450,556,141,495,248,
0,446,550,140,489,271,
0,440,543,139,484,269,
0,436,537,137,480,267,
0,432,531,136,475,263,
0,428,524,135,470,262,
0,423,601,135,519,260,
0,447,611,142,513,257,
0,441,603,141,508,255,
0,437,595,150,502,253,
0,432,588,149,496,252,
0,427,581,147,491,274,
0,423,574,146,486,271,
0,419,568,145,480,269,
0,415,561,143,476,267,
0,411,555,143,471,263,
0,408,551,142,526,262,
0,453,545,140,519,259,
0,448,539,140,513,257,
0,443,533,140,508,255,
0,437,527,139,503,292,
0,433,521,137,496,287,
0,428,516,135,492,285,
0,423,510,135,487,283,
0,420,505,134,481,280,
0,415,499,133,476,278,
0,412,551,132,513,275,
0,455,544,131,507,273,
0,451,537,130,502,270,
0,446,531,129,496,268,
0,440,525,128,491,266,
0,435,519,127,486,263,
0,431,513,127,480,261,
0,427,508,126,476,259,
0,423,503,125,471,256,
0,419,496,124,467,255,
0,449,591,123,494,252,
0,448,583,123,487,250,
0,443,575,122,483,248,
0,439,568,121,478,246,
0,433,562,120,472,273,
0,428,556,119,467,271,
0,423,548,118,463,268,
0,420,543,118,459,265,
0,415,536,116,454,263,
0,412,534,116,489,261,
0,459,557,115,496,259,
0,455,550,114,490,255,
0,451,543,132,484,254,
0,446,536,131,480,252,
0,440,531,129,475,273,
0,435,524,128,470,270,
0,432,519,127,464,268,
0,427,513,126,460,265,
0,423,508,126,455,263,
0,419,524,124,508,261,
0,444,518,124,500,259,
0,440,511,123,495,255,
0,435,505,131,489,254,
0,431,499,131,484,252,
0,425,495,129,479,270,
0,420,489,128,474,267,
0,416,484,127,469,264,
0,412,480,126,464,262,
0,408,475,125,460,259,
0,406,643,124,512,257,
0,460,632,124,504,255,
0,454,624,123,499,253,
0,449,615,128,493,251,
0,444,608,127,487,283,
0,439,600,169,483,280,
0,435,593,167,478,276,
0,430,586,167,472,274,
0,425,579,165,467,271,
0,422,572,163,463,269,
0,417,595,163,511,267,
0,428,588,161,504,263,
0,423,580,160,498,262,
0,419,573,161,492,259,
0,415,566,159,487,286,
0,411,560,158,483,283,
0,407,553,157,477,280,
0,403,547,156,472,278,
0,399,541,154,467,275,
0,396,536,153,463,273,
0,420,660,152,511,270,
0,430,652,151,504,268,
0,424,643,150,497,265,
0,420,634,149,492,263,
0,415,626,147,487,260,
0,411,619,146,482,259,
0,408,611,145,477,255,
0,403,604,143,472,254,
0,399,596,143,467,252,
0,396,589,142,499,249,
0,467,654,141,514,248,
0,463,645,140,508,246,
0,457,636,139,503,247,
0,452,628,138,497,244,
0,448,620,159,492,270,
0,442,613,156,487,268,
0,438,605,155,481,263,
0,433,598,153,476,262,
0,429,591,152,472,259,
0,425,583,152,515,257,
0,457,635,150,508,255,
0,452,627,149,502,253,
0,448,619,149,496,251,
0,443,611,147,491,248,
0,438,603,147,486,248,
0,432,595,145,481,246,
0,428,588,143,476,243,
0,423,582,143,471,240,
0,419,575,142,466,239,
0,415,609,141,512,237,
0,448,627,140,504,235,
0,443,620,156,499,233,
0,439,611,176,493,231,
0,434,604,175,487,254,
0,430,596,173,483,251,
0,423,589,172,478,248,
0,419,582,169,472,246,
0,415,575,167,467,243,
0,412,568,167,463,241,
0,408,563,166,514,240,
0,459,555,164,507,238,
0,454,548,163,501,239,
0,449,543,163,496,237,
0,444,537,161,491,271,
0,440,531,160,485,268,
0,434,526,159,480,265,
0,430,519,158,475,263,
0,425,515,156,470,260,
0,422,510,156,465,259,
0,433,588,154,511,255,
0,465,579,152,504,254,
0,460,572,152,499,252,
0,455,564,151,493,249,
0,451,558,171,487,251,
0,446,551,168,483,249,
0,440,544,167,478,247,
0,436,539,166,472,244,
0,432,532,164,467,243,
0,428,527,163,495,240,
0,451,610,161,519,238,
0,448,600,160,512,236,
0,444,591,159,507,235,
0,439,584,158,502,232,
0,435,577,157,496,265,
0,430,571,156,491,263,
0,424,564,155,486,259,
0,420,558,153,480,257,
0,416,551,152,476,255,
0,413,545,151,515,253,
0,440,579,150,508,251,
0,435,569,148,501,249,
0,430,563,149,496,251,
0,425,556,147,490,248,
0,422,549,147,485,260,
0,417,543,145,480,257,
0,412,536,143,475,255,
0,408,531,143,470,252,
0,404,525,142,465,251,
0,401,558,141,510,248,
0,465,575,140,504,246,
0,460,566,139,497,248,
0,455,559,143,491,246,
0,449,552,143,486,263,
0,445,546,142,481,260,
0,440,540,140,476,257,
0,435,534,139,471,255,
0,431,527,138,466,252,
0,427,521,137,462,251,
0,423,590,135,507,248,
0,450,582,135,501,246,
0,445,572,134,495,243,
0,440,565,143,488,241,
0,436,558,142,483,261,
0,432,551,140,479,258,
0,427,545,139,473,255,
0,422,539,137,468,253,
0,418,532,136,463,251,
0,414,527,135,460,249,
0,439,632,135,502,247,
0,467,622,133,496,244,
0,462,612,154,489,242,
0,456,604,152,484,240,
0,452,596,151,480,248,
0,448,589,150,474,246,
0,441,582,148,470,243,
0,438,575,147,464,241,
0,433,568,146,460,239,
0,429,563,145,479,238,
0,468,673,143,504,235,
0,463,664,142,499,233,
0,458,652,147,492,241,
0,453,643,145,487,239,
0,448,635,144,481,237,
0,444,627,143,476,235,
0,439,619,142,472,233,
0,434,611,140,467,231,
0,430,604,140,462,229,
0,425,598,139,518,227,
0,465,657,137,511,225,
0,460,648,135,505,224,
0,455,638,152,498,240,
0,450,630,152,492,239,
0,446,622,150,487,263,
0,440,615,148,482,262,
0,435,607,147,477,259,
0,431,600,146,472,257,
0,427,592,145,467,254,
0,423,586,143,516,252,
0,467,579,143,510,249,
0,462,572,142,504,270,
0,457,564,147,497,274,
0,452,558,145,492,271,
0,448,551,144,487,269,
0,444,546,143,481,267,
0,438,540,142,476,263,
0,433,535,140,472,262,
0,429,528,140,467,259,
0,425,606,139,518,257,
0,447,596,137,511,254,
0,441,588,135,505,253,
0,437,580,143,499,251,
0,433,574,143,494,263,
0,428,567,162,487,260,
0,423,560,161,483,258,
0,419,553,159,478,255,
0,415,547,158,473,253,
0,411,540,156,468,251,
0,423,692,155,509,248,
0,461,683,153,504,247,
0,455,671,155,497,259,
0,451,662,153,491,257,
0,446,654,152,486,279,
0,441,645,151,480,275,
0,438,636,150,476,273,
0,432,628,148,471,271,
0,428,621,147,466,268,
0,423,614,145,476,265,
0,452,647,144,510,263,
0,460,639,143,504,260,
0,455,628,153,499,259,
0,450,620,152,492,257,
0,446,612,151,487,273,
0,441,606,150,482,271,
0,436,598,148,477,268,
0,431,591,147,472,265,
0,427,584,145,467,263,
0,423,578,144,519,261,
0,480,583,143,512,259,
0,475,575,142,505,255,
0,470,568,143,500,262,
0,464,560,142,494,259,
0,460,555,140,488,278,
0,455,548,139,483,275,
0,450,543,138,479,272,
0,444,537,137,473,270,
0,440,531,135,468,268,
0,436,583,135,517,265,
0,467,620,134,510,263,
0,462,611,132,504,260,
0,457,602,155,499,259,
0,452,595,153,492,272,
0,448,588,152,487,277,
0,443,580,151,482,275,
0,439,574,150,477,271,
0,433,567,148,472,270,
0,429,560,147,467,267,
0,425,627,146,505,263,
0,440,617,151,499,262,
0,435,609,150,495,260,
0,431,600,148,489,257,
0,427,592,147,483,263,
0,423,585,146,478,260,
0,418,578,145,472,259,
0,414,571,143,467,255,
0,409,564,142,463,254,
0,406,558,141,459,252,
0,414,655,140,504,249,
0,459,645,139,497,247,
0,454,636,149,492,263,
0,449,626,147,487,260,
0,444,619,179,480,283,
0,440,611,182,476,280,
0,435,603,179,470,278,
0,431,595,178,465,275,
0,425,589,176,460,272,
0,422,582,175,470,270,
0,452,598,174,510,267,
0,455,590,172,504,265,
0,450,583,171,499,263,
0,445,574,169,492,262,
0,440,568,167,487,259,
0,436,560,167,481,257,
0,432,555,166,476,255,
0,428,548,164,472,253,
0,423,542,163,467,251,
0,419,536,161,519,248,
0,468,551,160,512,246,
0,462,543,159,506,244,
0,457,537,163,500,259,
0,452,530,163,494,257,
0,448,524,161,488,292,
0,444,519,159,483,289,
0,439,513,159,479,287,
0,434,508,157,473,284,
0,429,504,156,468,281,
0,425,516,155,515,279,
0,477,545,153,508,275,
0,472,538,159,504,273,
0,466,531,229,497,271,
0,462,524,227,491,280,
0,456,518,224,486,294,
0,451,512,223,480,291,
0,448,507,221,476,287,
0,443,501,219,471,285,
0,438,496,216,465,283,
0,433,491,215,516,280,
0,455,487,213,510,277,
0,450,481,211,504,275,
0,446,477,209,499,271,
0,441,472,207,492,279,
0,436,467,206,487,276,
0,432,462,204,482,273,
0,428,458,204,476,271,
0,423,454,201,472,269,
0,419,449,199,467,266,
0,423,537,199,512,263,
0,448,530,196,506,262,
0,444,524,195,500,259,
0,440,518,194,495,257,
0,435,510,192,488,257,
0,430,504,191,483,255,
0,425,499,190,478,252,
0,422,494,188,473,251,
0,417,487,187,468,248,
0,412,483,185,468,246,
0,428,544,188,508,244,
0,434,537,185,502,242,
0,430,531,184,497,240,
0,425,525,184,492,239,
0,421,518,182,485,257,
0,417,511,180,480,255,
0,412,505,179,475,252,
0,408,500,177,470,250,
0,405,495,176,465,248,
0,400,489,175,515,246,
0,448,573,174,508,243,
0,442,565,172,503,241,
0,438,559,203,497,239,
0,433,551,199,492,237,
0,428,543,199,486,271,
0,423,537,197,480,268,
0,419,531,195,476,265,
0,415,524,193,471,263,
0,412,519,192,465,261,
0,408,527,190,531,258,
0,466,561,188,524,255,
0,460,553,188,518,254,
0,455,547,185,512,252,
0,451,540,184,507,254,
0,447,532,183,499,271,
0,441,527,182,494,268,
0,438,520,180,489,265,
0,433,515,179,484,263,
0,429,510,177,480,261,
0,423,580,176,524,258,
0,462,588,175,518,255,
0,455,580,174,512,254,
0,451,574,189,506,252,
0,447,568,188,500,262,
0,442,559,186,494,259,
0,438,551,184,488,257,
0,433,545,184,483,255,
0,429,540,182,479,252,
0,423,533,180,474,250,
0,432,588,179,504,248,
0,470,580,177,497,246,
0,465,573,176,493,243,
0,460,566,174,487,241,
0,455,560,173,483,278,
0,450,551,172,476,275,
0,446,544,171,471,272,
0,441,539,169,466,270,
0,437,532,167,462,268,
0,432,527,167,459,265,
0,460,592,166,513,263,
0,480,584,164,507,260,
0,473,577,163,502,257,
0,468,570,162,496,255,
0,463,563,161,491,275,
0,459,555,159,484,272,
0,454,548,159,480,271,
0,449,542,158,475,268,
0,445,536,156,470,265,
0,440,529,156,514,263,
0,460,549,154,515,260,
0,455,542,153,510,258,
0,451,536,155,504,263,
0,446,529,153,499,260,
0,441,524,152,493,258,
0,436,516,152,487,255,
0,432,511,150,481,254,
0,428,505,149,476,252,
0,423,500,147,472,249,
0,419,500,147,519,248,
0,465,548,146,513,244,
0,460,541,145,508,243,
0,455,535,159,502,243,
0,451,528,159,497,243,
0,446,523,158,492,264,
0,441,515,156,485,263,
0,437,509,155,480,260,
0,432,504,153,475,258,
0,428,498,152,470,255,
0,423,620,151,523,254,
0,478,678,150,516,251,
0,473,668,148,510,273,
0,467,659,162,504,270,
0,463,649,160,499,268,
0,457,639,159,494,265,
0,453,632,158,487,263,
0,448,624,156,482,260,
0,444,615,156,477,258,
0,440,608,154,472,255,
0,435,638,153,511,254,
0,463,629,152,505,251,
0,457,620,150,499,249,
0,453,613,149,494,248,
0,448,605,148,489,283,
0,444,596,147,483,280,
0,439,589,145,478,277,
0,435,583,144,472,275,
0,431,575,143,467,271,
0,426,569,143,463,270,
0,451,620,142,510,268,
0,451,611,140,504,263,
0,447,603,142,499,263,
0,441,595,140,492,260,
0,438,588,140,487,269,
0,433,579,139,483,267,
0,428,572,137,476,264,
0,423,566,136,472,262,
0,420,560,135,467,259,
0,416,553,135,508,257,
0,459,547,134,515,255,
0,452,542,133,509,253,
0,448,536,152,504,251,
0,444,530,151,498,248,
0,439,524,150,493,267,
0,434,518,148,487,263,
0,430,512,147,481,262,
0,425,507,146,476,259,
0,422,502,145,472,257,
0,417,497,143,516,255,
0,465,516,145,510,254,
0,460,510,144,504,251,
0,455,504,143,498,248,
0,450,499,142,493,246,
0,446,493,141,487,246,
0,441,487,140,483,243,
0,436,483,139,476,241,
0,432,478,137,472,240,
0,428,473,136,467,238,
0,423,551,135,499,236,
0,436,577,135,493,234,
0,432,569,134,487,237,
0,427,563,133,483,235,
0,423,556,131,478,268,
0,419,550,131,472,264,
0,415,541,129,467,263,
0,411,536,129,462,259,
0,408,529,127,457,257,
0,403,524,127,452,255,
0,399,583,126,508,253,
0,472,574,125,503,251,
0,467,567,134,497,248,
0,462,560,156,492,247,
0,457,553,155,487,263,
0,452,547,153,481,260,
0,448,539,152,476,258,
0,444,532,151,470,255,
0,439,527,150,465,254,
0,434,520,148,460,252,
0,430,575,147,508,249,
0,462,568,145,502,247,
0,457,561,158,496,246,
0,452,553,156,491,243,
0,448,547,155,486,275,
0,443,541,153,480,272,
0,439,533,152,475,270,
0,434,527,151,470,268,
0,430,520,150,464,265,
0,425,515,148,498,263,
0,448,567,147,512,260,
0,465,560,146,506,259,
0,460,552,145,500,255,
0,455,546,143,496,254,
0,450,540,142,490,252,
0,446,533,142,484,249,
0,441,526,140,479,248,
0,436,519,139,473,245,
0,432,514,138,468,243,
0,428,519,137,512,241,
0,487,622,135,505,239,
0,479,614,135,499,238,
0,473,605,134,495,235,
0,468,598,133,489,233,
0,463,590,131,484,247,
0,459,583,131,479,243,
0,455,574,129,472,241,
0,449,568,129,468,240,
0,446,561,127,463,238,
0,441,555,127,512,236,
0,452,548,126,505,233,
0,446,543,125,499,237,
0,441,536,147,495,235,
0,437,531,146,489,260,
0,432,524,145,484,257,
0,428,519,143,479,255,
0,423,512,142,472,252,
0,420,507,141,467,251,
0,415,502,140,463,248,
0,413,579,139,515,246,
0,465,570,137,508,243,
0,458,563,136,503,241,
0,454,556,141,497,240,
0,449,550,140,492,265,
0,444,543,138,487,263,
0,440,536,137,481,259,
0,435,529,135,476,257,
0,431,524,135,471,255,
0,427,518,134,466,253,
0,423,536,133,519,251,
0,462,529,132,513,249,
0,455,523,153,508,263,
0,451,517,152,503,261,
0,447,511,150,497,259,
0,442,505,149,492,255,
0,438,500,147,487,254,
0,433,494,146,480,252,
0,429,488,145,475,249,
0,424,483,143,504,248,
0,431,592,143,519,246,
0,455,583,142,512,243,
0,448,577,146,507,271,
0,444,569,145,502,269,
0,440,563,143,496,286,
0,435,556,143,491,283,
0,430,550,142,486,280,
0,426,542,140,480,278,
0,422,536,139,475,275,
0,418,530,138,527,273,
0,449,542,137,519,271,
0,448,535,135,513,268,
0,441,528,157,508,269,
0,438,523,156,503,267,
0,433,517,154,497,287,
0,428,511,152,492,284,
0,423,505,152,487,281,
0,420,499,151,480,279,
0,415,494,149,476,276,
0,412,529,148,516,274,
0,440,535,147,510,271,
0,435,527,145,504,269,
0,429,521,159,499,267,
0,424,515,158,494,284,
0,420,510,156,487,281,
0,415,504,155,483,279,
0,412,499,153,478,276,
0,408,492,152,472,273,
0,404,487,152,467,271,
0,401,569,150,510,269,
0,465,561,148,504,267,
0,458,553,147,499,263,
0,454,547,146,493,262,
0,448,540,145,487,259,
0,444,534,143,483,257,
0,440,527,143,477,255,
0,435,522,142,472,253,
0,431,515,140,467,251,
0,426,509,140,462,248,
0,423,539,138,511,247,
0,459,531,137,504,245,
0,452,525,135,499,243,
0,448,519,142,494,240,
0,444,513,141,489,271,
0,440,507,140,483,268,
0,435,502,139,479,265,
0,430,496,137,473,263,
0,426,489,136,467,261,
0,422,484,135,484,259,
0,428,558,135,504,255,
0,455,550,137,499,254,
0,450,543,145,493,252,
0,445,536,143,487,249,
0,440,531,143,483,265,
0,436,524,142,478,263,
0,432,519,140,472,260,
0,428,512,139,467,257,
0,423,505,138,462,255,
0,419,501,137,508,254,
0,446,608,135,500,251,
0,452,600,135,496,249,
0,446,591,141,489,248,
0,441,584,139,484,244,
0,437,577,137,480,267,
0,432,571,137,475,263,
0,428,564,135,470,262,
0,423,558,135,464,259,
0,419,550,134,459,257,
0,415,578,132,511,255,
0,440,582,155,504,252,
0,435,574,153,499,250,
0,430,568,156,493,252,
0,424,560,155,487,275,
0,420,553,153,483,283,
0,416,547,152,478,280,
0,412,540,152,472,278,
0,408,534,150,467,275,
0,404,527,148,462,272,
0,401,540,147,531,270,
0,472,534,146,524,268,
0,467,527,145,518,265,
0,460,520,145,512,263,
0,455,515,143,507,282,
0,451,510,143,501,280,
0,446,504,142,496,276,
0,441,499,140,491,274,
0,437,492,139,486,271,
0,432,487,138,480,269,
0,428,521,137,513,267,
0,449,515,138,508,263,
0,444,509,136,503,263,
0,438,503,143,496,260,
0,433,497,141,492,286,
0,430,492,140,486,283,
0,425,486,139,481,280,
0,421,481,137,476,278,
0,417,475,135,472,275,
0,413,471,135,481,273,
0,412,611,134,508,271,
0,451,604,158,502,268,
0,447,595,159,496,265,
0,440,588,157,491,263,
0,436,581,156,486,263,
0,432,574,155,480,262,
0,427,568,153,476,259,
0,423,560,152,471,257,
0,419,552,151,466,255,
0,415,546,150,509,253,
0,452,613,148,503,251,
0,448,605,147,497,248,
0,443,598,147,492,275,
0,437,590,145,486,273,
0,432,583,143,481,307,
0,428,575,143,476,304,
0,423,568,142,472,302,
0,419,562,140,466,299,
0,415,554,139,461,295,
0,412,560,139,508,294,
0,463,571,137,502,291,
0,458,563,135,496,288,
0,453,556,147,491,286,
0,448,550,146,486,284,
0,443,543,145,480,307,
0,438,537,143,476,305,
0,434,531,142,471,302,
0,430,526,141,465,299,
0,425,519,140,461,295,
0,421,547,139,508,294,
0,465,540,137,502,291,
0,460,533,136,496,288,
0,455,527,143,491,286,
0,449,520,141,486,284,
0,445,515,140,480,289,
0,440,509,139,475,287,
0,436,504,137,470,284,
0,432,499,136,465,281,
0,428,492,135,460,280,
0,423,563,135,508,278,
0,449,556,162,503,275,
0,444,549,160,497,272,
0,440,542,163,492,271,
0,434,536,162,487,303,
0,430,529,161,481,299,
0,425,524,159,476,295,
0,422,518,158,472,294,
0,417,512,157,467,291,
0,413,505,156,465,287,
0,414,583,155,492,286,
0,470,575,153,487,283,
0,463,568,164,482,280,
0,459,561,169,476,278,
0,454,555,167,472,294,
0,448,547,166,467,290,
0,444,541,164,462,287,
0,440,536,163,457,284,
0,435,529,162,453,282,
0,431,522,161,507,280,
0,462,618,159,502,278,
0,461,610,158,496,275,
0,455,602,167,490,272,
0,451,595,166,485,271,
0,446,587,163,480,291,
0,440,580,163,475,287,
0,436,574,161,470,284,
0,432,567,159,465,282,
0,428,560,159,460,280,
0,423,569,158,512,277,
0,463,598,156,505,275,
0,459,590,155,499,271,
0,454,583,159,494,270,
0,449,575,158,489,268,
0,443,568,156,483,265,
0,439,561,155,479,263,
0,434,555,153,473,261,
0,430,548,152,468,259,
0,425,542,151,463,255,
0,422,552,150,507,255,
0,455,545,148,500,252,
0,449,539,147,495,251,
0,444,532,179,489,253,
0,440,527,177,484,257,
0,434,521,175,480,289,
0,430,515,174,474,286,
0,425,510,172,470,284,
0,422,504,171,464,281,
0,417,499,169,460,279,
0,414,494,167,511,276,
0,455,487,167,505,273,
0,451,483,166,499,271,
0,446,478,166,495,269,
0,442,473,164,489,284,
0,436,469,163,484,280,
0,432,464,161,479,278,
0,428,460,159,474,275,
0,423,455,159,469,273,
0,419,451,158,464,271,
0,422,658,156,500,268,
0,487,647,155,495,266,
0,481,638,154,489,263,
0,476,630,153,484,262,
0,471,622,152,479,292,
0,464,614,151,473,287,
0,460,606,150,469,286,
0,455,600,148,464,283,
0,451,591,147,460,280,
0,446,585,146,455,278,
0,462,605,145,502,275,
0,465,597,143,496,273,
0,461,590,156,491,271,
0,455,583,154,486,268,
0,451,575,153,480,304,
0,446,569,152,476,300,
0,441,563,150,471,297,
0,436,556,149,465,295,
0,432,550,147,461,292,
0,428,543,147,496,290,
0,466,617,145,500,287,
0,460,609,144,494,285,
0,455,601,143,488,283,
0,451,593,143,483,280,
0,447,587,142,479,297,
0,440,579,140,473,294,
0,436,572,140,468,291,
0,432,566,139,463,288,
0,428,560,137,459,286,
0,423,553,135,509,283,
0,464,547,135,501,280,
0,459,541,135,496,278,
0,454,536,137,490,275,
0,449,529,135,485,273,
0,444,524,135,480,283,
0,439,519,134,475,280,
0,435,513,132,470,277,
0,431,508,131,465,275,
0,426,503,131,460,272,
0,423,548,129,518,270,
0,466,556,129,510,268,
0,461,550,127,504,265,
0,455,543,136,499,263,
0,451,536,135,494,283,
0,445,530,135,487,280,
0,440,524,133,483,276,
0,436,518,132,478,274,
0,432,512,131,473,271,
0,428,507,130,468,270,
0,423,536,129,524,267,
0,451,527,127,516,264,
0,446,522,134,511,279,
0,441,515,148,504,276,
0,437,510,148,499,281,
0,432,504,162,494,280,
0,428,499,159,488,276,
0,423,494,159,483,273,
0,419,488,157,479,271,
0,415,483,156,473,269,
0,451,493,155,525,267,
0,467,486,153,518,263,
0,462,481,153,512,262,
0,457,476,152,505,259,
0,452,472,151,500,293,
0,447,467,150,496,290,
0,442,462,148,490,287,
0,438,457,147,485,284,
0,433,454,146,480,281,
0,429,449,145,510,280,
0,463,487,143,518,276,
0,459,480,143,511,274,
0,454,475,144,504,271,
0,449,470,143,499,270,
0,444,464,142,494,287,
0,439,460,141,488,285,
0,434,455,140,483,281,
0,430,450,139,479,280,
0,425,446,137,473,276,
0,422,441,136,512,275,
0,467,499,135,506,271,
0,462,492,135,499,270,
0,456,487,160,494,268,
0,451,481,159,488,265,
0,447,476,158,483,279,
0,441,471,156,478,275,
0,436,466,155,473,273,
0,432,461,153,468,271,
0,428,455,152,463,268,
0,423,513,151,531,265,
0,456,548,150,524,263,
0,451,542,148,516,262,
0,447,536,147,511,259,
0,442,529,147,505,286,
0,438,523,145,499,283,
0,432,517,144,494,280,
0,428,511,143,489,276,
0,423,505,142,484,274,
0,419,500,141,480,271,
0,415,519,140,520,269,
0,448,511,139,515,267,
0,443,505,138,508,263,
0,438,499,152,502,263,
0,433,494,152,496,278,
0,429,488,150,492,275,
0,423,483,149,486,273,
0,419,479,147,481,270,
0,415,473,146,476,268,
0,412,468,145,472,265,
0,448,510,143,524,263,
0,455,502,143,518,260,
0,450,496,156,510,259,
0,446,491,155,504,255,
0,441,486,153,499,273,
0,436,480,152,494,271,
0,431,475,151,488,268,
0,427,470,149,483,265,
0,423,464,148,479,263,
0,419,460,147,499,261,
0,470,608,145,512,259,
0,465,598,144,506,255,
0,460,590,145,499,254,
0,455,583,143,494,252,
0,451,575,143,488,275,
0,446,569,141,483,273,
0,440,562,140,478,271,
0,435,556,139,473,268,
0,431,550,138,468,265,
0,427,543,137,521,263,
0,451,575,135,514,260,
0,447,566,135,508,259,
0,442,559,162,502,280,
0,437,551,160,496,278,
0,432,545,159,491,291,
0,428,540,158,486,289,
0,423,533,156,480,286,
0,419,527,155,476,283,
0,415,521,153,471,280,
0,412,556,152,518,278,
0,467,576,152,511,275,
0,462,568,150,505,273,
0,457,560,167,498,271,
0,452,553,166,493,270,
0,448,547,164,487,267,
0,443,541,163,483,264,
0,437,535,161,478,263,
0,433,529,159,473,259,
0,428,523,159,468,258,
0,424,560,158,505,255,
0,456,551,156,499,254,
0,451,543,155,492,276,
0,447,537,153,487,273,
0,442,531,153,482,297,
0,438,525,184,477,295,
0,433,519,182,472,292,
0,428,513,180,467,289,
0,423,508,179,463,286,
0,419,503,177,458,284,
0,423,573,176,508,281,
0,428,566,174,502,279,
0,423,557,173,495,276,
0,419,550,172,489,274,
0,415,543,171,484,271,
0,412,537,169,480,270,
0,408,531,167,474,267,
0,403,525,166,470,265,
0,399,519,164,464,262,
0,396,513,163,481,260,
0,481,608,162,510,258,
0,482,600,161,504,255,
0,476,591,181,497,254,
0,472,583,179,492,252,
0,467,575,177,487,281,
0,462,569,176,481,279,
0,457,563,175,476,276,
0,451,556,173,472,274,
0,447,550,172,466,271,
0,443,543,170,515,268,
0,468,600,169,509,266,
0,463,591,167,504,263,
0,459,583,167,496,262,
0,454,575,165,491,259,
0,449,568,163,486,292,
0,444,561,163,480,289,
0,440,556,161,476,287,
0,435,549,159,471,283,
0,430,543,159,465,281,
0,427,559,158,506,279,
0,434,575,156,499,275,
0,430,568,155,494,273,
0,425,560,166,487,280,
0,421,553,164,483,307,
0,417,547,166,477,311,
0,413,540,164,472,307,
0,409,535,163,467,305,
0,405,528,161,463,302,
0,401,523,159,458,299,
0,398,624,158,503,295,
0,439,637,157,496,294,
0,433,628,156,491,291,
0,429,618,155,484,288,
0,424,611,153,479,308,
0,420,603,174,473,305,
0,415,595,172,469,303,
0,412,588,171,463,300,
0,408,582,169,460,295,
0,403,575,167,455,294,
0,430,614,166,508,291,
0,463,605,164,503,288,
0,459,598,164,497,305,
0,454,588,163,491,302,
0,448,581,161,486,299,
0,444,574,159,480,295,
0,440,568,159,475,294,
0,435,561,158,470,291,
0,430,555,156,465,287,
0,425,548,155,472,286,
0,437,609,153,499,283,
0,433,600,152,494,280,
0,428,593,152,488,279,
0,423,583,150,481,276,
0,420,577,149,476,316,
0,415,569,147,472,312,
0,412,563,147,467,310,
0,408,556,145,462,307,
0,403,551,144,457,303,
0,399,543,143,505,301,
0,425,567,143,499,297,
0,421,560,142,493,295,
0,417,552,170,487,292,
0,412,544,167,481,291,
0,408,538,186,476,321,
0,404,532,184,472,318,
0,400,527,183,467,315,
0,396,521,181,462,312,
0,392,515,179,457,308,
0,390,532,178,512,306,
0,439,566,176,506,304,
0,433,558,175,500,301,
0,429,551,193,495,298,
0,424,543,192,487,312,
0,420,537,190,483,312,
0,415,531,188,478,309,
0,412,525,187,473,306,
0,408,519,185,468,304,
0,403,513,184,463,300,
0,399,550,182,499,297,
0,396,543,180,494,295,
0,392,536,179,488,292,
0,389,529,177,483,290,
0,385,522,176,476,302,
0,383,516,175,472,300,
0,379,510,174,467,295,
0,376,504,172,462,294,
0,372,499,171,457,291,
0,369,495,169,453,288,
0,387,508,167,502,286,
0,441,501,167,496,283,
0,436,496,166,491,280,
0,432,490,164,486,279,
0,428,484,163,479,304,
0,423,480,162,473,302,
0,419,475,160,469,299,
0,415,470,159,463,295,
0,409,465,158,460,294,
0,406,461,157,463,290,
0,454,544,199,503,287,
0,462,537,199,497,285,
0,456,531,198,492,283,
0,452,524,195,486,280,
0,448,517,194,480,302,
0,443,511,192,475,299,
0,438,505,191,470,295,
0,434,499,189,464,294,
0,428,494,188,460,291,
0,423,489,186,504,287,
0,420,526,184,497,285,
0,416,519,183,492,283,
0,413,513,182,487,285,
0,408,505,180,481,282,
0,405,499,179,475,302,
0,401,494,177,470,299,
0,398,489,176,465,295,
0,394,483,175,460,294,
0,390,479,173,455,291,
0,387,525,172,511,287,
0,414,589,171,504,285,
0,409,581,169,498,283,
0,406,574,167,493,280,
0,401,565,167,487,278,
0,398,559,166,481,275,
0,393,551,164,476,273,
0,390,545,163,472,271,
0,386,540,162,467,269,
0,382,533,160,462,267,
0,379,567,159,519,263,
0,423,559,158,512,262,
0,418,551,157,507,259,
0,414,545,159,501,257,
0,409,537,159,496,289,
0,406,531,193,489,286,
0,402,525,191,483,284,
0,398,519,189,479,281,
0,395,513,188,473,278,
0,390,508,186,469,275,
0,391,572,184,510,273,
0,435,564,183,504,271,
0,431,557,182,499,268,
0,426,550,180,494,265,
0,422,542,182,487,272,
0,417,536,180,482,270,
0,414,529,179,477,268,
0,409,524,177,472,265,
0,406,518,176,467,263,
0,401,512,175,465,261,
0,463,565,173,510,258,
0,480,558,172,504,255,
0,476,551,233,499,255,
0,470,543,255,493,252,
0,464,536,252,487,284,
0,460,530,250,481,280,
0,455,524,248,476,278,
0,451,518,246,472,275,
0,446,512,243,467,273,
0,440,507,241,511,271,
0,437,583,239,504,268,
0,432,575,238,499,265,
0,428,569,236,494,307,
0,423,562,233,488,305,
0,420,553,259,483,302,
0,416,547,255,477,299,
0,412,541,254,472,295,
0,408,535,252,467,294,
0,405,528,249,462,291,
0,400,543,248,511,288,
0,397,574,244,504,286,
0,393,567,243,498,283,
0,390,560,241,493,280,
0,387,552,239,487,279,
0,384,545,290,483,275,
0,380,539,287,476,273,
0,376,532,284,472,271,
0,374,526,281,466,269,
0,370,519,280,462,267,
0,367,606,276,500,264,
0,364,628,274,494,262,
0,360,620,271,489,267,
0,358,611,270,483,266,
0,355,604,268,479,296,
0,352,595,265,472,294,
0,350,588,263,467,291,
0,347,581,262,463,287,
0,344,574,260,458,286,
0,342,568,258,454,283,
0,350,561,255,500,280,
0,451,555,254,495,278,
0,446,548,252,489,275,
0,441,542,250,484,273,
0,436,536,263,480,308,
0,432,529,262,472,305,
0,428,524,259,467,303,
0,423,518,255,463,300,
0,419,512,254,458,296,
0,415,507,252,454,295,
0,455,600,290,508,291,
0,470,591,361,503,288,
0,465,583,423,497,292,
0,460,575,419,492,290,
0,455,569,415,487,312,
0,451,560,410,480,310,
0,446,554,406,475,307,
0,441,547,403,470,304,
0,437,542,399,465,301,
0,432,536,395,508,299,
0,428,530,391,515,295,
0,423,524,387,509,292,
0,419,519,384,504,290,
0,415,513,380,498,287,
0,412,508,377,492,304,
0,408,500,374,486,302,
0,404,496,371,481,299,
0,400,491,368,476,295,
0,396,486,364,472,294,
0,393,493,362,513,291,
0,459,558,358,507,287,
0,452,551,355,502,286,
0,448,543,352,496,283,
0,443,537,350,491,280,
0,439,531,347,486,281,
0,434,524,344,479,280,
0,430,518,341,474,276,
0,425,512,339,470,275,
0,422,507,408,464,271,
0,417,504,403,505,270,
0,413,497,566,499,267,
0,408,492,557,494,291,
0,405,487,550,488,287,
0,401,482,543,483,317,
0,398,477,537,478,313,
0,393,472,531,472,310,
0,391,467,526,467,307,
0,387,462,521,462,304,
0,384,457,515,457,302,
0,380,454,511,515,299,
0,376,449,526,508,295,
0,374,445,739,503,294,
0,370,440,731,497,291,
0,367,437,721,492,303,
0,364,433,711,487,300,
0,360,428,702,480,297,
0,358,424,692,476,295,
0,355,421,684,471,292,
0,352,417,676,465,290,
0,350,583,668,514,287,
0,346,575,771,508,284,
0,344,568,760,503,281,
0,340,561,750,497,280,
0,338,555,739,492,297,
0,335,547,729,487,295,
0,333,540,719,480,292,
0,330,534,711,475,289,
0,327,527,702,471,287,
0,326,522,694,504,284,
0,323,516,685,515,281,
0,336,511,675,510,279,
0,334,505,667,504,277,
0,331,499,659,499,275,
0,327,495,652,493,312,
0,324,489,644,487,310,
0,322,483,638,481,307,
0,319,479,631,476,304,
0,317,473,624,472,301,
0,315,520,617,504,299,
0,403,617,611,497,295,
0,398,609,603,492,292,
0,393,601,596,487,290,
0,390,593,590,481,287,
0,386,586,583,476,319,
0,382,579,579,472,317,
0,379,571,572,465,313,
0,376,564,568,460,312,
0,371,558,561,455,308,
0,368,622,556,510,305,
0,393,639,551,504,303,
0,390,631,543,497,300,
0,385,622,539,492,296,
0,382,615,560,487,330,
0,379,607,616,481,326,
0,375,600,609,477,323,
0,371,591,601,471,319,
0,368,583,595,466,317,
0,364,576,588,461,313,
0,361,583,582,508,312,
0,417,575,575,502,308,
0,412,568,568,496,305,
0,408,561,561,491,302,
0,404,556,556,486,300,
0,399,549,550,480,297,
0,396,543,543,476,295,
0,392,536,538,470,292,
0,388,529,532,464,289,
0,385,524,527,460,287,
0,382,572,523,515,285,
0,377,564,518,508,283,
0,374,558,512,503,311,
0,371,551,508,497,307,
0,368,543,504,492,305,
0,364,537,499,487,302,
0,361,531,494,481,299,
0,358,524,489,476,296,
0,355,519,486,471,294,
0,352,513,482,499,291,
0,350,623,478,522,289,
0,410,614,473,516,287,
0,406,607,504,511,284,
0,401,599,498,505,281,
0,399,591,580,499,294,
0,394,583,572,494,291,
0,390,575,566,489,287,
0,387,568,559,483,286,
0,384,562,553,478,283,
0,380,556,547,521,280,
0,376,584,541,515,278,
0,371,577,536,508,275,
0,368,570,527,503,273,
0,365,563,523,497,271,
0,361,556,518,492,319,
0,359,551,512,487,317,
0,355,543,507,482,314,
0,352,536,502,476,312,
0,350,531,560,472,308,
0,347,597,707,516,306,
0,462,671,793,510,303,
0,455,662,782,504,300,
0,451,653,768,499,300,
0,446,644,757,493,319,
0,441,636,747,487,317,
0,437,628,870,483,313,
0,432,619,854,478,311,
0,428,611,841,472,307,
0,423,604,828,467,305,
0,420,598,817,518,303,
0,444,590,806,511,300,
0,438,583,794,505,297,
0,433,575,780,499,294,
0,429,569,771,495,327,
0,424,563,853,489,323,
0,420,558,894,484,320,
0,416,550,878,479,318,
0,412,543,864,472,315,
0,408,537,851,467,312,
0,405,598,839,511,309,
0,448,590,826,504,306,
0,443,583,898,499,304,
0,438,575,910,494,300,
0,433,568,914,487,312,
0,428,561,915,483,308,
0,423,555,903,478,306,
0,420,547,882,473,303,
0,415,540,868,467,300,
0,412,535,856,487,298,
0,408,539,844,510,295,
0,404,532,831,504,293,
0,399,527,891,499,323,
0,396,521,908,494,318,
0,392,515,913,487,316,
0,390,511,914,483,312,
0,385,505,902,478,310,
0,383,499,881,472,307,
0,379,494,867,467,304,
0,376,489,855,522,302,
0,372,542,843,515,299,
0,369,536,830,509,295,
0,366,529,894,504,294,
0,363,523,909,498,291,
0,359,516,911,492,304,
0,356,511,903,487,301,
0,354,505,882,483,298,
0,351,498,868,478,295,
0,348,493,856,472,292,
0,345,519,844,532,291,
0,423,620,831,525,287,
0,418,611,819,519,286,
0,412,604,822,514,284,
0,408,596,903,508,302,
0,404,589,911,503,301,
0,400,582,915,497,299,
0,396,575,918,492,295,
0,392,567,913,486,293,
0,389,560,889,480,290,
0,385,648,876,528,287,
0,560,696,901,521,285,
0,568,686,910,515,283,
0,560,676,905,510,280,
0,553,668,884,504,307,
0,547,659,871,499,304,
0,540,651,857,494,302,
0,535,642,903,488,299,
0,529,632,911,482,295,
0,524,625,915,478,293,
0,519,696,918,513,291,
0,513,684,918,507,287,
0,508,675,905,502,286,
0,502,666,878,496,283,
0,496,657,865,491,297,
0,492,648,852,486,295,
0,487,639,905,480,292,
0,482,632,907,476,289,
0,477,623,895,470,287,
0,473,615,909,483,284,
0,468,608,913,516,281,
0,463,601,908,511,280,
0,460,594,887,504,278,
0,455,588,868,499,275,
0,451,582,856,494,303,
0,446,575,844,489,300,
0,443,568,831,483,296,
0,439,562,819,479,294,
0,435,555,807,472,291,
0,431,598,863,515,289,
0,427,679,905,508,286,
0,423,670,900,503,284,
0,419,662,882,497,281,
0,415,652,864,492,278,
0,412,644,852,487,311,
0,408,636,839,481,307,
0,404,628,827,476,304,
0,400,620,815,472,302,
0,398,611,891,465,299,
0,395,694,909,526,296,
0,391,716,913,519,294,
0,387,705,911,513,291,
0,384,696,892,508,289,
0,380,687,873,502,307,
0,377,677,860,497,316,
0,375,668,847,492,313,
0,371,659,835,486,310,
0,368,652,824,481,307,
0,366,641,812,475,305,
0,363,750,801,524,302,
0,444,771,843,517,299,
0,439,760,830,511,295,
0,434,748,817,505,294,
0,428,737,803,499,332,
0,423,728,792,495,327,
0,420,718,781,489,324,
0,415,707,771,484,321,
0,412,699,894,480,319,
0,408,688,883,473,316,
0,404,679,868,527,312,
0,400,670,855,521,310,
0,396,662,842,515,307,
0,393,654,893,510,304,
0,389,646,900,504,323,
0,385,638,910,499,319,
0,382,631,908,494,316,
0,379,623,889,488,314,
0,376,615,908,483,311,
0,371,608,913,489,308,
0,368,619,918,531,305,
0,423,611,919,525,303,
0,419,603,918,519,300,
0,414,596,899,513,297,
0,409,590,876,508,318,
0,404,583,863,503,315,
0,401,576,850,497,312,
0,397,571,838,492,310,
0,393,564,826,487,307,
0,390,558,815,536,304,
0,387,652,895,529,301,
0,423,643,908,524,298,
0,419,635,914,518,295,
0,414,626,917,512,293,
0,409,619,920,507,332,
0,406,611,920,501,327,
0,401,604,914,496,326,
0,398,595,888,491,323,
0,395,589,873,486,319,
0,391,636,861,527,316,
0,387,739,847,519,313,
0,384,728,835,514,311,
0,380,717,824,508,308,
0,376,707,812,504,305,
0,372,697,799,497,332,
0,369,688,788,492,327,
0,366,679,777,487,324,
0,363,671,768,483,321,
0,359,662,761,478,319,
0,357,652,752,523,316,
0,354,644,742,516,313,
0,352,636,732,511,311,
0,348,628,724,505,307,
0,345,620,716,500,305,
0,344,614,894,495,309,
0,340,606,885,489,306,
0,337,600,871,484,304,
0,335,592,857,479,300,
0,332,586,844,474,298,
0,331,694,831,512,295,
0,327,683,850,506,293,
0,325,673,905,500,291,
0,323,664,911,495,287,
0,319,655,909,489,286,
0,318,647,883,484,283,
0,315,639,870,480,280,
0,312,632,856,475,278,
0,311,624,844,470,276,
0,308,615,831,465,274,
0,306,607,820,513,271,
0,307,600,809,507,270,
0,304,591,798,502,268,
0,302,585,787,496,265,
0,300,579,776,491,265,
0,297,572,764,486,262,
0,295,566,754,480,260,
0,294,560,744,476,258,
0,291,555,736,471,255,
0,289,547,727,466,255,
0,301,643,718,513,252,
0,363,634,709,507,251,
0,359,625,701,502,278,
0,355,617,693,496,275,
0,352,610,685,491,286,
0,348,603,675,486,282,
0,344,595,668,480,280,
0,342,588,660,476,277,
0,339,581,654,471,275,
0,335,615,647,505,272,
0,338,644,639,515,270,
0,335,636,633,508,268,
0,332,627,627,504,284,
0,328,619,620,497,281,
0,326,611,614,492,299,
0,323,604,606,487,295,
0,319,596,600,482,292,
0,317,589,594,477,289,
0,315,583,671,472,287,
0,312,633,674,531,284,
0,408,637,665,523,281,
0,415,628,656,516,280,
0,412,620,648,511,280,
0,408,612,639,505,279,
0,402,605,819,499,307,
0,398,598,906,495,303,
0,394,590,912,489,300,
0,391,583,913,484,297,
0,387,575,900,480,295,
0,384,568,880,523,291,
0,396,561,867,515,289,
0,398,556,854,510,287,
0,394,549,841,504,284,
0,391,543,829,499,313,
0,385,537,814,492,310,
0,382,531,803,487,306,
0,379,527,792,483,303,
0,376,521,782,478,300,
0,371,516,771,472,298,
0,368,600,761,519,295,
0,365,592,752,512,292,
0,361,585,743,506,290,
0,359,578,888,500,287,
0,355,571,905,495,285,
0,352,563,888,490,283,
0,349,557,872,484,280,
0,346,551,860,480,277,
0,344,544,846,475,275,
0,340,539,834,471,273,
0,337,651,822,515,270,
0,335,641,811,507,268,
0,332,633,799,501,315,
0,329,625,788,496,312,
0,327,617,778,491,327,
0,323,609,764,486,324,
0,321,601,755,480,320,
0,319,595,745,476,318,
0,316,588,736,471,315,
0,313,581,728,497,312,
0,448,736,718,516,309,
0,467,724,710,509,307,
0,462,714,736,504,304,
0,455,704,726,497,301,
0,451,695,716,492,330,
0,446,686,704,487,327,
0,441,676,696,483,323,
0,436,668,688,477,319,
0,432,659,679,472,317,
0,428,652,672,519,314,
0,424,704,665,511,312,
0,421,695,657,505,308,
0,417,686,705,499,306,
0,413,675,828,494,303,
0,409,667,815,488,329,
0,404,658,799,483,326,
0,400,650,788,479,322,
0,397,641,777,473,319,
0,393,634,767,468,316,
0,391,649,756,519,313,
0,423,662,747,511,310,
0,418,653,736,506,307,
0,414,644,727,500,305,
0,409,636,718,496,315,
0,406,628,709,489,312,
0,400,620,698,484,308,
0,397,613,691,480,304,
0,393,606,682,475,302,
0,390,600,674,470,300,
0,386,637,667,527,296,
0,383,626,658,519,295,
0,380,618,651,515,291,
0,376,610,747,509,289,
0,372,603,736,504,310,
0,369,595,724,498,307,
0,366,588,712,492,304,
0,363,582,704,487,300,
0,359,575,695,483,297,
0,356,569,686,478,295,
0,354,563,676,527,292,
0,352,556,668,519,290,
0,348,550,660,515,287,
0,345,543,652,509,285,
0,343,538,646,504,302,
0,340,532,638,498,299,
0,336,527,677,493,295,
0,334,521,742,487,292,
0,332,516,732,483,290,
0,328,511,722,502,287,
0,402,577,711,526,285,
0,398,568,702,519,282,
0,393,561,694,513,280,
0,390,555,684,507,278,
0,386,547,676,502,306,
0,382,542,668,496,303,
0,377,536,657,492,300,
0,374,529,649,486,296,
0,371,524,643,481,294,
0,368,542,636,521,291,
0,364,595,628,515,289,
0,361,585,621,508,287,
0,358,578,615,502,284,
0,355,572,608,496,283,
0,352,564,602,491,319,
0,348,558,596,486,316,
0,344,551,588,480,312,
0,342,545,583,476,308,
0,339,539,577,471,306,
0,336,598,572,536,304,
0,486,683,567,527,300,
0,480,671,711,521,298,
0,475,662,856,515,295,
0,469,653,841,510,313,
0,464,644,829,504,310,
0,460,636,816,499,307,
0,454,628,802,494,303,
0,449,621,791,487,300,
0,444,614,780,483,297,
0,440,775,769,521,295,
0,477,779,759,515,292,
0,472,764,749,508,291,
0,467,753,739,503,288,
0,462,742,730,497,289,
0,457,732,721,492,287,
0,452,721,711,487,284,
0,447,711,701,481,281,
0,442,703,693,477,280,
0,438,693,684,472,277,
0,435,773,676,515,274,
0,443,760,668,510,271,
0,438,747,660,503,283,
0,433,736,654,497,280,
0,430,726,647,492,277,
0,425,716,639,487,275,
0,420,706,632,481,271,
0,416,696,624,477,270,
0,412,688,662,472,268,
0,408,679,749,486,265,
0,405,692,738,518,263,
0,404,683,728,512,261,
0,401,671,718,505,287,
0,397,664,708,499,284,
0,393,655,700,494,300,
0,391,647,691,489,295,
0,386,639,681,484,294,
0,383,632,671,479,290,
0,380,624,664,474,287,
0,376,617,655,524,285,
0,374,632,647,517,283,
0,370,624,639,511,280,
0,367,615,633,504,278,
0,364,608,626,499,275,
0,361,600,743,493,291,
0,358,593,733,487,289,
0,355,587,723,483,286,
0,352,580,711,478,283,
0,349,574,702,473,280,
0,346,582,692,524,279,
0,368,620,684,517,275,
0,364,611,675,511,273,
0,359,601,775,504,271,
0,356,594,764,499,292,
0,353,587,753,493,291,
0,350,580,743,487,288,
0,347,573,732,483,286,
0,344,567,720,478,283,
0,340,560,711,473,280,
0,338,655,702,521,278,
0,387,657,694,515,275,
0,384,648,684,510,330,
0,379,638,676,503,334,
0,376,630,668,497,330,
0,371,622,660,492,327,
0,368,614,652,487,323,
0,364,607,645,481,321,
0,360,600,636,476,317,
0,358,591,628,472,315,
0,355,632,622,518,312,
0,430,622,615,511,308,
0,425,612,608,505,363,
0,420,604,601,499,359,
0,416,597,595,494,376,
0,412,590,590,487,372,
0,408,583,583,483,368,
0,403,575,577,478,365,
0,399,569,571,473,360,
0,396,563,566,480,358,
0,391,615,560,524,354,
0,388,607,555,518,351,
0,385,598,550,512,348,
0,382,590,543,505,344,
0,379,583,539,499,376,
0,375,575,535,494,372,
0,371,568,529,489,369,
0,368,562,524,484,365,
0,364,556,519,479,361,
0,361,550,515,521,358,
0,465,628,510,513,355,
0,486,620,505,508,352,
0,480,609,500,503,348,
0,476,601,496,496,345,
0,471,594,492,490,345,
0,465,587,487,485,342,
0,460,580,484,480,339,
0,455,573,480,475,335,
0,451,567,475,470,332,
0,447,593,472,526,330,
0,514,648,467,519,327,
0,507,639,463,513,323,
0,502,629,460,508,321,
0,496,621,455,500,332,
0,491,614,452,496,339,
0,486,606,449,490,335,
0,481,599,445,485,332,
0,475,591,440,480,329,
0,470,583,438,475,326,
0,465,655,434,527,323,
0,497,687,431,519,319,
0,492,677,427,515,317,
0,486,665,423,508,315,
0,481,656,420,502,312,
0,476,648,417,496,310,
0,472,639,415,491,307,
0,467,632,411,486,304,
0,461,624,408,481,302,
0,455,616,404,476,299,
0,451,630,401,520,296,
0,543,621,399,514,294,
0,536,612,396,508,291,
0,529,604,392,503,289,
0,524,596,390,496,327,
0,518,590,387,491,324,
0,512,583,384,486,321,
0,507,575,382,480,319,
0,500,569,378,476,316,
0,496,563,376,472,312,
0,491,678,373,519,310,
0,487,668,370,513,307,
0,482,659,368,508,304,
0,477,647,365,502,302,
0,472,639,363,496,337,
0,467,632,359,489,335,
0,463,624,358,485,331,
0,459,615,355,480,327,
0,454,608,352,475,325,
0,449,601,350,523,321,
0,445,594,348,520,319,
0,441,588,344,515,316,
0,437,581,366,509,313,
0,433,572,361,502,311,
0,429,566,359,497,314,
0,425,559,355,492,312,
0,422,553,352,486,308,
0,417,547,349,481,306,
0,413,542,345,476,303,
0,409,536,343,510,300,
0,417,574,340,504,297,
0,413,567,337,497,295,
0,409,560,335,492,292,
0,405,551,333,486,299,
0,401,544,331,480,315,
0,398,538,328,476,312,
0,395,532,327,471,308,
0,391,527,324,465,306,
0,387,521,321,462,304,
0,384,568,319,512,300,
0,412,580,318,505,297,
0,408,572,316,499,295,
0,403,566,313,494,292,
0,399,558,311,487,289,
0,396,551,310,483,287,
0,391,543,307,478,285,
0,388,538,305,472,283,
0,384,531,304,467,280,
0,380,526,301,463,279,
0,377,635,299,508,275,
0,387,625,297,503,273,
0,383,616,295,497,276,
0,379,609,294,492,273,
0,376,600,305,484,293,
0,372,592,334,480,290,
0,369,584,331,475,287,
0,366,578,327,470,284,
0,363,571,324,465,282,
0,359,564,321,460,280,
0,357,647,318,514,276,
0,354,639,446,508,274,
0,352,630,440,503,273,
0,348,622,435,497,271,
0,345,612,430,491,293,
0,344,604,425,486,291,
0,340,597,422,480,287,
0,337,590,418,475,285,
0,335,583,414,470,283,
0,332,575,409,507,280,
0,454,672,406,507,277,
0,471,663,401,500,275,
0,465,654,398,496,299,
0,460,646,451,490,295,
0,455,635,446,483,293,
0,451,627,440,479,291,
0,446,619,436,473,287,
0,441,611,432,468,286,
0,437,604,428,463,283,
0,432,597,423,513,280,
0,428,590,419,507,278,
0,423,583,415,500,275,
0,419,575,411,496,272,
0,415,569,408,489,271,
0,412,561,403,483,280,
0,408,556,399,479,276,
0,404,550,396,473,275,
0,400,543,392,468,271,
0,397,537,390,463,270,
0,393,572,385,507,267,
0,416,591,382,500,265,
0,412,583,379,495,263,
0,408,575,376,489,260,
0,404,568,372,484,299,
0,399,560,369,478,295,
0,396,553,366,473,292,
0,391,547,363,468,290,
0,389,541,359,463,287,
0,385,536,357,459,284,
0,414,641,353,516,281,
0,563,638,351,510,280,
0,555,630,348,504,276,
0,548,621,345,499,274,
0,543,614,343,494,271,
0,536,604,339,487,270,
0,531,596,337,482,268,
0,525,590,335,477,265,
0,519,583,332,472,263,
0,512,575,329,467,261,
0,508,689,327,511,258,
0,536,679,323,504,255,
0,531,669,321,499,254,
0,524,660,319,494,252,
0,519,652,316,488,295,
0,513,641,314,482,293,
0,508,633,312,477,290,
0,503,625,310,472,287,
0,497,617,307,467,285,
0,491,611,305,501,283,
0,487,604,303,515,280,
0,482,596,300,508,276,
0,478,590,298,504,275,
0,472,583,295,497,271,
0,468,575,294,492,297,
0,463,568,292,486,294,
0,460,561,290,480,291,
0,455,556,287,476,288,
0,451,550,287,472,286,
0,446,543,285,522,284,
0,442,595,283,515,280,
0,438,588,280,510,278,
0,434,580,279,504,275,
0,430,573,277,499,273,
0,427,565,289,494,305,
0,423,558,313,487,303,
0,419,551,310,481,300,
0,415,545,307,476,297,
0,412,539,304,472,295,
0,408,572,302,511,291,
0,437,574,299,504,289,
0,432,567,295,499,286,
0,428,560,294,494,284,
0,423,552,291,487,307,
0,419,546,288,483,303,
0,415,538,286,476,300,
0,412,532,284,472,297,
0,408,526,281,467,295,
0,403,521,280,462,292,
0,399,596,278,515,289,
0,396,588,275,508,287,
0,392,580,371,503,284,
0,390,573,367,497,281,
0,386,566,364,492,279,
0,384,558,359,487,276,
0,380,551,356,480,275,
0,376,544,353,475,272,
0,374,539,350,471,270,
0,371,532,347,465,268,
0,388,652,344,524,265,
0,410,641,340,518,263,
0,406,633,337,511,261,
0,401,624,335,505,259,
0,398,616,332,500,257,
0,393,607,328,495,255,
0,390,600,326,488,253,
0,387,592,323,483,251,
0,383,585,321,478,248,
0,379,578,318,499,248,
0,375,572,316,515,246,
0,371,566,312,508,243,
0,368,559,310,503,241,
0,365,552,307,497,240,
0,363,547,304,492,265,
0,359,539,303,487,263,
0,356,532,300,481,260,
0,354,527,297,476,258,
0,351,521,295,471,255,
0,348,516,293,513,254,
0,408,635,290,507,252,
0,403,625,287,501,248,
0,399,617,286,496,247,
0,395,609,284,491,244,
0,391,602,281,486,263,
0,387,593,280,480,260,
0,384,585,278,473,258,
0,380,579,275,469,255,
0,377,572,273,463,254,
0,374,659,271,512,252,
0,438,726,270,506,249,
0,432,716,268,500,247,
0,428,705,266,495,244,
0,423,696,263,489,268,
0,419,686,263,484,265,
0,415,675,262,480,263,
0,411,666,259,473,260,
0,407,658,258,468,257,
0,403,649,257,463,255,
0,399,649,255,499,253,
0,399,641,253,494,252,
0,396,633,252,487,248,
0,391,625,251,483,247,
0,388,617,248,478,261,
0,385,611,247,473,259,
0,382,601,246,467,255,
0,378,595,244,462,254,
0,375,588,243,457,252,
0,371,582,241,453,249,
0,368,673,240,506,248,
0,391,663,238,500,245,
0,387,654,236,495,243,
0,384,645,235,489,240,
0,379,637,233,484,254,
0,376,629,231,479,251,
0,372,619,231,474,248,
0,368,611,230,467,247,
0,365,604,228,463,244,
0,362,597,227,482,243,
0,359,636,226,513,240,
0,393,627,224,507,238,
0,390,620,223,502,259,
0,386,611,222,496,255,
0,383,604,220,491,254,
0,379,596,219,486,252,
0,376,588,217,480,249,
0,371,580,216,475,248,
0,368,574,216,470,245,
0,364,591,215,519,243,
0,361,687,213,512,241,
0,358,676,211,505,239,
0,355,668,210,500,237,
0,352,659,257,495,235,
0,349,651,314,489,240,
0,346,641,311,484,238,
0,344,632,307,478,236,
0,340,624,305,473,234,
0,337,616,302,468,232,
0,335,639,300,527,231,
0,375,666,296,521,230,
0,369,657,294,515,227,
0,365,647,291,510,236,
0,361,639,288,504,235,
0,358,632,342,498,233,
0,355,624,338,493,231,
0,352,614,335,487,229,
0,348,607,332,481,227,
0,345,600,328,477,225,
0,343,647,402,522,224,
0,374,637,396,515,222,
0,368,628,391,510,228,
0,365,620,387,504,237,
0,361,612,384,499,259,
0,358,605,380,494,255,
0,355,598,376,487,254,
0,352,589,373,482,251,
0,348,582,369,477,248,
0,345,575,367,472,247,
0,343,590,364,514,244,
0,369,583,359,508,243,
0,364,575,356,502,240,
0,360,568,361,497,238,
0,357,562,466,492,267,
0,354,556,460,486,263,
0,351,550,455,481,261,
0,348,543,450,475,259,
0,344,537,446,470,257,
0,341,531,441,479,255,
0,364,652,438,516,252,
0,457,643,433,510,249,
0,451,635,428,504,263,
0,446,626,423,499,260,
0,441,618,419,494,258,
0,437,611,415,488,255,
0,432,603,412,483,254,
0,428,593,408,477,252,
0,423,587,405,472,249,
0,419,580,401,519,248,
0,415,603,398,513,245,
0,412,595,395,507,243,
0,408,588,391,502,240,
0,404,580,387,496,239,
0,400,574,384,491,278,
0,397,567,380,486,275,
0,393,560,377,480,273,
0,390,551,374,474,270,
0,386,547,371,470,268,
0,384,559,368,519,265,
0,384,594,365,512,263,
0,382,587,362,507,261,
0,377,579,359,502,258,
0,374,572,355,496,259,
0,371,566,353,491,258,
0,368,559,350,486,255,
0,364,551,348,480,254,
0,361,543,344,475,252,
0,358,538,342,469,249,
0,355,596,339,521,248,
0,391,589,336,515,246,
0,387,582,334,509,243,
0,382,575,331,504,260,
0,377,568,328,498,280,
0,374,560,326,493,275,
0,371,553,323,487,273,
0,367,547,321,483,271,
0,364,540,319,476,268,
0,360,534,316,472,266,
0,358,641,314,514,263,
0,407,632,312,508,262,
0,401,624,310,503,280,
0,396,615,307,497,275,
0,392,608,305,492,291,
0,390,600,302,487,287,
0,385,593,300,481,285,
0,382,585,297,476,283,
0,378,577,295,470,280,
0,375,571,294,473,278,
0,381,648,292,519,275,
0,463,639,289,513,273,
0,455,631,287,508,307,
0,451,623,285,502,302,
0,447,615,284,496,300,
0,441,607,281,491,296,
0,438,600,280,486,294,
0,433,593,278,481,291,
0,429,583,275,475,288,
0,424,577,273,507,287,
0,420,629,271,499,284,
0,445,620,270,494,281,
0,440,612,268,488,304,
0,435,604,265,483,300,
0,431,597,263,479,297,
0,426,590,263,473,295,
0,422,583,260,468,291,
0,417,575,259,463,289,
0,414,568,257,458,287,
0,410,579,255,503,284,
0,408,611,254,496,281,
0,407,602,252,491,280,
0,401,595,250,486,277,
0,398,588,248,481,281,
0,395,580,247,476,299,
0,391,573,245,471,295,
0,387,567,243,465,293,
0,384,560,241,461,291,
0,381,551,240,455,287,
0,377,624,239,514,286,
0,499,632,237,508,283,
0,492,624,236,502,280,
0,484,615,234,496,278,
0,480,608,242,492,284,
0,475,600,301,486,281,
0,470,593,298,480,279,
0,464,586,295,476,275,
0,460,577,292,471,273,
0,455,571,290,464,271,
0,451,621,287,505,269,
0,449,612,285,499,267,
0,445,604,283,495,264,
0,440,596,280,489,263,
0,435,590,278,483,261,
0,432,583,275,479,259,
0,428,575,273,473,256,
0,423,568,271,468,255,
0,419,560,269,463,252,
0,415,553,267,462,251,
0,412,663,265,514,248,
0,522,652,263,508,247,
0,515,644,273,503,244,
0,508,636,281,496,243,
0,503,627,278,492,240,
0,497,620,275,487,239,
0,492,611,273,481,236,
0,487,604,271,476,235,
0,482,595,268,472,233,
0,478,588,265,516,231,
0,473,583,263,518,230,
0,472,576,262,512,227,
0,467,570,259,505,226,
0,462,563,257,500,224,
0,457,558,350,495,243,
0,454,551,344,489,240,
0,449,544,340,484,238,
0,444,539,337,480,236,
0,440,531,335,475,234,
0,436,532,332,523,231,
0,432,573,327,516,230,
0,428,566,326,510,228,
0,424,559,323,504,227,
0,419,551,319,499,225,
0,415,545,316,494,243,
0,412,539,314,488,241,
0,408,532,312,483,239,
0,405,527,308,479,237,
0,401,519,306,473,235,
0,398,515,304,515,233,
0,395,510,301,509,231,
0,391,504,440,504,229,
0,388,499,433,497,246,
0,384,495,427,492,243,
0,381,490,423,487,260,
0,377,486,419,481,259,
0,375,481,415,476,255,
0,371,476,411,472,254,
0,368,471,448,467,252,
0,366,600,443,516,249,
0,391,608,438,510,248,
0,388,600,433,504,276,
0,384,593,429,499,275,
0,380,585,526,494,289,
0,376,578,519,487,284,
0,372,572,513,483,282,
0,369,564,508,478,280,
0,366,558,503,473,277,
0,363,550,497,468,275,
0,359,595,492,512,271,
0,428,587,487,506,270,
0,423,579,483,500,270,
0,419,572,478,495,268,
0,413,566,472,489,280,
0,409,559,467,484,276,
0,405,552,463,480,274,
0,401,546,459,475,271,
0,397,540,455,470,270,
0,393,532,451,504,268,
0,391,627,572,510,264,
0,386,618,584,504,263,
0,384,611,577,497,265,
0,380,603,571,492,263,
0,376,595,563,487,260,
0,371,588,556,482,257,
0,368,580,551,477,255,
0,366,574,543,472,254,
0,363,568,539,467,251,
0,359,560,534,510,249,
0,423,624,527,504,248,
0,467,615,523,498,246,
0,463,608,518,492,243,
0,457,600,512,487,241,
0,451,593,505,482,240,
0,447,585,500,478,237,
0,442,579,496,472,236,
0,438,572,492,467,233,
0,433,565,487,463,231,
0,430,627,483,516,230,
0,539,687,478,510,227,
0,531,676,473,504,226,
0,524,668,469,499,225,
0,519,659,464,493,224,
0,512,650,460,487,263,
0,506,642,455,483,262,
0,501,634,451,478,259,
0,496,626,448,473,257,
0,491,619,444,467,254,
0,487,624,440,520,252,
0,489,615,450,515,250,
0,484,608,608,509,248,
0,480,600,600,504,246,
0,475,594,591,499,275,
0,468,587,583,492,283,
0,463,580,577,487,280,
0,460,574,571,482,278,
0,455,568,564,478,275,
0,451,561,558,472,272,
0,448,670,552,522,270,
0,505,660,547,515,268,
0,499,652,541,510,265,
0,494,643,536,504,263,
0,489,635,530,499,289,
0,483,627,523,494,285,
0,478,619,518,488,283,
0,473,611,513,484,280,
0,468,604,570,479,277,
0,463,597,563,473,275,
0,459,588,557,524,272,
0,455,582,551,518,270,
0,450,575,544,512,268,
0,446,568,539,507,265,
0,441,562,533,501,293,
0,436,556,526,496,289,
0,433,550,521,491,287,
0,428,543,515,486,284,
0,425,538,510,480,281,
0,422,532,505,496,279,
0,417,603,500,526,276,
0,414,595,496,519,274,
0,411,588,491,514,271,
0,407,579,487,508,270,
0,403,573,482,504,300,
0,399,566,476,497,296,
0,396,560,472,492,294,
0,391,552,467,487,291,
0,389,547,463,483,288,
0,386,540,460,532,286,
0,383,614,511,524,284,
0,380,606,504,518,281,
0,376,599,611,512,279,
0,374,591,602,506,276,
0,370,583,595,500,315,
0,366,576,587,496,311,
0,364,569,579,490,307,
0,360,563,573,485,305,
0,358,556,568,480,302,
0,355,604,587,532,300,
0,486,685,731,524,296,
0,478,675,719,518,300,
0,472,665,710,512,304,
0,467,657,700,506,316,
0,462,648,691,500,316,
0,456,639,680,496,312,
0,452,632,671,490,308,
0,448,624,664,486,306,
0,444,616,655,480,303,
0,440,668,649,514,300,
0,444,657,641,507,297,
0,439,647,786,501,295,
0,435,639,772,496,292,
0,431,632,761,490,319,
0,425,624,751,485,315,
0,422,615,738,480,312,
0,417,608,728,475,308,
0,414,601,719,470,305,
0,409,594,711,465,303,
0,408,664,702,508,300,
0,482,652,829,501,297,
0,476,643,903,496,295,
0,472,635,903,490,292,
0,466,627,883,484,329,
0,460,619,870,480,326,
0,455,611,853,475,321,
0,451,604,840,470,319,
0,447,596,828,465,316,
0,442,589,817,475,313,
0,529,652,806,517,310,
0,579,641,894,510,307,
0,572,632,909,504,306,
0,566,624,914,499,304,
0,559,616,916,493,331,
0,551,608,913,487,327,
0,545,601,886,483,323,
0,539,593,872,478,319,
0,534,587,859,473,317,
0,527,580,847,519,315,
0,590,574,902,513,312,
0,608,566,911,506,308,
0,600,560,915,500,306,
0,593,553,918,495,304,
0,586,547,920,490,308,
0,577,541,919,484,305,
0,572,536,891,480,302,
0,565,529,876,475,299,
0,559,524,863,470,296,
0,553,519,851,515,295,
0,630,527,902,508,291,
0,620,520,910,502,289,
0,612,515,911,496,287,
0,605,510,891,491,284,
0,598,504,876,486,283,
0,590,499,863,480,280,
0,583,495,847,476,277,
0,575,490,835,471,275,
0,571,486,824,465,273,
0,565,534,812,526,271,
0,559,525,890,519,268,
0,551,519,886,512,267,
0,547,513,871,507,263,
0,541,507,857,501,313,
0,536,502,845,496,309,
0,528,496,831,489,306,
0,524,490,817,485,303,
0,518,485,806,480,300,
0,513,480,795,475,297,
0,519,583,896,517,295,
0,639,583,901,511,291,
0,631,575,883,504,289,
0,623,568,870,498,287,
0,615,562,856,492,284,
0,608,555,844,487,282,
0,600,548,831,483,280,
0,592,542,816,477,276,
0,585,536,804,472,274,
0,579,530,794,472,271,
0,574,585,783,514,270,
0,568,575,774,508,268,
0,561,568,764,501,268,
0,555,561,753,496,265,
0,550,556,744,490,300,
0,543,548,736,486,295,
0,536,542,724,480,294,
0,531,536,716,475,291,
0,526,530,707,471,287,
0,520,524,700,516,286,
0,516,632,691,513,283,
0,511,620,683,507,280,
0,505,612,675,499,278,
0,501,604,668,495,275,
0,496,597,660,489,273,
0,492,590,653,484,271,
0,486,583,644,480,268,
0,481,575,638,474,266,
0,477,569,665,470,263,
0,472,563,656,519,262,
0,476,601,792,514,259,
0,471,591,828,508,260,
0,465,583,815,500,271,
0,462,577,803,496,268,
0,457,570,792,490,265,
0,453,563,780,485,263,
0,448,557,767,480,261,
0,444,551,756,475,259,
0,440,544,746,470,255,
0,437,545,737,519,255,
0,433,539,728,514,252,
0,430,531,718,508,251,
0,426,526,709,501,248,
0,423,519,700,496,284,
0,419,515,692,491,280,
0,415,509,684,486,278,
0,411,504,673,480,275,
0,408,499,665,476,271,
0,404,494,658,471,270,
0,401,545,652,517,268,
0,489,537,643,511,265,
0,484,529,636,504,263,
0,479,524,630,498,260,
0,473,518,766,493,269,
0,468,512,779,487,267,
0,463,505,768,483,263,
0,457,500,753,478,262,
0,454,495,743,472,259,
0,449,489,734,468,257,
0,444,627,724,521,255,
0,440,617,715,515,252,
0,436,608,705,508,251,
0,432,600,696,502,248,
0,428,592,688,496,283,
0,423,585,679,491,280,
0,420,578,671,486,278,
0,415,572,662,481,275,
0,412,564,654,476,271,
0,408,558,647,512,270,
0,404,604,639,512,267,
0,400,595,632,506,265,
0,397,587,624,499,263,
0,394,579,618,494,260,
0,391,572,612,488,287,
0,387,566,606,483,286,
0,384,559,600,478,283,
0,381,551,591,473,280,
0,377,546,586,468,278,
0,375,540,581,519,275,
0,371,581,575,513,272,
0,369,574,569,507,270,
0,366,564,563,499,268,
0,363,558,559,495,265,
0,359,551,553,489,283,
0,358,544,548,484,280,
0,355,539,543,479,278,
0,352,532,536,474,275,
0,349,527,531,469,271,
0,347,521,527,512,270,
0,344,516,523,505,268,
0,341,511,518,500,265,
0,339,504,513,493,263,
0,336,499,508,488,292,
0,334,494,504,483,289,
0,331,488,499,479,286,
0,329,483,551,473,284,
0,326,479,543,468,280,
0,323,475,537,463,278,
0,321,577,531,515,275,
0,360,568,526,509,273,
0,357,561,648,504,295,
0,353,553,639,496,291,
0,350,546,632,492,290,
0,347,540,624,486,287,
0,344,534,615,481,285,
0,340,527,608,476,282,
0,337,521,600,471,280,
0,334,516,593,466,277,
0,368,559,587,513,274,
0,390,551,580,508,271,
0,385,544,575,502,270,
0,382,536,671,495,268,
0,378,530,664,489,280,
0,375,524,655,484,278,
0,371,518,647,480,275,
0,368,512,639,475,272,
0,363,507,628,470,269,
0,359,502,622,497,268,
0,453,641,709,509,264,
0,504,632,699,504,263,
0,499,624,689,497,282,
0,493,614,680,491,280,
0,487,606,671,486,291,
0,483,599,664,480,287,
0,478,591,655,476,285,
0,472,583,647,471,282,
0,467,577,639,465,280,
0,462,571,632,512,276,
0,457,591,624,506,274,
0,453,583,616,500,271,
0,449,577,609,495,270,
0,444,568,603,487,268,
0,440,561,596,483,286,
0,436,556,590,478,283,
0,432,549,583,473,280,
0,427,543,577,468,278,
0,423,537,570,463,275,
0,419,590,564,522,271,
0,415,600,558,515,270,
0,412,593,552,510,268,
0,408,585,547,504,265,
0,404,575,542,497,294,
0,401,569,536,492,291,
0,398,563,531,487,287,
0,394,556,526,482,285,
0,390,550,520,477,283,
0,387,543,515,472,280,
0,385,650,510,532,277,
0,507,639,505,525,275,
0,499,632,500,519,271,
0,495,624,496,514,270,
0,489,614,492,507,316,
0,483,606,487,502,312,
0,479,599,483,496,310,
0,473,591,480,491,307,
0,467,583,475,486,304,
0,463,577,471,480,300,
0,470,620,600,515,297,
0,502,611,599,510,295,
0,496,604,591,504,295,
0,490,595,583,499,293,
0,484,587,577,492,312,
0,480,579,571,487,308,
0,475,573,564,481,305,
0,470,566,558,476,303,
0,463,560,551,472,300,
0,460,553,545,489,295,
0,455,569,539,504,294,
0,450,562,534,499,291,
0,447,555,667,494,289,
0,441,548,764,487,286,
0,438,541,752,481,304,
0,433,535,742,476,301,
0,430,529,732,472,298,
0,425,524,722,467,295,
0,420,518,712,462,292,
0,417,531,702,515,289,
0,565,651,692,508,287,
0,556,641,684,503,284,
0,550,633,675,497,281,
0,543,623,668,492,280,
0,537,615,659,485,305,
0,531,608,652,480,302,
0,526,600,644,475,299,
0,519,593,637,470,295,
0,513,585,630,465,294,
0,508,615,660,512,291,
0,504,679,884,506,287,
0,497,670,875,500,286,
0,493,660,860,495,283,
0,487,650,847,489,283,
0,483,641,835,483,280,
0,479,633,823,478,278,
0,473,626,898,472,275,
0,470,617,908,468,273,
0,463,611,904,463,271,
0,460,639,881,513,268,
0,455,630,867,508,266,
0,451,622,854,502,270,
0,447,614,841,496,267,
0,443,604,830,491,307,
0,439,597,817,484,304,
0,435,590,806,480,302,
0,431,583,796,475,299,
0,427,576,784,470,295,
0,422,570,774,464,294,
0,419,648,761,518,290,
0,415,639,752,511,287,
0,412,631,743,505,295,
0,408,623,734,499,292,
0,404,614,725,495,332,
0,401,606,716,487,329,
0,398,598,707,483,326,
0,395,591,699,478,323,
0,391,583,691,473,319,
0,387,577,681,483,318,
0,384,699,673,511,313,
0,380,688,665,504,311,
0,377,679,658,499,317,
0,375,670,651,494,313,
0,371,659,643,488,311,
0,368,650,636,482,308,
0,366,641,630,477,305,
0,363,634,623,472,303,
0,359,626,616,467,300,
0,356,619,609,512,297,
0,353,612,603,505,295,
0,351,604,596,499,292,
0,348,598,591,494,289,
0,345,591,615,489,287,
0,343,582,607,483,296,
0,340,575,600,477,294,
0,337,569,592,472,291,
0,335,563,587,467,288,
0,332,556,580,463,286,
0,329,551,574,515,284,
0,423,545,568,509,280,
0,417,539,562,504,279,
0,413,534,557,497,277,
0,409,527,551,492,286,
0,405,521,547,487,283,
0,401,515,541,480,280,
0,397,511,536,476,278,
0,393,505,531,471,275,
0,390,500,527,466,273,
0,423,592,521,527,271,
0,548,671,515,520,268,
0,541,662,511,515,265,
0,535,653,507,509,263,
0,529,644,502,504,273,
0,523,634,497,497,270,
0,518,626,493,492,268,
0,512,618,489,487,265,
0,507,611,484,482,263,
0,502,604,608,476,262,
0,495,723,599,518,259,
0,489,711,591,512,255,
0,485,702,583,506,255,
0,480,692,577,500,252,
0,476,683,571,496,255,
0,471,671,564,488,253,
0,466,664,558,483,251,
0,462,655,551,479,248,
0,457,647,547,473,247,
0,454,639,540,486,246,
0,448,631,534,519,243,
0,451,623,527,514,241,
0,447,615,599,508,253,
0,443,608,677,503,251,
0,439,601,668,497,280,
0,435,592,659,491,277,
0,431,585,651,486,275,
0,427,579,643,480,272,
0,423,572,635,476,270,
0,419,567,627,524,268,
0,414,612,619,518,265,
0,411,604,611,512,263,
0,408,596,604,507,277,
0,403,589,598,501,275,
0,400,582,591,496,297,
0,397,574,584,488,295,
0,393,567,578,483,292,
0,390,560,572,479,289,
0,387,554,566,473,287,
0,384,583,561,532,284,
0,462,603,553,526,281,
0,456,595,547,519,279,
0,451,588,542,515,276,
0,447,580,536,508,295,
0,442,573,531,504,315,
0,438,564,526,496,312,
0,433,558,520,492,309,
0,430,551,698,486,306,
0,425,545,688,481,304,
0,422,645,679,534,300,
0,415,662,668,527,297,
0,412,652,659,520,302,
0,408,644,651,515,299,
0,404,636,643,510,309,
0,401,627,636,504,305,
0,397,618,627,497,303,
0,393,611,621,492,300,
0,390,603,614,487,297,
0,387,595,607,482,295,
0,384,665,600,523,292,
0,499,655,591,515,289,
0,492,647,585,510,287,
0,487,638,579,504,284,
0,482,630,574,499,321,
0,477,622,568,494,318,
0,472,612,561,487,315,
0,467,605,556,483,312,
0,462,598,550,478,309,
0,457,591,543,480,307,
0,454,583,539,524,304,
0,448,577,532,518,300,
0,444,571,527,512,297,
0,440,564,521,507,295,
0,435,558,517,501,312,
0,431,551,512,496,309,
0,427,543,507,489,306,
0,423,538,502,484,304,
0,419,532,497,480,300,
0,415,527,493,511,299,
0,412,632,488,504,295,
0,418,624,483,499,292,
0,414,615,479,493,289,
0,409,608,475,487,287,
0,406,600,471,483,285,
0,403,592,467,478,283,
0,399,583,463,472,280,
0,396,576,540,467,278,
0,391,569,533,462,275,
0,388,563,527,505,273,
0,391,557,521,499,271,
0,387,551,513,494,268,
0,384,543,508,488,266,
0,380,539,503,483,283,
0,377,532,497,478,310,
0,374,527,492,473,307,
0,371,519,487,467,304,
0,368,515,483,462,300,
0,365,510,478,457,298,
0,362,551,473,508,295,
0,489,559,468,502,292,
0,483,551,463,496,289,
0,478,545,644,491,287,
0,472,539,635,486,319,
0,467,532,627,480,315,
0,463,527,620,476,312,
0,457,519,611,470,308,
0,454,513,604,464,306,
0,449,508,598,460,303,
0,445,503,591,500,300,
0,440,497,583,495,297,
0,435,492,575,489,295,
0,431,487,569,483,292,
0,427,483,563,479,319,
0,423,479,558,473,316,
0,419,473,551,468,313,
0,415,468,545,463,310,
0,411,463,540,458,307,
0,408,460,535,455,305,
0,404,578,529,511,302,
0,399,569,524,504,299,
0,396,563,518,499,295,
0,392,556,512,494,294,
0,390,550,508,488,309,
0,386,543,503,483,306,
0,383,536,497,478,303,
0,380,529,492,472,300,
0,376,523,487,467,297,
0,373,518,483,508,295,
0,399,518,480,512,292,
0,477,511,556,506,290,
0,472,506,548,500,287,
0,467,500,542,495,284,
0,462,496,536,489,287,
0,457,490,530,484,285,
0,452,484,524,480,283,
0,448,480,519,473,280,
0,444,474,513,468,278,
0,440,523,508,516,275,
0,455,583,503,510,273,
0,463,575,497,504,271,
0,460,568,491,499,268,
0,455,561,486,494,266,
0,450,555,481,487,284,
0,445,548,477,483,282,
0,441,540,595,478,280,
0,436,534,595,472,277,
0,432,528,588,467,275,
0,428,585,582,515,271,
0,423,579,574,510,270,
0,419,572,568,504,268,
0,415,564,560,498,265,
0,412,558,553,492,283,
0,408,551,547,487,280,
0,403,544,542,482,276,
0,399,536,536,477,274,
0,396,531,530,471,271,
0,393,524,524,466,270,
0,390,605,519,524,267,
0,387,596,514,519,265,
0,382,588,508,512,263,
0,379,582,503,507,260,
0,376,574,497,502,258,
0,372,568,492,496,255,
0,369,560,487,491,254,
0,366,552,483,486,252,
0,363,546,479,480,249,
0,359,540,474,475,248,
0,359,599,470,515,246,
0,463,590,465,509,244,
0,456,583,460,504,265,
0,451,575,455,498,262,
0,447,568,452,493,279,
0,442,561,448,487,275,
0,438,555,445,483,273,
0,433,547,441,478,271,
0,430,541,438,472,268,
0,425,535,435,504,266,
0,422,647,431,510,263,
0,425,639,428,504,262,
0,420,631,662,499,259,
0,415,622,775,494,255,
0,412,615,764,487,255,
0,408,607,753,483,252,
0,404,600,743,478,250,
0,400,590,732,473,248,
0,396,583,723,467,246,
0,393,576,714,515,244,
0,441,637,704,508,242,
0,438,628,696,503,240,
0,432,620,685,497,239,
0,428,611,676,492,236,
0,423,604,669,487,275,
0,419,597,661,481,272,
0,415,590,653,476,270,
0,411,582,646,472,268,
0,408,574,639,465,265,
0,403,624,632,514,263,
0,399,689,624,508,260,
0,396,679,617,503,259,
0,391,670,609,497,255,
0,387,662,651,492,278,
0,384,652,742,486,275,
0,381,644,731,481,271,
0,377,636,719,476,270,
0,375,627,711,470,267,
0,371,619,702,465,265,
0,368,723,694,510,263,
0,385,711,684,504,260,
0,382,701,675,498,258,
0,376,691,665,492,255,
0,373,683,657,487,285,
0,369,673,649,482,282,
0,366,664,642,477,280,
0,363,656,635,472,277,
0,359,646,627,466,275,
0,357,638,621,462,272,
0,355,631,615,521,270,
0,415,623,607,515,268,
0,412,615,600,510,265,
0,406,608,593,504,263,
0,402,601,587,499,301,
0,398,594,580,494,298,
0,394,588,575,487,295,
0,391,580,568,483,292,
0,387,572,563,476,289,
0,384,567,569,503,287,
0,467,656,607,512,285,
0,542,647,599,507,283,
0,536,639,591,501,283,
0,527,630,583,496,280,
0,521,623,575,490,303,
0,515,615,569,485,300,
0,511,607,563,480,296,
0,505,600,557,475,294,
0,499,591,551,469,291,
0,495,583,547,518,289,
0,513,676,540,511,287,
0,518,667,536,504,284,
0,512,658,531,499,281,
0,504,649,524,494,279,
0,499,641,519,488,289,
0,494,633,515,483,287,
0,489,625,510,479,284,
0,484,617,505,473,282,
0,480,608,500,467,280,
0,475,601,496,502,278,
0,470,594,492,496,275,
0,465,587,487,491,272,
0,461,580,483,485,312,
0,455,574,478,480,335,
0,451,568,473,475,332,
0,448,561,470,470,327,
0,443,555,465,465,324,
0,439,548,461,460,322,
0,435,542,457,455,319,
0,432,603,454,504,316,
0,427,594,449,499,313,
0,423,587,446,493,312,
0,419,579,442,487,310,
0,415,572,438,482,307,
0,411,566,434,478,304,
0,408,559,431,472,302,
0,404,551,427,467,299,
0,400,545,423,463,295,
0,397,538,420,457,294,
0,394,578,417,505,291,
0,518,570,414,499,289,
0,511,563,411,494,287,
0,505,556,408,487,284,
0,499,550,496,483,291,
0,494,543,489,478,289,
0,488,536,484,473,286,
0,483,531,479,468,284,
0,479,526,473,463,281,
0,473,519,468,480,280,
0,469,558,463,508,277,
0,464,551,460,501,275,
0,460,543,455,496,271,
0,455,537,450,490,270,
0,449,531,444,485,271,
0,445,524,440,480,270,
0,440,519,436,475,268,
0,436,513,432,470,265,
0,432,508,428,465,263,
0,428,502,423,487,261,
0,425,563,420,481,259,
0,421,556,417,476,257,
0,417,550,461,470,273,
0,412,543,455,465,271,
0,409,536,449,460,268,
0,405,531,480,455,265,
0,401,524,583,451,263,
0,399,519,575,448,262,
0,395,512,568,443,259,
0,391,539,563,500,257,
0,435,575,556,494,255,
0,435,568,550,487,252,
0,430,560,543,483,260,
0,424,553,537,478,257,
0,420,547,531,472,281,
0,415,540,525,468,279,
0,412,535,519,463,276,
0,408,527,514,459,274,
0,404,522,509,454,271,
0,401,583,504,515,269,
0,444,574,521,508,267,
0,440,567,515,503,264,
0,435,560,510,497,262,
0,429,553,504,492,262,
0,425,547,498,487,274,
0,420,540,519,482,271,
0,416,534,545,476,269,
0,412,527,539,472,267,
0,408,522,533,467,264,
0,405,589,527,508,262,
0,483,580,521,503,259,
0,477,573,515,497,258,
0,472,566,510,492,255,
0,465,559,505,487,300,
0,460,552,499,481,295,
0,455,546,494,476,292,
0,451,540,488,472,290,
0,447,534,484,467,287,
0,443,527,480,462,285,
0,439,600,475,510,282,
0,435,591,470,504,280,
0,432,584,466,499,278,
0,427,577,462,494,275,
0,422,570,457,487,273,
0,418,563,452,483,271,
0,415,557,448,478,268,
0,411,551,444,473,266,
0,407,543,440,468,263,
0,403,536,436,464,262,
0,399,561,432,504,259,
0,396,554,429,499,257,
0,391,547,425,494,255,
0,389,541,422,487,253,
0,385,535,418,483,278,
0,382,528,414,478,274,
0,379,523,411,473,271,
0,376,518,407,468,269,
0,372,511,403,463,267,
0,369,551,401,504,264,
0,459,596,398,508,262,
0,456,588,395,503,260,
0,451,582,391,497,260,
0,447,574,388,492,257,
0,440,568,386,486,270,
0,436,560,383,481,266,
0,432,553,380,476,263,
0,428,547,376,472,262,
0,423,541,374,466,259,
0,420,647,371,525,257,
0,524,643,369,516,255,
0,518,635,366,511,253,
0,511,627,364,505,251,
0,505,619,361,499,249,
0,499,611,359,494,269,
0,494,603,355,488,265,
0,487,595,353,483,263,
0,483,589,351,480,261,
0,479,582,495,473,259,
0,474,644,488,524,255,
0,468,636,483,516,254,
0,464,627,478,510,252,
0,460,619,472,505,249,
0,455,611,467,499,297,
0,450,604,462,494,295,
0,446,595,457,488,292,
0,441,589,452,483,289,
0,438,582,448,479,287,
0,433,575,444,474,284,
0,430,568,440,528,281,
0,425,560,435,520,280,
0,422,555,432,515,277,
0,417,548,428,509,274,
0,414,542,423,504,278,
0,409,536,419,498,275,
0,406,530,415,492,272,
0,402,524,412,487,270,
0,399,519,408,483,268,
0,396,513,404,478,265,
0,422,614,400,522,263,
0,423,605,397,515,261,
0,419,598,393,509,259,
0,415,590,391,504,258,
0,411,583,387,497,269,
0,406,575,384,492,267,
0,401,569,380,487,263,
0,398,563,377,483,261,
0,394,556,374,478,259,
0,391,550,371,515,257,
0,387,633,368,522,255,
0,384,625,428,515,252,
0,380,616,486,508,250,
0,377,609,480,504,248,
0,375,601,475,497,271,
0,371,593,468,492,268,
0,368,587,463,487,265,
0,364,579,460,482,263,
0,361,573,455,477,260,
0,359,568,451,515,259,
0,356,622,446,507,255,
0,353,614,441,502,254,
0,350,606,438,496,252,
0,348,598,433,491,249,
0,345,591,429,486,280,
0,342,583,479,480,278,
0,339,576,500,476,273,
0,336,569,495,471,271,
0,334,563,489,465,269,
0,332,636,484,514,267,
0,475,644,480,506,263,
0,468,636,474,500,263,
0,463,627,470,496,260,
0,459,620,543,491,284,
0,454,611,595,484,281,
0,448,604,585,480,278,
0,444,596,579,475,275,
0,440,590,572,470,272,
0,435,583,565,465,271,
0,431,647,559,512,268,
0,427,635,553,504,265,
0,423,627,599,499,295,
0,419,619,736,494,292,
0,415,611,724,488,289,
0,411,603,714,483,287,
0,406,595,703,479,284,
0,403,588,694,473,281,
0,399,582,685,468,279,
0,395,575,676,463,276,
0,391,572,668,511,273,
0,388,563,659,504,271,
0,385,558,705,498,269,
0,382,551,696,492,267,
0,378,545,686,487,290,
0,376,539,677,483,287,
0,371,533,667,477,284,
0,368,527,658,472,281,
0,364,521,651,467,280,
0,361,516,643,493,276,
0,401,625,636,500,274,
0,411,614,628,494,271,
0,406,606,822,487,270,
0,401,599,867,483,267,
0,398,591,853,478,286,
0,394,583,839,473,283,
0,390,576,824,468,280,
0,385,569,812,463,277,
0,382,563,801,459,275,
0,379,557,791,514,271,
0,403,627,780,507,270,
0,399,616,769,500,268,
0,396,609,867,495,265,
0,391,601,905,489,263,
0,387,593,903,484,304,
0,384,587,884,479,300,
0,379,579,867,473,297,
0,376,572,854,469,295,
0,372,566,841,463,291,
0,369,637,830,511,289,
0,516,739,817,504,287,
0,510,724,806,497,284,
0,504,715,796,492,281,
0,499,705,785,487,280,
0,494,696,775,481,278,
0,488,686,764,476,275,
0,483,677,809,472,271,
0,477,668,856,467,270,
0,472,659,841,462,268,
0,467,652,829,510,265,
0,463,644,816,504,263,
0,459,635,804,497,260,
0,454,627,793,492,259,
0,449,619,783,486,281,
0,446,612,771,481,279,
0,441,604,761,476,275,
0,435,598,750,471,272,
0,432,591,739,466,270,
0,428,584,732,462,268,
0,456,716,722,511,265,
0,467,704,713,504,263,
0,462,692,704,497,294,
0,456,683,696,492,290,
0,451,674,688,487,304,
0,448,665,680,481,300,
0,441,656,672,476,298,
0,437,647,664,472,295,
0,432,639,655,467,291,
0,429,632,649,492,289,
0,457,659,641,519,287,
0,452,651,635,513,284,
0,448,639,628,506,313,
0,443,632,622,500,310,
0,439,624,615,496,318,
0,433,616,608,489,315,
0,428,609,603,486,312,
0,424,603,595,480,307,
0,420,595,589,476,305,
0,417,588,583,530,303,
0,448,686,577,523,300,
0,442,675,572,517,297,
0,438,664,567,510,295,
0,433,655,561,504,292,
0,428,647,556,499,290,
0,423,639,550,494,287,
0,419,631,545,488,286,
0,415,623,539,483,283,
0,412,615,719,479,280,
0,408,647,708,522,278,
0,414,696,698,515,275,
0,409,686,689,510,287,
0,406,675,680,504,287,
0,401,665,671,497,284,
0,398,657,664,492,282,
0,395,648,655,487,280,
0,391,639,647,482,277,
0,387,632,743,477,274,
0,384,625,732,472,271,
0,381,619,723,519,270,
0,483,611,712,512,267,
0,476,604,768,507,265,
0,472,595,847,499,263,
0,466,588,834,494,316,
0,462,582,822,489,312,
0,456,575,809,484,308,
0,451,568,798,479,305,
0,447,563,783,473,302,
0,442,556,774,469,300,
0,512,716,763,518,297,
0,579,703,753,511,294,
0,572,691,743,505,291,
0,566,681,734,499,289,
0,559,672,725,493,326,
0,552,664,716,487,321,
0,547,655,707,483,319,
0,539,647,698,478,316,
0,533,639,688,472,312,
0,527,631,679,490,309,
0,585,723,671,520,307,
0,623,711,664,515,304,
0,615,699,779,509,301,
0,607,689,809,502,299,
0,600,679,798,496,296,
0,593,671,786,492,294,
0,587,662,775,487,291,
0,578,654,765,481,289,
0,572,646,752,476,286,
0,566,638,743,529,284,
0,601,732,732,521,281,
0,593,721,723,515,279,
0,586,708,713,510,276,
0,579,699,705,504,274,
0,573,689,696,497,299,
0,567,680,688,492,295,
0,560,671,679,487,293,
0,552,663,671,482,291,
0,547,655,662,477,287,
0,541,647,655,524,285,
0,551,639,647,518,282,
0,545,631,639,512,280,
0,539,622,633,507,278,
0,533,614,626,499,298,
0,527,607,620,494,311,
0,523,600,613,489,308,
0,518,593,607,483,305,
0,511,586,599,479,302,
0,506,579,591,474,299,
0,502,574,587,522,295,
0,496,568,580,516,294,
0,492,561,575,510,291,
0,487,554,568,504,288,
0,483,548,563,497,291,
0,478,542,558,492,287,
0,473,536,552,487,286,
0,470,531,547,482,283,
0,463,526,540,477,280,
0,460,519,536,472,278,
0,455,580,531,529,275,
0,451,572,617,524,273,
0,448,566,677,517,275,
0,444,556,668,511,272,
0,440,551,659,504,300,
0,435,543,651,499,295,
0,432,537,643,494,294,
0,428,531,635,488,291,
0,423,526,625,483,288,
0,420,519,619,487,285,
0,416,568,611,527,283,
0,413,561,843,522,280,
0,409,554,828,516,278,
0,406,545,816,511,275,
0,403,540,803,504,275,
0,399,533,792,498,273,
0,396,527,780,493,271,
0,393,521,770,487,268,
0,389,515,758,483,266,
0,386,511,748,537,263,
0,443,626,737,532,261,
0,451,617,728,527,259,
0,447,609,719,520,257,
0,442,600,710,514,255,
0,438,591,702,508,319,
0,433,585,693,503,316,
0,428,578,684,497,312,
0,424,572,676,492,310,
0,419,564,667,487,307,
0,415,563,659,524,304,
0,412,639,652,518,300,
0,408,632,644,512,298,
0,403,623,637,505,295,
0,399,613,631,499,294,
0,396,605,624,494,295,
0,392,598,616,488,294,
0,390,591,610,483,291,
0,386,583,604,479,288,
0,382,576,596,473,286,
0,379,637,590,525,283,
0,423,643,583,519,280,
0,419,633,578,513,307,
0,414,625,572,507,303,
0,410,615,567,500,300,
0,406,608,560,495,297,
0,402,600,556,489,295,
0,398,593,550,484,291,
0,395,586,544,480,289,
0,390,579,538,475,287,
0,386,617,534,513,284,
0,384,609,527,508,281,
0,380,601,524,503,279,
0,376,593,519,497,276,
0,373,584,514,490,302,
0,370,577,509,485,299,
0,367,571,504,480,295,
0,364,564,575,475,293,
0,361,558,748,470,290,
0,358,551,734,471,287,
0,439,667,723,519,284,
0,481,655,713,512,282,
0,475,647,704,507,316,
0,470,639,710,502,313,
0,465,628,760,495,310,
0,460,620,750,489,307,
0,455,613,739,483,304,
0,451,606,729,479,302,
0,446,599,719,474,300,
0,440,591,708,523,295,
0,444,647,699,516,294,
0,441,639,690,510,291,
0,437,631,708,504,288,
0,432,623,811,499,286,
0,428,612,798,492,312,
0,423,604,787,487,308,
0,420,598,775,481,305,
0,415,590,764,476,303,
0,412,583,755,472,300,
0,408,621,743,526,296,
0,515,694,732,519,294,
0,508,684,723,513,291,
0,502,674,713,508,288,
0,496,665,704,502,293,
0,491,654,696,496,313,
0,486,646,688,490,311,
0,481,638,679,485,307,
0,476,630,671,480,304,
0,472,622,664,475,302,
0,465,615,655,524,299,
0,460,608,647,519,295,
0,455,600,639,512,295,
0,451,593,632,507,291,
0,448,587,625,502,304,
0,443,578,619,495,300,
0,439,572,612,489,297,
0,435,565,606,484,295,
0,431,559,600,480,292,
0,427,552,593,474,289,
0,422,547,585,531,286,
0,418,541,579,524,284,
0,414,536,574,519,281,
0,411,529,568,513,279,
0,408,524,563,508,299,
0,403,518,556,500,295,
0,399,512,551,496,293,
0,396,507,545,490,290,
0,393,502,540,485,287,
0,388,497,536,480,285,
0,403,571,529,519,281,
0,399,563,524,513,280,
0,395,556,519,508,277,
0,391,548,515,503,275,
0,387,543,510,497,291,
0,384,535,505,491,287,
0,380,528,500,486,285,
0,376,523,496,480,283,
0,374,516,492,476,280,
0,370,511,487,518,278,
0,368,568,483,519,275,
0,364,560,479,514,271,
0,361,553,475,508,270,
0,359,547,471,503,268,
0,355,540,587,497,299,
0,353,532,585,491,295,
0,350,526,578,486,293,
0,348,519,572,480,290,
0,345,514,564,476,287,
0,342,509,559,531,285,
0,393,567,551,524,282,
0,390,560,579,519,280,
0,385,551,572,512,277,
0,382,545,566,507,275,
0,377,539,559,502,272,
0,374,531,552,495,270,
0,371,526,547,489,268,
0,367,519,540,484,265,
0,364,513,535,480,263,
0,359,597,529,527,262,
0,428,599,522,521,259,
0,423,591,517,515,257,
0,419,583,512,510,255,
0,415,575,507,504,279,
0,411,569,502,499,275,
0,407,561,496,492,273,
0,403,555,492,487,271,
0,399,548,487,481,268,
0,395,542,483,477,267,
0,391,657,478,523,263,
0,487,647,691,516,261,
0,481,638,680,511,262,
0,476,630,671,505,259,
0,472,622,663,499,275,
0,466,612,655,494,272,
