=~=~=~=~=~=~=~=~=~=~=~= PuTTY log 2021.04.22 12:54:42 =~=~=~=~=~=~=~=~=~=~=~=
,209,243,481,
0,448,
0,580,676,167,251,443,
0,571,666,166,24854,
0,600,636,172,265,449,
0,593,627,184,263,461,
0,585,619,182,264,149,272,463,
0,619,654,147,270,459,
0,610,644,147,268,454,
0,600,636,172,265,449,
0,593,627,184,263,461,
0,585,619,182,261,455,
0,579,611,180,259,451,
0,572,
0,610,644,147,268,454,
0,600,636,172,265,449,
0,593,627,184,263,461,
0,585,619,182,261,455,
0,579,611,180,259,451,
0,572,603,178,255,447,
0,566,595,177,255,441,
0,559,586,176,284,438,
0,600,675,174,282,4&Hbbbbbbj
0,595,655,172,277,425,
0,585,StartUp!
119,848,679,204,383,396,
0,838,671,203,380,394,
0,828,665,201,377,391,
0,818,658,200,375,390,
0,809,652,224,371,387,
0,799,644,223,369,385,
0,792,638,221,367,383,
0,783,632,220,365,380,
0,775,626,219,362,377,
0,766,620,217,359,376,
0,759,612,216,395,373,
0,836,719,214,430,370,
0,903,708,211,425,367,
0,888,699,255,421,363,
0,871,688,252,416,359,
0,858,678,249,412,358,
0,844,669,248,409,355,
0,831,657,245,403,352,
0,819,648,243,400,350,
0,807,639,241,397,347,
0,796,636,239,448,344,
0,889,736,237,441,342,
0,910,724,235,436,339,
0,908,714,232,432,335,
0,888,704,231,428,333,
0,872,694,230,423,359,
0,859,684,227,420,356,
0,845,671,225,415,353,
0,831,664,224,412,350,
0,820,654,223,408,347,
0,808,696,222,438,345,
0,897,720,220,432,342,
0,911,710,219,428,339,
0,910,700,262,423,335,
0,888,689,259,419,332,
0,872,679,255,415,330,
0,859,670,254,412,327,
0,846,659,252,408,326,
0,833,650,249,403,323,
0,820,641,248,399,320,
0,809,766,246,476,318,
0,903,764,243,470,316,
0,911,752,240,464,313,
0,911,741,239,460,311,
1,890,730,237,455,350,
1,874,719,265,451,345,
2,860,710,263,446,343,
3,847,697,262,441,339,
3,835,688,259,436,335,
3,822,678,257,433,333,
4,820,788,255,488,329,
4,904,775,252,483,327,
5,911,763,249,478,323,
6,907,752,299,472,319,
6,884,740,295,467,323,
6,870,729,294,463,319,
6,856,719,291,459,316,
6,843,707,287,454,314,
7,830,697,286,449,312,
7,817,688,284,463,310,
7,864,804,281,482,307,
7,907,792,279,476,304,
7,911,779,275,472,302,
7,894,767,273,467,300,
7,877,755,271,463,346,
7,863,744,270,458,343,
7,849,734,268,454,339,
7,836,720,265,448,335,
7,824,711,263,444,333,
7,812,720,261,482,330,
7,886,830,259,477,327,
7,907,816,257,472,323,
7,903,803,255,467,319,
7,883,791,252,462,317,
7,868,779,285,457,356,
7,854,768,282,453,353,
7,840,755,280,449,349,
7,828,742,278,444,346,
7,816,732,275,440,343,
7,804,769,273,471,339,
7,895,801,270,465,335,
7,907,788,268,460,333,
7,891,776,265,455,329,
7,875,764,263,451,353,
7,860,753,263,447,376,
7,847,742,261,443,371,
7,834,732,259,438,368,
7,822,719,257,433,364,
7,809,709,255,430,361,
7,798,807,253,459,358,
7,897,793,251,454,355,
7,886,780,248,449,351,
7,871,768,247,444,347,
7,856,758,244,440,369,
6,843,746,244,435,366,
7,830,735,242,432,361,
7,817,724,240,428,359,
6,806,711,239,423,355,
6,794,702,237,419,352,
6,783,696,235,446,348,
6,897,686,233,441,344,
6,878,676,231,436,342,
6,863,668,230,432,338,
6,849,659,233,428,377,
6,836,651,231,423,372,
6,824,643,230,420,369,
6,811,635,227,416,365,
5,799,625,226,412,361,
5,788,617,224,423,359,
6,816,756,223,444,355,
5,891,743,221,440,352,
5,871,733,220,435,348,
5,856,721,217,431,344,
5,844,711,239,427,342,
5,830,702,237,423,338,
4,817,691,235,419,335,
5,806,682,232,415,332,
4,793,671,231,410,329,
4,783,662,229,431,327,
4,857,761,227,426,323,
4,882,750,225,422,321,
4,864,739,224,418,318,
4,849,728,221,414,315,
4,836,717,222,410,367,
4,824,707,220,406,363,
3,811,697,218,403,359,
4,799,684,216,399,355,
3,787,675,215,396,352,
3,776,731,214,431,350,
3,886,785,211,425,345,
3,875,772,210,422,343,
3,857,761,208,417,339,
3,843,749,207,413,353,
3,830,739,238,409,375,
3,817,728,236,406,371,
3,806,718,233,401,367,
3,793,705,231,399,364,
3,782,696,230,394,359,
3,772,811,228,419,356,
3,883,797,226,414,353,
3,867,783,224,410,350,
3,850,772,222,406,347,
3,836,760,220,402,390,
3,824,749,219,398,384,
3,812,739,217,395,380,
3,799,728,216,391,376,
3,787,715,214,388,373,
3,776,705,212,384,369,
2,767,803,211,407,366,
2,861,789,208,402,363,
2,847,776,207,399,359,
2,830,765,206,395,355,
2,817,753,243,391,387,
2,804,743,240,387,384,
2,792,732,238,384,379,
2,781,721,236,381,376,
2,770,708,234,377,371,
2,760,699,231,388,368,
2,770,818,230,417,364,
2,851,804,228,412,361,
2,836,792,227,408,358,
2,820,779,224,404,354,
2,807,768,224,401,403,
2,796,755,222,397,398,
2,783,744,220,393,393,
2,772,734,218,390,390,
2,761,721,216,387,386,
2,752,714,215,402,383,
2,811,836,212,398,379,
2,816,822,211,393,375,
2,803,808,209,390,371,
2,788,796,207,386,368,
2,777,783,225,383,406,
2,765,771,223,380,400,
2,754,760,220,376,396,
2,743,749,219,373,392,
1,734,736,217,369,388,
1,725,775,216,384,385,
2,826,809,213,379,382,
1,812,796,211,376,377,
1,799,783,222,371,374,
1,783,771,220,368,371,
2,772,760,231,366,385,
1,761,749,229,363,381,
1,751,738,227,359,377,
1,740,728,225,356,374,
1,730,716,224,354,370,
1,721,826,222,376,367,
1,806,812,220,371,363,
1,792,798,217,368,359,
1,780,786,216,364,356,
1,766,774,214,361,354,
1,755,762,212,359,398,
1,743,751,210,355,393,
1,734,739,208,352,390,
1,723,729,207,350,385,
1,714,716,206,346,382,
1,705,764,204,370,377,
1,803,752,203,366,375,
1,791,740,200,363,371,
1,779,729,209,359,368,
1,764,719,220,356,364,
1,753,708,225,353,359,
1,743,699,224,350,356,
1,732,689,222,347,353,
0,723,679,220,344,350,
0,713,670,217,345,348,
0,711,780,216,367,344,
0,793,766,214,364,341,
0,781,755,212,359,338,
0,770,743,211,356,335,
0,756,732,211,353,391,
0,744,722,209,351,385,
0,734,711,207,348,382,
0,724,702,206,344,377,
0,715,691,204,342,374,
0,705,679,202,366,371,
0,770,769,200,364,367,
0,777,757,199,359,364,
0,765,745,198,357,359,
0,754,734,196,353,356,
0,740,723,195,351,415,
0,730,713,193,348,411,
0,719,703,192,344,406,
0,710,694,191,342,402,
0,700,684,189,339,398,
0,692,735,188,376,394,
0,780,761,187,371,391,
0,768,750,185,368,386,
0,755,739,184,364,384,
0,743,728,183,361,379,
0,732,717,200,358,426,
0,721,707,199,355,422,
0,711,696,197,352,417,
0,702,688,195,348,412,
0,692,678,193,345,408,
0,684,768,192,366,404,
0,772,755,191,362,400,
0,760,743,189,359,396,
0,749,732,188,355,392,
0,738,721,186,352,395,
0,725,711,184,349,433,
0,716,701,183,346,428,
0,705,691,182,344,423,
0,696,681,179,340,419,
0,687,671,179,337,415,
0,679,745,177,358,412,
0,752,732,176,354,407,
0,740,721,175,351,403,
0,730,711,174,348,399,
0,719,700,173,344,445,
0,707,691,172,342,437,
0,697,681,170,338,432,
0,688,671,169,335,428,
0,679,663,167,333,423,
0,671,655,167,330,419,
0,664,732,166,335,415,
0,707,719,164,332,411,
0,697,710,163,329,407,
0,688,700,163,327,403,
0,678,689,181,325,448,
0,667,679,201,323,441,
0,659,670,199,319,436,
0,651,661,198,318,432,
0,643,652,196,316,427,
0,636,643,194,313,423,
0,704,679,193,332,419,
0,722,668,191,329,415,
0,711,659,190,327,411,
0,702,650,188,323,407,
0,692,642,191,321,460,
0,680,633,188,318,454,
0,671,625,187,316,449,
0,663,617,185,313,444,
0,655,610,184,311,440,
0,647,604,183,340,435,
0,723,716,181,343,430,
0,711,704,179,339,425,
0,701,694,178,336,422,
0,691,684,177,334,418,
0,679,675,209,331,463,
0,671,665,206,327,456,
0,662,655,204,325,451,
0,654,647,203,322,447,
0,646,639,200,319,441,
0,638,655,199,318,438,
0,689,704,198,314,432,
0,679,694,195,312,428,
0,670,684,194,309,423,
0,660,674,193,307,421,
0,649,664,198,304,469,
0,641,655,195,303,462,
0,633,647,194,300,457,
0,626,638,192,298,452,
0,619,630,191,295,448,
0,612,717,190,307,443,
0,667,713,188,304,438,
0,657,703,186,301,434,
0,648,693,185,299,430,
0,639,683,184,296,464,
0,630,673,182,294,464,
0,622,664,180,291,458,
0,615,655,179,290,453,
0,608,647,177,287,448,
0,600,638,176,286,444,
0,595,783,175,301,439,
0,634,768,174,297,435,
0,625,755,172,295,431,
0,617,743,171,292,425,
0,609,733,196,290,422,
0,600,722,226,287,417,
0,593,711,224,286,413,
0,587,702,222,284,409,
0,580,692,220,281,405,
0,575,683,218,280,401,
0,641,725,216,297,398,
0,660,711,214,295,394,
0,652,700,212,292,391,
0,643,690,211,289,387,
0,635,680,209,287,448,
0,624,671,207,284,441,
0,617,663,206,283,436,
0,609,654,204,280,432,
0,601,646,202,278,427,
0,595,637,200,284,423,
0,691,695,199,286,419,
0,679,684,198,283,414,
0,671,675,195,280,410,
0,662,665,195,278,406,
0,653,655,195,275,457,
0,642,647,193,274,452,
0,634,638,191,271,446,
0,626,630,190,270,441,
0,618,622,188,268,436,
0,611,664,187,292,432,
0,678,730,185,289,428,
0,668,719,184,287,423,
0,659,708,183,284,419,
0,651,698,182,281,422,
0,642,688,180,280,467,
0,632,679,179,276,462,
0,624,670,177,275,455,
0,616,660,176,272,451,
0,608,652,175,270,446,
0,601,742,174,280,441,
0,655,748,172,276,436,
0,647,737,171,273,432,
0,639,727,169,271,428,
0,630,716,168,270,477,
0,622,705,171,267,476,
0,612,696,169,265,470,
0,604,686,167,263,463,
0,598,676,166,262,459,
0,590,667,165,259,455,
0,584,728,163,277,449,
0,643,714,163,274,444,
0,634,704,161,271,440,
0,626,694,160,269,435,
0,617,684,175,267,483,
0,610,674,184,264,476,StartUp!
119,617,708,150,280,459,
0,611,701,150,279,455,
0,606,694,148,277,451,
0,600,686,147,275,448,
0,594,679,148,273,483,
0,588,671,152,271,479,
0,583,664,152,270,475,
0,577,657,151,269,471,
0,572,651,150,267,467,
0,568,644,148,265,463,
0,562,636,147,263,457,
0,556,703,146,265,453,
0,585,691,145,263,448,
0,578,681,143,260,443,
0,571,671,143,258,438,
0,563,662,142,255,480,
0,556,652,141,254,474,
0,551,642,140,252,468,
0,543,633,139,249,463,
0,537,625,138,248,459,
0,532,617,137,247,454,
0,527,728,135,261,449,
0,592,716,135,259,443,
0,584,704,134,256,439,
0,577,695,133,255,435,
0,570,684,132,252,466,
0,563,675,131,250,460,
0,556,663,130,248,455,
0,550,654,129,246,451,
0,543,646,128,243,446,
0,537,639,128,252,444,
0,564,720,127,260,440,
0,595,709,127,258,433,
0,588,699,126,255,430,
0,581,688,125,254,425,
0,574,679,153,252,484,
0,567,670,152,249,479,
0,560,658,151,247,473,
0,553,649,149,244,468,
0,547,639,147,243,463,
0,540,662,147,292,459,
0,628,754,145,289,453,
0,621,742,143,286,448,
0,612,731,143,284,443,
0,605,720,142,281,439,
0,598,710,176,279,486,
0,590,700,174,276,480,
0,583,688,172,273,475,
0,575,678,171,271,470,
0,569,669,169,269,464,
0,563,737,167,300,460,
1,638,740,167,297,455,
1,626,728,164,295,448,
1,618,718,163,292,444,
1,610,707,162,290,480,
2,603,697,185,287,488,
2,595,688,184,285,483,
2,588,675,182,281,478,
2,580,667,180,280,472,
3,574,657,179,277,467,
3,568,688,177,307,463,
3,654,678,176,304,457,
3,643,668,174,302,451,
3,635,659,176,299,447,
3,626,649,187,296,478,
3,619,641,211,294,472,
3,611,632,209,291,467,
3,603,623,207,288,461,
3,595,615,206,286,455,
3,588,608,204,284,451,
3,582,710,203,312,447,
3,655,698,201,307,442,
4,643,688,199,305,436,
3,635,678,198,303,432,
3,627,668,196,300,428,
3,619,659,195,297,423,
3,611,650,193,295,419,
3,604,639,192,292,415,
3,596,631,191,289,412,
3,589,623,189,299,409,
3,604,731,188,305,405,
3,625,719,186,303,401,
3,617,708,184,300,397,
3,609,699,183,297,393,
3,603,689,199,295,449,
3,595,679,197,291,444,
3,588,669,195,289,440,
3,580,657,193,287,435,
3,574,649,192,284,430,
3,568,646,191,312,426,
3,644,711,189,309,422,
3,633,700,187,306,417,
3,625,689,185,304,412,
3,616,679,184,301,408,
3,609,671,188,298,465,
3,601,660,187,295,460,
3,595,652,185,293,455,
3,587,641,184,291,451,
3,579,633,182,287,446,
3,574,728,181,307,441,
3,651,785,179,304,436,
3,639,774,178,301,432,
3,631,761,176,299,427,
3,623,750,175,295,455,
3,615,739,193,294,477,
3,607,728,192,291,472,
3,600,718,190,288,466,
3,592,705,188,286,461,
3,585,696,187,284,455,
3,579,767,185,303,451,
3,631,754,184,300,447,
3,620,743,182,297,442,
3,611,732,223,295,436,
3,604,720,220,292,487,
3,596,710,219,289,481,
3,588,700,217,287,476,
3,582,691,216,285,471,
2,575,679,214,283,466,
3,568,670,211,280,462,
2,561,774,210,300,455,
3,621,761,208,295,451,
2,611,749,207,294,447,
3,604,738,204,291,440,
2,595,728,207,289,502,
2,588,716,204,287,495,
2,582,707,203,284,489,
3,575,694,201,281,483,
2,568,684,199,279,479,
2,561,675,198,284,474,
3,590,760,196,295,468,
2,638,748,195,292,463,
2,627,736,193,289,459,
2,619,726,192,287,452,
2,611,716,204,285,493,
2,604,704,201,283,487,
2,595,695,199,280,481,
2,588,683,199,278,476,
1,582,673,196,275,472,
1,575,675,195,295,467,
1,638,771,193,294,462,
1,632,760,192,291,456,
1,621,748,191,287,451,
1,613,736,189,286,446,
1,606,726,196,283,441,
1,598,715,194,280,437,
1,591,705,192,278,433,
1,583,692,191,275,429,
1,575,684,190,273,424,
1,569,726,188,299,421,
1,654,713,187,295,416,
1,644,703,185,292,412,
1,633,692,184,290,409,
1,625,683,182,287,448,
1,617,673,184,285,468,
1,609,664,182,283,463,
1,602,655,180,280,457,
1,595,645,179,278,452,
1,588,636,177,275,448,
1,582,694,176,292,444,
1,622,683,175,289,439,
1,614,673,174,287,435,
1,604,664,172,284,430,
1,596,655,171,281,476,
0,589,646,204,280,470,
1,582,637,203,277,464,
1,575,628,200,275,460,
1,568,619,199,272,455,
0,561,611,198,270,450,
0,556,711,195,295,445,
1,630,700,194,292,440,
0,621,689,192,290,435,
0,611,679,191,287,432,
0,604,671,196,285,483,
0,595,662,194,283,477,
0,588,652,192,280,472,
0,582,643,191,278,466,
0,575,632,190,275,461,
0,568,624,188,280,456,
1,583,726,186,287,451,
0,630,713,185,284,447,
0,621,704,184,281,442,
1,611,693,182,280,438,
0,604,684,188,276,481,
0,596,673,187,275,476,
0,588,664,185,272,471,
0,582,655,184,270,465,
0,575,644,182,268,460,
0,568,647,180,290,455,
0,632,743,179,287,451,
0,635,731,177,284,446,
0,626,720,177,281,441,
0,615,710,176,280,437,
0,608,700,182,277,432,
0,600,689,180,275,428,
0,593,679,179,271,423,
0,586,671,177,270,419,
0,579,659,176,267,415,
0,572,715,175,293,412,
0,643,732,173,290,408,
0,633,719,172,287,403,
0,625,710,176,284,399,
0,615,700,174,282,396,
0,608,689,172,280,446,
0,600,679,171,278,440,
0,591,671,169,275,436,
0,585,662,167,273,432,
0,578,651,167,270,427,
0,572,741,166,295,423,
0,645,728,164,292,419,
0,636,718,163,289,415,
0,627,707,162,287,411,
0,617,696,161,285,409,
0,609,687,181,282,427,
0,601,678,179,280,422,
0,595,668,177,278,418,
0,587,659,176,275,414,
0,580,647,175,272,409,
0,574,750,174,275,406,
0,614,737,172,273,401,
0,605,727,171,270,398,
0,598,716,169,268,394,
0,588,705,175,266,454,
0,582,696,173,263,446,
0,574,686,172,262,441,
0,568,676,171,259,436,
0,561,667,169,258,432,
0,555,655,167,270,428,
0,573,757,167,280,423,
0,607,745,165,278,419,
0,599,734,163,275,415,
0,591,723,162,272,411,
0,583,713,188,271,477,
0,575,702,186,268,472,
0,568,692,184,265,466,
0,561,683,184,263,460,
0,555,673,182,262,455,
0,548,663,180,267,451,
0,664,654,178,263,446,
0,675,644,177,262,441,
0,665,636,176,259,438,
0,657,628,174,257,432,
0,647,621,195,255,494,
0,638,612,192,254,487,
0,631,605,191,252,483,
0,623,598,190,250,477,
0,615,591,188,248,472,
0,608,652,186,257,467,
0,671,652,184,255,462,
0,662,642,184,253,457,
0,653,633,182,251,452,
0,644,624,180,248,448,
0,635,615,180,247,494,
0,627,608,179,244,487,
0,619,600,177,243,483,
0,611,592,176,241,478,
0,604,585,175,239,472,
0,596,680,174,248,467,
0,668,670,172,244,462,
0,659,659,171,243,457,
0,649,651,169,240,453,
0,641,641,167,239,458,
0,631,633,167,237,496,
0,623,624,166,236,490,
0,615,615,164,233,484,
0,608,608,163,231,480,
0,600,600,162,230,475,
0,593,681,161,268,469,
0,651,671,159,266,463,
0,642,661,159,263,460,
0,633,652,157,262,455,
0,625,643,156,259,451,
0,615,635,211,257,444,
0,608,626,208,255,440,
0,600,617,207,252,435,
0,593,609,204,251,432,
0,586,602,203,248,428,
0,583,688,201,250,423,
0,608,676,199,248,419,
0,600,668,199,246,415,
0,593,658,196,243,412,
0,583,649,198,241,477,
0,576,639,195,240,470,
0,570,632,194,238,464,
0,563,624,192,236,460,
0,558,615,191,235,455,
0,551,608,190,240,450,
0,639,696,188,268,445,
0,655,685,187,265,440,
0,646,675,185,263,436,
0,638,665,184,260,432,
0,627,655,199,259,492,
0,620,647,197,255,486,
0,611,639,195,255,480,
0,604,630,193,252,475,
0,597,622,192,250,470,
0,590,615,190,279,465,
0,648,686,188,276,460,
0,639,676,187,274,455,
0,632,667,185,271,450,
0,623,657,184,269,446,
0,613,647,185,267,493,
0,605,639,183,264,486,
0,598,631,182,263,480,
0,591,623,180,260,475,
0,583,615,179,258,470,
0,577,660,177,267,464,
0,642,666,176,263,460,
0,633,656,175,261,455,
0,624,647,173,259,451,
0,616,639,172,255,456,
0,607,630,192,254,496,
0,600,622,190,252,488,
0,591,613,188,251,483,
0,584,606,187,248,478,
0,577,598,184,247,473,
0,572,694,184,264,467,
0,638,679,182,262,463,
0,629,671,180,259,458,
0,620,661,179,257,454,
0,612,652,177,255,507,
0,604,643,198,252,499,
0,596,635,195,251,492,
0,588,626,194,248,487,
0,582,617,192,247,481,
0,575,610,191,244,477,
0,583,712,189,260,472,
0,637,701,188,257,466,
0,628,691,186,255,462,
0,620,680,184,253,456,
0,612,671,202,251,478,
0,603,662,201,248,472,
0,595,653,199,247,465,
0,588,644,198,244,460,
0,581,636,196,243,455,
0,575,627,195,241,451,
0,632,697,193,263,446,
0,635,687,192,260,441,
0,627,677,190,258,437,
0,619,667,188,255,433,
0,611,658,187,254,478,
0,601,649,185,252,472,
0,593,639,184,249,465,
0,587,632,182,248,461,
0,579,624,180,245,455,
0,572,617,179,263,451,
0,647,707,178,263,447,
0,638,696,176,262,441,
0,628,686,175,259,437,
0,620,675,174,257,432,
0,612,667,194,255,492,
0,603,657,192,252,487,
0,595,648,190,251,480,
0,588,639,188,248,474,
0,581,632,187,247,469,
0,575,675,185,263,463,
0,670,691,184,260,459,
0,659,681,183,258,454,
0,651,671,181,255,449,
0,643,662,179,254,445,
0,635,653,182,252,453,
0,624,644,179,249,448,
0,615,636,178,248,442,
0,609,627,177,246,438,
0,601,619,176,243,433,
0,595,668,174,271,429,
0,647,655,172,268,425,
0,639,646,172,265,422,
0,630,636,170,263,417,
0,622,627,168,262,473,
0,614,620,192,259,467,
0,604,611,190,257,462,
0,598,604,188,255,455,
0,590,596,187,252,451,
0,583,589,185,251,447,
0,595,688,184,263,441,
0,654,673,183,260,436,
0,644,664,180,257,432,
0,636,655,179,255,428,
0,628,646,189,253,483,
0,620,637,193,251,477,
0,611,628,191,248,472,
0,603,620,190,247,465,
0,595,612,188,244,460,
0,588,604,187,244,455,
0,647,688,184,260,450,
0,639,675,184,259,446,
0,631,665,182,255,441,
0,623,655,180,254,436,
0,615,647,182,251,484,
0,607,639,180,249,479,
0,598,630,178,247,473,
0,590,622,176,245,467,
0,583,614,176,243,462,
0,576,613,174,265,457,
0,644,715,172,263,452,
0,635,702,172,259,448,
0,627,691,169,257,443,
0,619,681,168,255,439,
0,611,671,167,253,492,
0,603,662,166,251,487,
0,594,653,164,249,481,
0,587,644,163,247,474,
0,579,636,162,244,470,
0,573,660,161,249,464,
0,641,672,159,248,459,
0,632,660,159,244,455,
0,624,652,158,243,449,
0,616,643,156,241,446,
0,608,633,180,239,483,
0,601,625,179,237,477,
0,591,617,176,235,472,
0,584,609,175,233,465,
0,577,601,174,231,461,
0,571,683,172,263,455,
0,643,671,171,259,451,
0,635,659,169,257,447,
0,627,651,167,255,441,
0,619,641,167,252,499,
0,611,633,203,250,494,
0,603,625,201,248,487,
0,594,616,199,246,481,
0,587,608,197,243,476,
0,579,600,195,242,472,
0,580,700,193,263,466,
0,647,688,192,259,461,
0,638,675,191,257,455,
0,630,666,189,255,451,
0,622,657,195,252,511,
0,614,647,193,251,504,
0,606,639,192,248,499,
0,596,631,190,247,492,
0,590,623,188,244,487,
0,583,615,187,243,481,
0,639,718,185,262,476,
0,639,706,184,259,472,
0,632,693,183,257,466,
0,623,683,180,255,462,
0,615,673,193,252,476,
0,608,664,191,250,470,
0,600,655,190,248,464,
0,591,646,188,246,459,
0,583,638,185,244,454,
0,576,630,184,277,449,
0,641,729,183,275,445,
0,632,718,181,273,440,
0,623,704,179,270,436,
0,615,695,178,268,432,
0,608,684,177,265,483,
0,600,675,176,263,478,
0,592,665,175,262,472,
0,583,657,173,259,466,
0,575,647,172,257,461,
0,570,675,170,257,455,
0,632,696,169,255,451,
0,623,686,167,254,447,
0,615,673,167,251,442,
0,607,664,166,248,438,
0,600,655,164,247,482,
0,591,646,163,244,476,
0,584,637,162,243,471,
0,575,628,160,241,464,
0,569,621,159,239,460,
0,563,677,158,268,455,
0,622,666,157,266,450,
0,614,657,156,263,446,
0,606,646,155,261,440,
0,598,637,153,259,496,
0,591,628,175,255,492,
0,583,620,173,254,487,
0,575,611,172,252,481,
0,568,604,169,250,475,
0,561,597,167,248,470,
0,562,695,167,270,465,
0,624,683,166,267,460,
0,615,673,164,264,455,
0,608,662,163,262,450,
0,600,652,164,259,483,
0,592,643,167,257,478,
0,585,635,167,255,472,
0,575,626,165,253,467,
0,569,617,163,251,461,
0,563,610,162,249,455,
0,630,603,160,271,451,
0,639,595,159,268,447,
0,630,588,158,265,443,
0,622,579,157,263,438,
0,614,573,175,260,487,
0,606,566,172,259,481,
0,599,560,171,255,476,
0,590,553,169,254,471,
0,583,547,167,252,464,
0,575,542,167,268,460,
0,647,655,166,267,455,
0,638,647,163,265,449,
0,630,638,163,263,445,
0,622,626,161,259,440,
0,614,618,174,257,489,
0,606,609,172,255,483,
0,598,601,171,254,479,
0,589,595,169,252,473,
0,582,587,167,249,467,
0,575,632,167,268,462,
0,653,671,165,265,456,
0,643,661,163,263,451,
0,635,652,162,262,448,
0,627,639,161,258,451,
0,619,632,209,255,504,
0,611,624,207,254,497,
0,604,615,205,252,492,
0,594,608,204,249,487,
0,587,600,201,248,480,
0,580,657,199,248,475,
0,623,647,198,246,470,
0,614,638,196,243,464,
0,606,629,195,242,460,
0,599,619,193,240,496,
0,591,610,193,238,489,
0,583,602,191,236,484,
0,576,595,190,233,479,
0,568,587,188,231,473,
0,562,579,187,231,467,
0,563,695,185,263,462,
0,622,683,184,260,457,
0,614,673,182,259,452,
0,606,662,180,255,448,
0,598,652,182,254,501,
0,591,643,183,251,495,
0,583,635,182,249,489,
0,575,626,180,247,483,
0,568,617,179,245,479,
0,561,610,177,243,472,
0,626,699,176,255,467,
0,643,688,174,252,462,
0,635,678,172,250,457,
0,627,665,172,248,452,
0,619,657,190,246,504,
0,611,647,188,243,497,
0,604,639,187,241,492,
0,595,631,185,240,487,
0,587,623,184,238,481,
0,580,615,182,252,475,
0,644,693,180,255,470,
0,635,683,179,254,464,
0,627,673,177,252,460,
0,619,661,176,249,455,
0,611,652,177,247,499,
0,603,643,176,244,494,
0,595,635,174,243,488,
0,588,627,172,240,483,
0,579,619,171,239,478,
0,573,636,169,241,472,
0,639,655,167,240,467,
0,632,646,167,238,462,
0,624,638,166,236,456,
0,615,627,164,233,458,
0,608,618,176,231,513,
0,600,610,174,230,507,
0,591,602,172,228,502,
0,585,595,171,226,496,
0,575,588,169,225,491,
0,570,697,167,242,484,
0,653,698,166,240,479,
0,643,688,165,238,474,
0,636,679,163,236,469,
0,627,666,163,234,483,
0,619,657,206,231,478,
0,611,647,204,230,472,
0,604,639,201,227,467,
0,596,632,199,226,463,
0,588,623,198,224,457,
0,581,710,196,263,451,
0,639,698,195,262,448,
0,630,688,193,259,443,
0,622,678,192,257,439,
0,614,665,191,255,478,
0,606,656,190,252,472,
0,599,647,188,251,467,
0,591,639,187,248,462,
0,583,631,185,246,457,
0,575,622,184,244,452,
0,625,755,182,262,446,
0,627,742,180,259,441,
0,618,731,179,257,438,
0,611,720,177,255,433,
0,603,707,186,253,472,
0,595,697,184,249,467,
0,588,688,183,248,462,
0,580,678,181,246,455,
0,574,668,179,243,451,
0,566,659,178,259,447,
0,627,723,176,259,440,
0,617,711,175,255,436,
0,609,702,174,254,432,
0,601,692,172,252,428,
0,595,679,192,249,468,
0,587,670,190,248,463,
0,579,661,188,246,458,
0,572,652,187,243,454,
0,566,643,185,241,448,
0,558,652,183,259,444,
0,648,671,182,257,438,
0,639,663,179,254,433,
0,632,653,179,252,430,
0,623,643,177,250,425,
0,615,633,216,248,421,
0,607,625,213,246,417,
0,600,617,211,243,413,
0,591,609,209,241,409,
0,585,602,207,239,406,
0,577,711,205,259,402,
0,636,705,204,255,397,
0,627,695,202,255,394,
0,619,684,199,252,391,
0,611,675,199,249,433,
0,603,664,209,248,440,
0,595,654,207,246,435,
0,588,646,206,243,430,
0,581,636,204,241,425,
0,574,628,202,240,422,
0,571,722,199,258,417,
0,636,710,199,255,412,
0,627,700,197,253,408,
0,620,689,195,251,403,
0,612,679,205,249,455,
0,604,668,221,246,449,
0,596,659,219,243,445,
0,590,649,216,242,440,
0,582,641,215,240,435,
0,575,632,214,238,432,
0,626,707,211,273,425,
0,638,696,209,270,422,
0,630,686,207,268,417,
0,622,676,206,265,412,
0,614,667,204,263,454,
0,606,655,203,260,448,
0,598,647,201,259,443,
0,591,638,199,255,439,
0,583,630,198,254,433,
0,577,622,196,263,430,
0,631,704,194,263,423,
0,621,692,193,262,419,
0,614,683,191,259,415,
0,605,672,190,257,412,
0,598,664,212,255,409,
0,590,652,210,252,405,
0,583,643,207,250,401,
0,575,635,207,248,398,
0,569,626,204,246,393,
0,563,652,203,271,391,
0,625,696,201,268,386,
0,617,686,199,266,383,
0,609,676,198,263,380,
0,601,667,195,262,376,
0,594,657,195,259,432,
0,586,646,195,257,428,
0,579,638,192,255,423,
0,572,629,191,252,419,
0,566,621,190,251,415,
0,560,699,188,268,411,
0,626,688,186,264,405,
0,617,677,185,263,401,
0,609,668,184,260,397,
0,601,658,182,258,447,
0,594,649,231,255,459,
0,587,638,230,254,454,
0,579,630,227,252,448,
0,572,622,225,248,444,
0,566,614,224,248,440,
0,560,688,222,280,435,
0,642,676,220,278,428,
0,633,667,217,275,424,
0,625,657,216,272,420,
0,617,647,214,271,476,
0,609,639,212,268,471,
0,601,628,211,265,465,
0,594,620,209,263,460,
0,587,612,207,260,455,
0,580,605,206,259,451,
0,631,687,204,260,445,
0,643,675,202,258,440,
0,635,665,200,255,435,
0,627,656,199,254,431,
0,619,647,240,252,436,
0,611,639,237,249,432,
0,603,628,235,247,427,
0,595,620,233,246,423,
0,588,611,231,243,419,
0,582,604,229,263,415,
0,643,688,227,265,411,
0,633,678,225,263,406,
0,625,668,223,260,402,
0,616,658,221,258,398,
0,609,649,220,255,451,
0,601,639,217,254,446,
0,594,630,216,251,440,
0,587,621,215,249,435,
0,579,613,212,247,432,
0,572,632,211,265,428,
0,639,679,209,263,423,
0,631,669,207,260,417,
0,623,659,206,259,413,
0,615,651,204,255,415,
0,607,641,206,254,457,
0,600,633,204,252,452,
0,591,622,203,249,448,
0,584,615,200,248,443,
0,577,606,199,245,439,
0,571,668,198,248,434,
0,628,658,196,244,430,
0,620,648,195,243,423,
0,612,639,193,241,419,
0,604,632,192,239,471,
0,596,623,191,237,467,
0,589,614,189,236,462,
0,582,604,188,233,455,
0,575,596,186,231,451,
0,568,590,184,230,447,
0,562,708,184,240,442,
0,639,696,182,238,438,
0,631,687,180,236,432,
0,623,676,179,234,428,
0,615,667,180,231,481,
0,607,657,199,230,475,
0,600,647,198,228,470,
0,591,638,195,226,463,
0,584,630,194,224,459,
0,577,621,192,223,455,
0,571,648,191,258,449,
0,649,639,190,255,444,
0,639,630,188,254,440,
0,632,622,185,251,435,
0,624,613,187,248,475,
0,615,606,185,247,468,
0,608,596,184,244,463,
0,600,589,183,242,459,
0,593,582,181,240,454,
0,586,575,179,257,449,
0,611,673,179,257,444,
0,636,664,177,255,440,
0,627,655,175,252,434,
0,619,646,174,250,430,
0,611,636,201,248,425,
0,603,627,199,246,421,
0,595,617,198,243,417,
0,588,609,195,241,413,
0,582,601,195,240,409,
0,575,624,193,255,406,
0,643,671,191,254,401,
0,636,661,190,252,398,
0,627,652,188,249,393,
0,619,643,186,247,391,
0,611,634,206,245,444,
0,604,625,204,243,440,
0,596,615,203,240,435,
0,589,608,201,239,430,
0,582,600,199,236,425,
0,575,694,198,262,422,
0,643,700,196,259,417,
0,632,689,194,255,412,
0,624,679,192,254,408,
0,615,670,191,252,419,
0,608,660,209,250,415,
0,600,652,207,248,411,
0,593,639,206,246,407,
0,585,632,204,243,403,
0,579,624,203,241,399,
0,572,710,201,251,395,
0,627,699,199,248,391,
0,617,688,197,246,387,
0,609,678,195,244,384,
0,601,668,204,242,438,
0,594,659,230,240,433,
0,587,651,228,238,428,
0,579,639,226,236,423,
0,572,632,224,233,419,
0,566,623,222,231,415,
0,560,711,220,251,411,
0,633,700,218,248,407,
0,623,689,216,246,403,
0,615,679,214,243,398,
0,608,670,258,242,443,
0,600,660,254,240,438,
0,592,652,252,238,433,
0,585,641,249,236,428,
0,578,632,247,233,423,
0,571,624,245,254,419,
0,600,711,243,258,415,
0,647,701,241,255,412,
0,636,691,239,254,408,
0,628,681,236,252,402,
0,621,671,235,249,451,
0,612,662,232,248,446,
0,605,653,231,245,440,
0,598,642,229,243,436,
0,590,633,227,240,432,
0,583,652,225,263,428,
0,647,705,224,260,423,
0,639,694,222,258,419,
0,628,684,220,255,415,
0,620,674,218,254,409,
0,612,665,216,252,460,
0,604,655,215,249,455,
0,597,647,213,248,450,
0,590,636,211,245,445,
0,583,628,210,243,440,
0,575,707,208,260,436,
0,643,696,207,257,432,
0,635,685,205,255,428,
0,624,675,204,253,423,
0,615,665,202,251,467,
0,608,657,207,248,475,
0,600,647,204,247,470,
0,593,639,203,244,463,
0,585,628,201,242,460,
0,579,620,199,240,455,
0,572,670,199,259,449,
0,652,659,197,257,445,
0,643,649,195,255,440,
0,633,641,220,252,436,
0,625,632,217,250,486,
0,616,624,216,248,480,
0,609,615,214,246,475,
0,601,608,212,243,469,
0,594,599,210,241,463,
0,587,591,209,240,460,
0,580,660,207,254,454,
0,647,651,205,252,449,
0,639,641,204,249,445,
0,628,632,201,248,440,
0,620,624,218,245,491,
0,612,615,216,243,485,
0,604,608,214,241,480,
0,598,600,211,239,475,
0,590,591,210,236,469,
0,583,583,208,240,464,
0,604,667,207,251,459,
0,647,657,205,248,454,
0,639,647,204,247,449,
0,629,639,201,244,444,
0,621,631,205,242,486,
0,613,622,204,240,480,
0,605,614,201,238,475,
0,598,606,199,236,470,
0,591,595,198,233,463,
0,583,628,197,273,460,
0,642,675,195,270,454,
0,633,665,194,268,449,
0,625,656,192,265,445,
0,615,647,191,263,440,
0,607,639,210,261,487,
0,600,630,208,259,481,
0,591,622,207,256,476,
0,584,614,204,254,471,
0,578,604,203,252,465,
0,571,671,201,267,460,
0,643,667,199,263,455,
0,635,656,198,262,451,
0,626,647,196,259,446,
0,615,639,194,257,454,
0,608,630,193,255,455,
0,600,622,191,253,449,
0,593,614,190,251,445,
0,586,606,188,249,440,
0,579,596,187,247,435,
0,572,681,185,260,432,
0,652,671,184,257,428,
0,642,661,183,255,423,
0,633,652,182,253,419,
0,624,643,180,252,465,
0,615,635,192,248,460,
0,608,625,191,247,455,
0,600,617,189,245,449,
0,593,609,188,243,444,
0,585,600,185,240,440,
0,579,664,184,255,435,
0,656,653,183,254,431,
0,647,644,182,251,427,
0,637,636,180,249,423,
0,628,627,179,248,479,
0,620,619,177,244,473,
0,613,610,176,243,467,
0,605,602,175,241,463,
0,598,595,174,239,457,
0,591,585,172,244,453,
0,594,655,171,250,448,
0,631,645,169,248,444,
0,622,636,167,246,439,
0,611,627,167,243,434,
0,604,619,176,241,429,
0,596,611,174,240,424,
0,589,603,172,238,420,
0,582,595,171,236,416,
0,575,588,170,233,412,
0,568,591,168,263,408,
0,647,645,167,262,405,
0,641,636,166,259,401,
0,633,627,165,257,398,
0,622,619,163,255,393,
0,615,611,184,252,443,
0,607,602,183,251,438,
0,600,595,181,248,433,
0,591,587,179,246,429,
0,585,579,177,244,423,
0,578,660,176,263,420,
0,635,669,175,261,415,
0,626,659,174,259,412,
0,617,651,172,255,408,
0,608,641,171,254,403,
0,600,632,172,252,460,
0,592,624,170,250,455,
0,585,615,168,248,449,
0,578,608,167,246,444,
0,572,600,167,243,440,
0,566,676,165,251,435,
0,627,665,163,248,431,
0,618,656,163,246,427,
0,610,647,161,244,422,
0,600,638,159,242,435,
0,593,630,163,240,473,
0,585,621,161,238,467,
0,579,614,160,236,463,
0,572,606,159,235,457,
0,565,595,158,232,453,
0,559,652,157,239,448,
0,653,643,156,236,444,
0,644,633,155,235,439,
0,636,625,153,232,435,
0,625,615,152,231,468,
0,617,608,163,229,461,
0,609,600,161,227,455,
0,601,592,159,225,451,
0,595,585,159,224,446,
0,588,575,157,223,441,
0,598,654,156,248,437,
0,628,644,155,246,432,
0,620,636,153,244,428,
0,611,627,152,242,423,
0,603,619,171,240,473,
0,595,610,167,238,467,
0,588,602,167,236,461,
0,579,594,165,234,455,
0,574,587,163,231,451,
0,567,600,163,231,447,
0,628,655,161,238,441,
0,627,646,159,236,438,
0,619,637,158,233,433,
0,611,628,157,231,428,
0,601,620,176,230,479,
0,593,611,173,228,472,
0,587,604,172,227,467,
0,579,596,170,224,462,
0,572,588,168,223,456,
0,566,651,167,241,451,
0,631,650,166,241,447,
0,622,641,164,239,442,
0,614,632,163,237,438,
0,606,624,162,235,433,
0,596,615,179,233,481,
0,589,607,177,231,475,
0,582,600,176,230,470,
0,575,591,174,227,464,
0,568,583,172,225,460,
0,561,655,172,255,455,
0,643,643,170,253,450,
0,634,635,168,251,445,
0,625,627,167,248,441,
0,617,617,166,246,455,
0,608,609,179,244,489,
0,600,601,178,241,482,
0,593,593,176,240,477,
0,585,587,176,238,472,
0,579,579,174,236,467,
0,572,679,172,251,462,
0,638,668,171,248,456,
0,628,658,169,246,452,
0,620,649,207,243,448,
0,612,639,204,241,507,
0,603,632,201,240,499,
0,595,623,199,238,492,
0,588,615,198,236,487,
0,581,607,196,234,481,
0,574,599,195,231,476,
0,587,673,193,263,472,
0,636,664,192,260,466,
0,628,655,190,258,462,
0,620,645,188,255,456,
0,611,636,194,254,504,
0,602,627,192,252,499,
0,595,620,190,249,492,
0,588,611,188,248,486,
0,580,603,187,245,481,
0,574,595,185,243,476,
0,625,691,184,251,471,
0,619,679,183,248,465,
0,610,671,182,247,461,
0,603,661,179,244,455,
0,595,652,188,243,511,
0,585,643,186,240,504,
0,579,634,184,239,497,
0,572,626,183,236,492,
0,565,617,182,235,486,
0,559,610,180,248,481,
0,639,681,179,248,476,
0,630,671,177,245,471,
0,621,662,176,243,465,
0,613,653,175,241,460,
0,606,644,187,239,499,
0,595,636,184,237,494,
0,588,627,183,235,487,
0,582,619,182,233,481,
0,575,611,179,231,476,
0,568,652,179,254,472,
0,647,667,177,251,466,
0,637,657,176,248,462,
0,628,647,174,246,456,
0,620,639,173,244,470,
0,612,631,172,242,516,
0,603,623,170,240,508,
0,595,614,168,238,504,
0,588,606,167,236,497,
0,582,599,166,234,492,
0,575,671,165,259,487,
0,663,658,163,255,481,
0,654,649,163,253,476,
0,645,639,161,251,472,
0,636,632,160,248,540,
0,628,623,179,246,536,
0,619,615,177,244,527,
0,611,607,176,242,522,
0,603,600,174,240,516,
0,595,591,172,238,511,
0,615,694,171,271,504,
0,663,680,169,268,499,
0,654,671,167,265,494,
0,644,662,167,263,488,
0,636,652,166,262,540,
0,628,643,164,259,534,
0,619,635,163,257,526,
0,611,626,161,255,519,
0,604,617,159,252,514,
0,596,610,159,251,508,
0,658,696,158,259,503,
0,667,681,157,255,497,
0,657,671,156,254,492,
0,648,662,155,252,487,
0,639,654,173,249,519,
0,632,644,172,248,514,
0,622,636,169,246,507,
0,614,627,167,243,500,
0,607,619,167,242,495,
0,600,611,166,257,489,
0,644,670,164,257,484,
0,635,657,163,254,480,
0,627,648,161,252,475,
0,619,639,159,249,470,
0,611,631,182,248,508,
0,603,622,179,246,503,
0,593,614,178,243,496,
0,587,606,176,241,491,
0,579,599,175,240,486,
0,574,659,174,257,480,
0,639,692,172,255,475,
0,630,679,171,252,470,
0,622,670,232,249,465,
0,614,660,230,248,474,
0,606,652,231,245,519,
0,599,643,228,243,513,
0,590,633,226,241,506,
0,583,625,224,239,500,
0,575,617,222,237,495,
0,569,702,220,255,489,
0,627,690,219,253,484,
0,619,678,217,251,480,
0,611,668,216,248,473,
0,603,658,214,247,531,
0,595,649,211,244,524,
0,586,639,210,242,518,
0,579,632,207,240,510,
0,572,624,206,238,504,
0,566,615,204,236,499,
0,573,696,203,258,494,
0,632,685,201,255,487,
0,623,672,199,253,483,
0,615,664,198,251,478,
0,607,654,200,248,534,
0,600,645,199,247,527,
0,591,636,198,244,521,
0,583,627,195,243,513,
0,575,620,195,240,508,
0,569,611,193,240,503,
0,639,721,192,269,496,
0,643,710,190,267,492,
0,635,697,188,263,487,
0,627,687,187,262,481,
0,619,678,192,259,520,
0,611,668,191,257,514,
0,601,659,189,255,508,
0,594,649,188,253,502,
0,587,641,186,251,496,
0,580,633,184,254,491,
0,632,678,183,252,485,
0,624,665,182,249,480,
0,615,656,180,248,475,
0,608,647,179,245,470,
0,600,639,185,243,524,
0,592,630,184,241,519,
0,583,622,182,239,512,
0,576,614,180,237,505,
0,569,606,179,236,500,
0,563,655,177,263,495,
0,632,694,176,260,489,
0,623,684,175,259,483,
0,614,671,174,255,479,
0,606,662,172,253,483,
0,599,652,175,251,532,
0,591,643,174,248,526,
0,582,635,172,247,519,
0,575,627,170,245,512,
0,568,619,169,243,507,
0,563,695,167,290,501,
0,625,683,167,287,496,
0,617,671,166,284,491,
0,609,662,164,280,486,
0,601,652,163,279,515,
0,594,643,161,276,508,
0,587,635,160,273,503,
0,577,626,159,271,497,
0,571,618,158,270,491,
0,564,610,157,268,486,
0,573,699,156,281,480,
0,636,688,155,279,475,
0,627,675,153,276,470,
0,619,665,152,273,465,
0,611,656,159,271,516,
0,603,647,164,269,510,
0,595,639,163,267,504,
0,587,630,161,264,499,
0,579,622,159,263,492,
0,572,614,159,260,487,
0,636,691,157,269,481,
0,634,680,156,267,476,
0,625,669,155,264,472,
0,617,659,153,262,466,
0,609,651,176,259,510,
0,602,641,174,257,504,
0,595,632,172,255,497,
0,585,624,170,254,492,
0,579,615,168,252,486,
0,572,614,167,275,480,
0,622,717,166,278,475,
0,613,706,164,275,470,
0,606,692,163,272,465,
0,598,683,162,270,460,
0,590,673,194,267,455,
0,583,664,192,265,451,
0,575,655,190,263,447,
0,568,647,188,260,443,
0,561,638,187,259,438,
0,555,679,184,275,433,
0,639,711,184,273,428,
0,630,700,182,271,425,
0,622,688,180,268,421,
0,614,679,179,265,423,
0,606,668,177,263,473,
0,598,659,176,260,468,
0,590,651,175,259,463,
0,582,642,173,255,458,
0,575,633,172,255,452,
0,568,710,171,263,448,
0,625,698,169,260,443,
0,617,688,167,259,438,
0,609,675,167,255,433,
0,601,665,166,254,478,
0,594,656,176,252,478,
0,587,647,175,249,472,
0,579,639,173,248,467,
0,571,631,172,246,462,
0,564,622,170,243,455,
0,561,708,169,267,451,
0,627,697,167,264,446,
0,620,687,166,263,441,
0,611,675,164,260,437,
0,604,665,166,257,491,
0,595,656,170,255,484,
0,588,647,168,252,479,
0,582,639,167,251,473,
0,572,630,166,248,468,
0,566,622,164,247,463,
0,620,723,163,268,457,
0,636,711,161,266,452,
0,627,702,160,263,448,
0,620,688,159,262,444,
0,611,679,158,259,496,
0,604,670,157,257,489,
0,596,660,156,255,484,
0,589,652,155,252,479,
0,580,643,153,251,473,
0,574,635,152,265,467,
0,646,700,151,265,462,
0,636,689,150,263,457,
0,627,679,150,262,452,
0,620,667,148,259,448,
0,612,658,178,255,507,
0,604,649,176,254,500,
0,596,639,175,252,495,
0,590,632,173,249,489,
0,580,624,171,248,483,
0,574,665,169,270,478,
0,630,716,167,267,472,
0,621,704,167,263,467,
0,612,695,166,262,463,
0,605,681,164,259,458,
0,598,671,194,257,500,
0,590,664,192,255,495,
0,583,654,190,253,489,
0,575,646,188,251,484,
0,568,636,187,248,479,
0,561,728,185,271,472,
0,600,728,184,268,467,
0,591,716,182,265,463,
0,583,706,180,263,457,
0,577,693,179,260,486,
0,569,684,179,259,480,
0,563,674,179,255,473,
0,556,664,177,254,468,
0,550,655,176,252,463,
0,542,647,174,249,457,
0,540,721,173,275,452,
0,606,710,171,273,448,
0,598,699,169,271,444,
0,591,689,168,268,439,
0,583,677,167,265,489,
0,575,668,172,263,484,
0,569,658,171,262,479,
0,562,649,169,259,473,
0,556,639,167,257,467,
0,547,632,166,255,462,
0,588,730,164,291,456,
0,604,719,163,287,452,
0,595,707,172,286,448,
0,588,697,195,283,443,
0,580,685,194,280,482,
0,574,675,192,278,476,
0,567,666,191,275,472,
0,560,657,189,272,466,
0,553,647,188,271,461,
0,545,639,185,275,455,
0,622,743,184,275,450,
0,612,732,183,273,445,
0,604,720,181,271,440,
0,596,710,179,268,436,
0,589,697,179,265,475,
0,582,688,177,263,469,
0,575,678,176,262,463,
0,568,668,174,259,459,
0,561,659,173,257,454,
0,553,661,171,284,448,
0,638,719,169,280,444,
0,628,707,167,278,439,
0,620,697,167,275,435,
0,612,688,166,273,431,
0,604,675,167,270,452,
0,597,666,165,268,448,
0,590,657,163,265,443,
0,583,647,163,263,438,
0,575,639,161,261,433,
0,568,723,159,281,428,
0,600,728,159,279,423,
0,591,718,158,276,420,
0,584,707,156,274,415,
0,577,696,155,271,457,
0,571,684,169,269,464,
0,563,675,167,267,459,
0,557,665,167,263,454,
0,551,656,166,262,449,
0,543,647,164,260,444,
0,537,741,163,312,439,
0,572,729,161,310,434,
0,564,718,159,307,430,
0,558,707,163,304,425,
0,551,697,162,301,472,
0,543,685,163,297,465,
0,537,675,161,295,460,
0,531,666,159,292,455,
0,526,657,159,290,451,
0,519,647,158,288,446,
0,577,744,156,297,440,
0,590,732,155,295,435,
0,583,721,153,291,432,
0,575,711,152,289,427,
0,568,700,157,287,481,
0,561,688,156,284,475,
0,555,679,155,281,470,
0,547,669,153,280,464,
0,542,659,152,277,460,
0,534,652,151,284,455,
0,590,740,150,284,448,
0,582,728,148,282,444,
0,574,718,147,280,440,
0,567,707,146,278,435,
0,560,697,159,275,482,
0,553,685,159,272,476,
0,547,675,157,270,471,
0,540,666,156,268,466,
0,534,657,155,266,461,
0,527,659,153,289,455,
0,614,715,152,287,449,
0,605,704,151,284,445,
0,598,694,149,281,440,
0,590,684,148,280,436,
0,583,674,153,277,480,
0,575,663,152,274,474,
0,568,654,151,271,468,
0,562,644,150,270,463,
0,555,636,148,267,459,
0,547,705,147,274,454,
0,614,705,146,271,448,
0,605,696,145,268,444,
0,598,685,143,267,439,
0,590,675,143,263,434,
0,583,664,163,263,430,
0,575,655,161,259,425,
0,568,646,159,258,422,
0,561,637,159,255,417,
0,555,629,158,254,414,
0,547,723,156,276,409,
0,595,711,155,274,405,
0,587,700,153,271,401,
0,579,691,152,270,398,
0,572,679,152,268,450,
0,566,668,155,265,444,
0,559,659,153,263,440,
0,551,651,152,260,435,
0,545,642,152,258,430,
0,539,633,151,255,427,
0,590,692,150,268,422,
0,615,681,147,265,415,
0,608,671,147,263,412,
0,600,663,145,260,408,
0,592,653,193,259,446,
0,585,642,191,255,440,
0,578,633,189,254,435,
0,571,625,188,252,432,
0,564,617,185,250,427,
0,558,609,184,268,423,
0,600,716,183,277,418,
0,591,704,181,275,412,
0,583,695,179,271,408,
0,575,684,178,270,405,
0,569,675,183,268,454,
0,561,664,182,265,448,
0,555,654,179,263,444,
0,548,645,178,260,439,
0,543,636,177,258,434,
0,536,646,176,280,430,
0,611,718,174,278,425,
0,603,707,172,275,420,
0,595,696,171,273,415,
0,588,687,169,270,412,
0,580,677,167,268,463,
0,574,665,167,265,459,
0,567,655,166,263,454,
0,560,647,164,261,449,
0,553,639,163,259,444,
0,547,721,162,302,440,
0,624,745,160,298,435,
0,615,734,159,295,429,
0,607,723,158,293,425,
0,600,711,156,290,421,
0,591,702,171,287,417,
0,583,689,169,286,412,
0,577,679,167,283,408,
0,571,671,167,280,404,
0,563,662,166,278,401,
0,558,761,164,280,397,
0,618,748,163,278,393,
0,609,736,161,275,390,
0,602,726,159,273,386,
0,593,715,164,271,448,
0,587,705,183,269,443,
0,579,693,182,267,438,
0,573,683,179,263,433,
0,566,673,178,262,428,
0,559,664,177,259,423,
0,553,747,176,286,419,
0,605,735,173,284,415,
0,597,723,172,281,411,
0,590,713,171,279,407,
0,583,704,174,276,452,
0,575,693,172,273,448,
0,568,680,171,271,443,
0,561,671,169,269,438,
0,555,663,167,267,433,
0,548,654,167,278,429,
0,575,760,165,283,423,
0,612,748,163,280,420,
0,605,736,163,278,415,
0,597,726,161,275,411,
0,590,715,159,273,467,
0,582,704,159,271,462,
0,575,692,158,268,455,
0,568,683,156,265,451,
0,561,673,155,263,446,
0,555,681,154,281,441,
0,617,751,152,280,437,
0,609,739,152,278,432,
0,601,728,151,275,427,
0,593,718,149,273,423,
0,587,707,172,271,482,
0,579,697,171,268,476,
0,572,685,169,265,471,
0,566,675,167,263,466,
0,559,666,167,262,460,
0,552,736,165,284,455,
0,604,739,163,280,451,
0,593,728,162,278,446,
0,586,716,161,275,440,
0,579,705,159,273,479,
0,572,696,168,271,481,
0,565,686,167,268,476,
0,558,674,166,265,471,
0,551,665,164,263,465,
0,545,655,163,262,460,
0,540,749,162,271,455,
0,633,736,160,269,451,
0,623,725,159,267,445,
0,615,715,158,263,440,
0,607,704,167,263,483,
0,600,694,189,259,476,
0,591,684,188,257,471,
0,584,672,185,255,465,
0,577,664,184,253,460,
0,571,655,183,252,455,
0,564,732,181,281,451,
0,627,719,179,279,447,
0,615,708,177,275,440,
0,608,699,176,273,436,
0,600,688,193,271,495,
0,593,679,192,269,487,
0,585,670,190,267,483,
0,578,657,188,263,478,
0,572,649,187,262,472,
0,564,641,185,275,467,
0,582,744,184,284,463,
0,631,733,182,281,457,
0,620,722,180,279,451,
0,612,711,179,276,447,
0,605,702,183,274,495,
0,597,691,181,271,488,
0,590,681,179,270,483,
0,582,670,178,267,478,
0,575,660,176,264,472,
0,568,664,176,284,467,
0,624,732,174,281,463,
0,625,721,172,280,457,
0,615,710,171,276,451,
0,608,700,169,275,448,
0,600,690,191,271,489,
0,592,679,188,270,483,
0,585,671,187,268,478,
0,577,659,185,264,472,
0,571,651,184,263,467,
0,564,716,183,269,463,
0,633,716,181,267,457,
0,625,705,179,263,453,
0,615,696,178,262,448,
0,607,685,176,259,465,
0,600,675,177,257,463,
0,591,667,176,255,459,
0,584,657,175,254,454,
0,577,647,174,251,448,
0,571,638,172,249,444,
0,564,761,171,276,440,
0,624,748,169,273,435,
0,614,737,167,271,431,
0,606,726,167,268,425,
0,599,715,165,267,467,
0,591,704,167,263,461,
0,583,695,166,262,455,
0,576,685,164,259,451,
0,569,673,163,257,446,
0,563,664,162,255,441,
0,557,740,161,267,436,
0,641,728,159,263,432,
0,630,718,159,263,428,
0,622,707,157,260,423,
0,614,697,180,258,486,
0,606,687,179,255,480,
0,599,678,177,254,473,
0,591,668,176,252,468,
0,583,657,174,249,463,
0,577,647,173,252,459,
0,575,721,172,255,454,
0,591,711,169,253,449,
0,583,700,168,251,444,
0,575,690,167,248,439,
0,568,680,167,247,435,
0,561,671,167,244,430,
0,556,662,165,243,425,
0,549,652,163,241,422,
0,543,641,162,239,417,
0,536,659,161,271,414,
0,624,701,159,269,409,
0,637,691,158,266,406,
0,627,680,159,263,402,
0,619,671,158,262,398,
0,611,662,176,259,455,
0,603,652,175,257,450,
0,595,643,173,255,445,
0,588,635,172,253,440,
0,581,625,170,251,436,
0,575,649,168,249,432,
0,690,639,167,247,427,
0,679,631,166,244,423,
0,668,622,164,243,419,
0,659,614,163,241,450,
0,651,606,184,239,472,
0,642,599,183,237,466,
0,634,591,181,236,460,
0,626,583,179,233,455,
0,618,575,178,231,451,
0,611,644,177,231,446,
0,679,635,175,231,441,
0,670,625,174,228,437,
0,659,617,172,227,432,
0,650,609,171,225,504,
0,641,601,174,224,496,
0,633,593,172,222,491,
0,625,585,171,221,486,
0,618,577,169,220,480,
0,610,569,167,217,475,
0,604,622,167,252,470,
0,688,612,166,249,464,
0,678,604,164,248,460,
0,667,596,163,246,455,
0,658,588,167,243,508,
0,649,581,167,241,502,
0,641,574,165,239,496,
0,633,567,163,237,491,
0,625,559,163,235,486,
0,617,552,161,236,480,
0,627,601,159,235,475,
0,676,592,159,233,470,
0,667,585,158,231,465,
0,655,577,156,230,460,
0,647,571,171,227,508,
0,639,563,168,225,502,
0,631,556,167,224,496,
0,623,550,166,222,491,
0,615,542,164,220,486,
0,608,536,163,240,480,
0,681,559,162,238,475,
0,674,551,161,236,470,
0,664,544,159,233,465,
0,654,538,158,231,460,
0,646,532,182,230,512,
0,637,526,179,227,507,
0,629,520,178,226,500,
0,621,515,176,224,495,
0,614,508,175,222,489,
0,606,590,174,257,484,
0,667,601,172,254,480,
0,656,593,171,252,474,
0,647,585,169,249,470,
0,637,577,167,248,464,
0,628,571,202,245,516,
0,621,563,199,243,511,
0,614,556,199,241,504,
0,606,550,196,239,499,
0,599,542,195,237,494,
0,591,624,193,252,488,
0,664,615,192,250,483,
0,654,606,190,248,478,
0,646,598,188,246,473,
0,635,590,187,243,479,
0,627,583,186,241,515,
0,619,575,184,240,509,
0,611,568,183,238,504,
0,604,561,182,236,497,
0,596,552,180,234,492,
0,590,644,179,244,487,
0,656,634,177,243,482,
0,647,625,176,240,476,
0,639,617,175,238,472,
0,629,609,184,236,527,
0,620,600,182,235,519,
0,612,593,180,231,513,
0,606,585,179,231,507,
0,598,578,177,229,502,
0,591,569,176,231,496,
0,620,662,174,245,491,
0,675,652,173,243,486,
0,667,643,172,241,480,
0,657,634,171,239,476,
0,647,626,174,236,524,
0,639,617,172,235,515,
0,632,609,171,232,510,
0,623,601,169,231,504,
0,615,594,167,230,498,
0,608,585,167,238,493,
0,641,583,166,236,487,
0,636,576,164,233,482,
0,627,569,164,231,478,
0,620,563,195,230,472,
0,610,556,216,227,508,
0,601,550,214,226,500,
0,595,543,211,224,495,
0,588,537,210,222,489,
0,580,531,207,221,484,
0,574,575,206,254,480,
0,670,578,204,251,473,
0,660,570,203,248,468,
0,652,563,201,247,463,
0,643,556,199,244,459,
0,632,549,202,242,516,
0,624,542,199,240,511,
0,616,536,199,238,504,
0,609,529,197,236,499,
0,601,523,195,235,494,
0,595,636,194,268,488,
0,648,625,192,264,483,
0,639,617,191,262,478,
0,632,609,190,260,473,
0,623,600,188,257,473,
0,614,592,187,255,511,
0,606,584,185,253,504,
0,598,577,184,251,499,
0,591,571,182,249,493,
0,583,563,180,247,487,
0,577,693,179,249,483,
0,627,681,177,248,477,
0,617,671,176,246,472,
0,610,663,175,243,467,
0,601,653,174,241,489,
0,592,643,172,240,483,
0,585,636,172,238,477,
0,579,627,170,236,472,
0,572,619,168,234,467,
0,565,611,167,231,462,
0,575,713,167,243,457,
0,598,702,165,240,452,
0,590,691,163,239,448,
0,583,681,163,236,444,
0,575,673,188,234,499,
0,567,664,185,231,491,
0,560,654,184,231,486,
0,553,645,182,229,480,
0,547,636,180,227,475,
0,542,628,179,227,470,
0,609,718,177,243,464,
0,622,707,176,241,460,
0,614,696,175,240,455,
0,606,686,173,237,451,
0,599,676,185,236,504,
0,589,667,183,233,496,
0,582,658,181,231,491,
0,575,649,179,230,486,
0,568,641,178,227,480,
0,561,632,177,241,476,
0,650,696,175,239,471,
0,639,686,174,237,465,
0,632,675,172,235,460,
0,624,666,171,233,455,
0,615,657,173,231,510,
0,606,647,172,229,503,
0,598,639,169,227,497,
0,591,631,167,225,492,
0,583,623,167,224,486,
0,577,660,166,240,481,
0,631,683,164,237,476,
0,622,673,163,235,471,
0,614,664,162,233,465,
0,606,655,161,231,463,
0,596,646,195,230,505,
0,589,637,193,227,498,
0,582,628,191,225,492,
0,575,620,190,224,487,
0,568,612,188,222,481,
0,562,726,187,241,476,
0,629,711,184,238,472,
0,620,701,184,236,466,
0,612,691,189,234,462,
0,604,681,187,231,518,
0,595,671,185,230,511,
0,588,663,184,228,504,
0,580,654,182,227,498,
0,574,645,180,224,492,
0,568,636,179,223,487,
0,582,643,177,240,482,
0,647,632,176,237,476,
0,639,624,175,235,472,
0,631,615,174,232,467,
0,622,608,180,231,524,
0,612,600,183,229,516,
0,605,592,180,227,510,
0,598,585,179,225,504,
0,590,579,177,224,497,
0,583,572,176,223,492,
0,647,663,175,254,487,
0,647,650,173,251,482,
0,639,641,172,248,477,
0,631,632,171,247,472,
0,623,624,192,244,528,
0,612,615,189,243,522,
0,605,608,187,240,515,
0,598,600,185,239,508,
0,590,591,184,236,504,
0,583,587,183,240,497,
0,664,679,181,240,492,
0,654,667,179,238,487,
0,645,657,178,236,481,
0,636,648,176,234,476,
0,628,639,198,231,513,
0,618,632,195,230,508,
0,611,623,193,228,500,
0,603,615,192,227,495,
0,595,607,190,225,489,
0,589,647,188,248,484,
0,659,679,187,246,480,
0,649,669,185,243,475,
0,641,659,184,240,470,
0,632,651,183,239,465,
0,625,642,190,236,510,
0,615,633,188,235,504,
0,608,625,185,232,496,
0,600,617,184,231,491,
0,592,609,183,229,486,
0,585,696,182,244,480,
0,676,681,179,241,476,
0,667,671,178,239,471,
0,658,662,177,237,465,
0,649,653,176,236,522,
0,639,644,196,233,525,
0,631,636,195,231,519,
0,623,627,192,230,511,
0,615,619,191,227,505,
0,608,611,189,226,500,
0,611,763,188,270,494,
0,679,745,187,267,489,
0,670,735,184,263,484,
0,661,724,184,262,479,
0,652,713,192,259,534,
0,643,703,199,257,527,
0,633,693,198,255,520,
0,625,684,195,253,513,
0,618,674,194,251,508,
0,611,665,192,249,503,
0,643,718,191,264,496,
0,650,704,190,262,491,
0,641,694,188,259,486,
0,633,684,187,257,481,
0,625,674,191,255,528,
0,616,664,188,253,522,
0,607,655,187,251,516,
0,600,647,185,248,509,
0,592,639,184,247,504,
0,585,631,182,259,498,
0,664,715,180,259,492,
0,654,701,179,256,487,
0,646,691,178,254,482,
0,637,681,176,252,477,
0,630,671,179,249,514,
0,621,663,178,248,508,
0,611,653,176,246,502,
0,604,645,175,243,495,
0,596,636,174,241,489,
0,590,688,172,257,484,
0,657,723,171,255,480,
0,647,710,169,252,475,
0,639,700,203,250,470,
0,632,689,200,248,465,
0,624,679,199,246,460,
0,615,670,198,243,455,
0,606,662,195,241,451,
0,599,652,193,240,446,
0,591,643,192,238,441,
0,584,731,191,255,437,
0,657,719,188,253,432,
0,648,705,187,251,428,
0,639,695,185,248,424,
0,632,685,184,246,476,
0,624,675,190,244,478,
0,615,666,188,242,472,
0,606,657,187,240,467,
0,599,647,185,238,461,
0,591,639,184,236,456,
0,587,711,182,275,451,
0,664,700,180,271,447,
0,654,688,179,269,441,
0,646,678,178,267,438,
0,637,668,177,263,490,
0,629,659,179,262,484,
0,621,649,177,259,479,
0,611,641,176,258,473,
0,604,632,174,255,467,
0,596,625,173,254,462,
0,667,824,172,263,457,
0,700,807,170,262,452,
0,690,792,169,259,448,
0,680,780,167,255,443,
0,671,768,180,255,494,
0,663,756,178,252,487,
0,654,745,176,250,482,
0,643,735,175,248,477,
0,636,724,173,246,471,
0,627,715,172,263,465,
0,655,750,171,263,460,
0,647,738,169,262,455,
0,638,724,167,259,451,
0,630,714,166,257,446,
0,622,704,165,255,504,
0,614,695,163,252,497,
0,607,685,163,251,492,
0,598,675,161,248,484,
0,591,667,159,247,480,
0,583,683,159,263,475,
0,646,733,158,262,470,
0,637,721,156,259,464,
0,628,708,155,255,460,
0,620,699,154,254,455,
0,612,688,198,252,515,
0,604,679,195,249,508,
0,598,669,194,248,503,
0,588,660,192,246,496,
0,582,652,191,243,491,
0,575,766,189,271,484,
0,632,752,188,268,480,
0,624,740,185,265,475,
0,615,728,184,263,470,
0,608,716,183,260,507,
0,600,706,184,258,512,
0,593,696,182,255,505,
0,585,686,181,254,500,
0,577,677,179,252,493,
0,571,668,177,249,487,
0,564,748,176,263,483,
0,632,736,175,261,478,
0,623,724,174,259,472,
0,615,711,172,255,467,
0,607,701,171,254,514,
0,599,691,169,252,508,
0,591,681,167,249,502,
0,584,671,167,248,496,
0,575,664,165,245,489,
0,568,654,164,243,483,
0,569,719,163,260,479,
0,570,707,161,258,473,
0,563,697,167,255,468,
0,556,684,167,252,463,
0,551,675,196,251,513,
0,544,665,193,248,507,
0,539,656,192,247,500,
0,532,647,190,244,496,
0,526,639,188,243,487,
0,519,632,187,266,483,
0,583,657,184,271,478,
0,575,647,184,270,472,
0,568,639,182,268,467,
0,561,627,180,263,463,
0,555,620,179,262,504,
0,547,612,177,259,497,
0,542,605,176,257,492,
0,535,598,175,255,487,
0,527,591,173,254,480,
0,521,620,172,255,475,
0,615,659,171,252,470,
0,606,648,169,249,464,
0,599,639,176,248,460,
0,591,628,175,246,456,
0,583,620,173,243,512,
0,575,612,172,241,505,
0,569,604,170,240,500,
0,561,596,168,238,495,
0,555,589,167,236,487,
0,548,699,166,248,483,
0,628,700,164,247,478,
0,620,689,163,244,472,
0,611,679,162,242,467,
0,604,668,161,240,501,
0,596,659,161,238,500,
0,589,649,160,236,495,
0,582,639,159,233,489,
0,573,632,158,231,483,
0,567,624,156,231,478,
0,560,803,156,250,472,
0,607,788,154,248,467,
0,599,775,153,246,462,
0,591,764,152,243,457,
0,583,750,157,241,512,
0,575,739,174,239,505,
0,569,728,172,237,499,
0,563,717,171,235,494,
0,555,707,169,233,488,
0,548,697,167,231,483,
0,600,708,166,268,477,
0,639,697,164,266,472,
0,632,688,163,263,467,
0,624,679,162,262,462,
0,615,668,164,259,515,
0,608,659,163,255,509,
0,600,649,161,255,504,
0,593,641,159,252,497,
0,583,633,159,250,492,
0,577,625,158,252,486,
0,603,716,156,251,480,
0,595,705,155,248,475,
0,587,696,154,247,470,
0,579,685,152,244,465,
0,573,673,169,242,511,
0,566,664,167,240,505,
0,560,655,167,239,499,
0,553,646,165,236,494,
0,545,638,163,235,488,
0,540,675,162,251,483,
0,641,727,160,248,476,
0,632,716,159,246,472,
0,624,704,158,243,467,
0,615,692,156,241,462,
0,608,682,167,239,503,
0,600,673,166,237,497,
0,593,664,165,235,492,
0,585,655,163,233,486,
0,577,646,162,231,480,
0,571,713,160,241,474,
0,670,702,159,239,468,
0,660,691,158,238,463,
0,652,681,172,236,460,
0,643,670,182,233,492,
0,635,660,222,231,502,
0,627,652,219,229,496,
0,619,643,217,227,489,
0,611,634,216,225,484,
0,601,625,214,224,480,
0,595,807,211,231,473,
0,647,792,209,230,467,
0,638,780,207,227,463,
0,630,768,206,226,458,
0,622,753,204,224,505,
0,614,743,204,222,499,
0,606,732,203,220,494,
0,599,721,201,219,487,
0,591,711,199,217,483,
0,583,701,198,216,478,
0,604,795,196,233,471,
0,615,782,195,231,465,
0,608,769,193,229,461,
0,600,758,192,227,455,
0,591,744,243,225,516,
0,584,733,239,223,510,
0,578,723,236,221,504,
0,571,711,234,219,498,
0,564,702,231,217,493,
0,556,692,230,230,487,
0,647,684,227,231,481,
0,636,674,226,229,476,
0,628,665,224,227,472,
0,620,656,222,225,466,
0,611,646,221,224,508,
0,604,638,220,221,503,
0,596,630,217,219,496,
0,590,622,216,217,491,
0,583,615,214,216,486,
0,574,607,211,235,481,
0,613,631,210,233,473,
0,605,622,209,231,469,
0,597,614,207,229,463,
0,590,606,205,227,460,
0,583,596,206,225,515,
0,575,589,204,223,509,
0,568,583,203,221,504,
0,562,575,201,220,497,
0,556,569,199,217,492,
0,548,637,198,241,487,
0,600,652,196,239,480,
0,591,643,195,236,476,
0,583,635,193,235,471,
0,577,625,192,232,504,
0,569,615,190,231,524,
0,563,608,189,228,517,
0,556,600,188,226,511,
0,550,591,187,224,505,
0,543,583,185,223,499,
0,536,713,184,244,495,
0,624,702,182,242,487,
0,615,691,180,240,483,
0,608,681,179,238,478,
0,600,671,189,236,526,
0,592,659,227,233,519,
0,585,651,225,231,513,
0,578,642,224,230,508,
0,572,633,222,227,502,
0,564,625,220,226,496,
0,583,833,217,232,491,
0,600,817,216,231,484,
0,591,804,221,228,480,
0,583,792,259,227,474,
0,576,780,257,225,534,
0,569,765,254,223,527,
0,563,753,252,220,520,
0,556,743,249,219,515,
0,550,732,248,217,509,
0,543,722,246,226,504,
0,633,711,243,234,497,
0,624,702,241,231,491,
0,615,692,239,230,486,
0,608,684,237,228,481,
0,600,675,235,226,551,
0,591,664,233,224,543,
0,585,655,231,222,537,
0,577,647,230,220,531,
0,571,638,227,219,526,
0,564,632,226,217,519,
0,606,664,224,216,514,
0,598,654,222,214,507,
0,590,645,220,212,502,
0,583,636,219,211,496,
0,575,627,217,209,560,
0,568,618,216,207,553,
0,561,610,214,206,547,
0,555,603,212,204,540,
0,548,595,211,204,534,
0,543,705,209,220,528,
0,639,758,207,217,520,
0,630,745,206,216,515,
0,622,734,204,214,510,
0,614,723,203,212,540,
0,606,713,254,210,560,
0,598,700,251,208,553,
0,591,691,248,207,547,
0,583,681,247,205,540,
0,575,671,244,204,535,
0,570,722,243,231,528,
0,656,710,240,230,521,
0,647,700,242,227,516,
0,639,690,365,225,510,
0,631,679,359,224,560,
0,623,671,356,222,551,
0,615,659,353,219,545,
0,607,651,350,217,539,
0,600,642,347,216,533,
0,592,633,344,214,527,
0,585,814,341,230,521,
0,608,799,337,227,514,
0,600,787,334,225,508,
0,593,775,332,224,503,
0,585,763,328,222,560,
0,579,752,326,220,553,
0,572,737,323,217,547,
0,565,728,320,216,540,
0,559,717,318,215,534,
0,551,707,316,226,528,
0,575,894,313,242,522,
0,655,879,310,240,515,
0,647,864,307,238,510,
0,639,849,305,236,504,
0,630,836,303,234,547,
0,622,823,300,231,540,
0,615,807,297,230,534,
0,607,795,295,227,527,
0,600,783,293,226,522,
0,591,771,291,227,517,
0,623,887,289,225,511,
0,624,870,286,224,504,
0,616,856,351,222,499,
0,608,841,363,220,493,
0,601,828,359,219,543,
0,593,815,356,217,536,
0,587,799,352,215,530,
0,579,787,350,213,524,
0,572,775,347,211,518,
0,567,871,344,248,512,
0,659,886,340,246,507,
0,649,870,336,243,499,
0,639,855,334,241,495,
0,632,840,331,239,523,
0,624,827,327,237,551,
0,615,814,326,235,545,
0,608,799,323,232,539,
0,601,787,319,231,533,
0,593,775,318,230,527,
0,587,766,316,250,521,
0,701,755,312,248,515,
0,691,743,310,246,508,
0,681,734,307,243,504,
0,671,723,304,241,563,
0,664,713,303,239,555,
0,655,704,300,238,547,
0,647,692,297,235,541,
0,638,684,295,232,536,
0,630,675,293,231,529,
0,623,753,291,240,524,
0,620,741,289,238,518,
0,611,729,286,236,511,
0,604,719,284,234,504,
0,598,708,282,231,566,
0,591,698,280,230,559,
0,583,688,278,228,552,
0,577,677,275,226,545,
0,570,668,273,224,540,
0,564,704,271,233,534,
0,603,896,270,251,527,
0,691,896,268,248,521,
0,682,876,265,247,515,
0,672,862,263,244,508,
0,664,847,262,242,562,
0,655,833,259,240,555,
0,647,820,258,238,548,
0,639,804,255,236,542,
0,631,792,255,234,536,
0,623,781,253,240,529,
0,659,803,251,238,524,
0,659,791,248,236,518,
0,652,778,247,233,511,
0,643,767,245,231,505,
0,635,756,243,230,551,
0,626,745,241,228,544,
0,619,732,240,227,538,
0,611,722,238,224,531,
0,604,712,236,223,526,
0,596,783,235,248,520,
0,633,814,233,245,515,
0,623,800,231,243,508,
0,615,788,230,240,502,
0,607,775,228,239,523,
0,600,764,227,236,553,
0,591,753,225,235,547,
0,585,739,224,232,540,
0,577,728,222,231,534,
0,572,718,231,228,528,
0,566,875,338,241,522,
0,656,885,334,239,516,
0,646,868,330,236,511,
0,637,854,327,235,504,
0,628,839,323,233,556,
0,620,827,320,231,548,
0,612,814,318,228,542,
0,605,798,315,227,536,
0,598,786,312,224,529,
0,590,775,310,223,524,
0,583,764,307,236,518,
0,579,752,304,233,512,
0,572,742,356,231,507,
0,564,732,396,230,499,
0,559,721,391,227,516,
0,551,711,387,226,510,
0,546,702,384,224,504,
0,540,691,380,222,499,
0,535,681,377,220,494,
0,528,673,374,224,489,
0,592,764,370,231,483,
0,668,752,367,228,479,
0,657,740,363,227,473,
0,647,729,359,224,468,
0,639,719,357,223,516,
0,632,708,354,221,511,
0,624,699,374,219,504,
0,615,686,369,217,499,
0,608,677,366,215,494,
0,601,668,363,231,487,
0,594,717,359,230,483,
0,588,706,356,227,478,
0,579,696,352,226,472,
0,572,686,349,224,467,
0,566,675,347,222,516,
0,559,667,344,220,510,
0,552,658,340,219,504,
0,547,647,337,216,499,
0,540,639,335,215,493,
0,535,684,332,228,487,
0,529,684,329,226,483,
0,524,673,327,224,478,
0,518,664,487,222,473,
0,512,655,547,220,491,
0,507,646,539,218,513,
0,502,637,532,216,507,
0,497,630,527,215,501,
0,492,620,521,213,496,
0,487,612,515,211,491,
0,483,783,511,217,485,
0,598,769,589,216,480,
0,588,756,639,214,475,
0,579,745,630,211,470,
0,572,734,622,210,527,
0,566,723,615,208,519,
0,559,713,608,207,513,
0,551,703,600,205,508,
0,545,691,593,204,503,
0,540,681,587,202,497,
0,534,680,581,241,492,
0,652,671,575,239,486,
0,643,662,568,237,481,
0,633,653,561,235,476,
0,624,644,556,233,511,
0,616,636,550,231,505,
0,609,628,543,229,499,
0,601,620,539,227,494,
0,594,611,534,225,487,
0,587,604,527,224,483,
0,580,628,523,225,478,
0,588,620,518,223,472,
0,581,611,513,221,468,
0,572,604,507,220,463,
0,566,595,503,217,517,
0,559,589,497,216,511,
0,553,582,493,215,505,
0,547,575,487,212,499,
0,540,568,483,211,494,
0,535,583,480,230,488,
0,547,684,476,229,483,
0,540,674,472,227,479,
0,533,664,689,225,473,
0,526,655,824,224,468,
0,519,647,811,221,524,
0,515,638,799,220,518,
0,509,628,787,217,512,
0,504,620,775,216,506,
0,499,611,765,214,500,
0,494,672,755,227,496,
0,489,665,745,225,489,
0,484,655,736,224,484,
0,480,647,727,221,480,
0,475,638,715,220,493,
0,470,630,707,217,521,
0,466,620,697,216,515,
0,462,612,689,214,508,
0,457,604,681,212,503,
0,454,595,673,211,497,
0,450,647,666,236,492,
0,608,636,658,233,487,
0,600,628,651,231,481,
0,591,619,643,230,476,
0,582,611,675,227,524,
0,575,603,665,226,518,
0,568,595,657,224,511,
0,561,588,648,222,505,
0,555,580,641,220,499,
0,548,572,633,218,495,
0,559,655,627,227,489,
0,711,645,804,225,483,
0,700,636,792,224,479,
0,689,627,780,222,473,
0,678,619,767,220,523,
0,669,611,755,217,516,
0,660,603,745,216,510,
0,652,595,736,215,504,
0,643,588,727,212,499,
0,636,578,717,211,494,
0,628,700,708,227,487,
0,621,689,699,225,483,
0,614,679,853,223,478,
0,606,670,867,221,472,
0,598,660,851,220,528,
0,591,652,838,217,521,
0,583,643,825,216,515,
0,577,634,814,214,510,
0,571,625,802,212,504,
0,564,647,792,225,499,
0,660,807,780,225,493,
0,692,793,769,223,487,
0,683,781,760,221,483,
0,673,769,750,219,478,
0,664,758,738,217,547,
0,654,746,728,216,540,
0,646,736,719,214,534,
0,638,725,711,212,527,
0,630,715,703,211,521,
0,622,743,695,231,516,
0,615,762,686,230,510,
0,608,750,678,227,504,
0,600,739,670,225,499,
0,591,728,663,224,494,
0,585,718,654,222,545,
0,579,707,647,220,539,
0,572,697,639,217,531,
0,566,688,632,216,526,
0,559,679,625,215,519,
0,553,751,620,227,515,
0,676,738,693,225,508,
0,666,727,713,223,503,
0,657,716,704,221,497,
0,647,705,694,219,500,
0,638,696,683,217,540,
0,630,686,675,216,534,
0,622,676,666,214,527,
0,615,668,658,211,521,
0,607,659,650,211,515,
0,600,732,643,223,510,
0,684,719,635,220,504,
0,674,710,627,219,499,
0,664,699,620,217,494,
0,654,689,614,216,548,
0,646,679,606,214,540,
0,638,670,600,211,534,
0,630,660,593,210,527,
0,622,652,588,207,521,
0,614,643,582,207,515,
0,607,745,575,227,510,
0,600,734,570,225,504,
0,592,723,564,223,499,
0,585,712,605,222,494,
0,577,702,696,220,551,
0,571,691,683,217,543,
0,564,682,674,216,536,
0,558,673,665,214,529,
0,551,664,657,212,524,
0,545,655,649,211,518,
0,591,718,641,227,512,
0,615,706,634,225,507,
0,608,696,627,224,501,
0,600,686,620,222,496,
0,591,676,612,220,547,
0,583,667,604,218,539,
0,576,658,597,216,532,
0,570,649,591,215,527,
0,563,639,583,213,520,
0,556,671,579,218,515,
0,639,679,572,223,509,
0,631,670,566,221,504,
0,622,660,560,219,498,
0,614,651,555,217,493,
0,604,642,550,216,552,
0,597,633,543,214,543,
0,590,625,537,211,537,
0,583,617,532,210,531,
0,575,609,527,208,526,
0,569,721,524,222,519,
0,611,709,519,219,514,
0,603,698,513,216,508,
0,595,688,509,215,503,
0,588,678,504,213,502,
0,579,668,500,211,556,
0,572,659,495,209,548,
0,565,651,491,207,542,
0,559,642,486,206,536,
0,551,633,482,204,529,
0,546,703,479,220,524,
0,707,691,473,217,518,
0,697,681,470,216,512,
0,688,671,588,214,507,
0,678,662,580,211,549,
0,667,653,574,210,550,
0,658,644,566,207,542,
0,649,636,560,207,536,
0,641,627,553,204,529,
0,633,619,547,203,524,
0,626,670,542,214,518,
0,627,660,536,211,511,
0,620,651,529,209,506,
0,612,641,524,207,501,
0,605,633,519,206,553,
0,596,624,512,204,545,
0,590,615,507,203,537,
0,583,608,502,201,531,
0,575,601,497,199,525,
0,569,593,492,199,519,
0,581,681,487,224,513,
0,590,671,483,221,508,
0,583,662,479,220,503,
0,575,652,473,217,497,
0,568,643,470,216,492,
0,560,635,464,214,487,
0,554,627,460,212,481,
0,548,618,457,211,476,
0,542,610,453,209,472,
0,536,603,449,216,467,
0,603,691,446,217,462,
0,593,681,442,215,457,
0,586,671,439,213,453,
0,579,662,435,211,448,
0,572,653,432,209,516,
0,563,643,428,207,510,
0,556,635,423,206,503,
0,550,627,420,204,496,
0,543,619,417,203,492,
0,538,633,415,217,487,
0,657,684,412,216,481,
0,647,673,408,213,476,
0,639,664,404,211,471,
0,631,654,401,209,465,
0,623,645,399,207,539,
0,612,636,395,206,532,
0,605,627,391,204,524,
0,598,620,390,203,518,
0,591,611,387,201,512,
0,583,712,384,221,507,
0,589,716,380,218,501,
0,582,705,377,216,496,
0,575,696,376,215,491,
0,568,686,406,212,528,
0,561,675,401,211,547,
0,553,667,396,209,540,
0,547,657,391,207,532,
0,542,648,388,206,526,
0,536,639,385,204,521,
0,530,681,382,223,515,
0,608,668,377,220,509,
0,600,659,375,218,504,
0,592,649,371,216,498,
0,585,639,369,215,551,
0,578,632,366,212,543,
0,569,624,363,211,537,
0,563,615,359,209,529,
0,556,608,358,207,523,
0,550,600,355,206,518,
0,636,745,353,206,512,
0,667,729,351,204,506,
0,657,719,348,202,500,
0,649,708,345,200,496,
0,641,699,399,199,554,
0,632,688,403,198,547,
0,622,679,399,196,539,
0,615,669,395,195,532,
0,608,660,391,193,527,
0,600,652,387,198,521,
0,593,713,384,203,515,
0,587,700,380,199,509,
0,579,689,376,199,504,
0,573,679,372,196,499,
0,567,670,369,195,556,
0,560,660,366,193,549,
0,551,652,363,192,541,
0,546,643,359,191,535,
0,540,635,356,190,528,
0,535,648,353,199,523,
0,542,705,350,197,516,
0,536,692,348,195,511,
0,529,683,455,193,505,
0,524,671,450,192,500,
0,519,664,445,190,540,
0,513,654,440,189,533,
0,507,646,435,188,526,
0,502,637,431,187,519,
0,496,628,427,185,514,
0,492,689,423,199,508,
0,550,678,418,197,503,
0,542,665,415,195,497,
0,536,655,411,193,492,
0,529,647,407,192,516,
0,524,639,568,191,531,
0,518,630,571,189,525,
0,510,622,563,188,518,
0,504,614,556,186,512,
0,499,606,550,184,507,
0,494,742,543,209,500,
0,510,729,537,207,496,
0,504,716,558,205,491,
0,499,705,732,204,485,
0,492,695,719,201,540,
0,487,684,710,199,532,
0,483,675,700,199,526,
0,477,665,689,196,519,
0,472,657,681,195,513,
0,468,647,672,194,508,
0,518,768,664,211,502,
0,574,755,655,209,496,
0,567,742,648,207,491,
0,560,730,641,205,486,
0,552,719,634,204,542,
0,546,710,627,202,536,
0,540,699,620,199,529,
0,531,689,611,199,521,
0,526,679,604,197,515,
0,520,671,599,201,510,
0,599,766,591,211,504,
0,600,754,585,209,499,
0,591,739,579,207,494,
0,583,729,574,206,487,
0,577,718,568,204,552,
0,569,707,562,202,546,
0,561,697,556,199,540,
0,555,688,550,199,531,
0,548,679,543,197,526,
0,542,681,539,203,519,
0,627,743,534,200,514,
0,617,732,527,199,508,
0,609,718,524,197,503,
0,601,707,519,195,497,
0,595,697,513,194,546,
0,587,688,508,192,540,
0,577,678,504,191,534,
0,572,668,498,190,526,
0,564,659,494,188,519,
0,559,747,489,217,514,
0,590,742,485,216,508,
0,582,730,480,214,503,
0,575,716,476,211,497,
0,568,707,472,210,528,
0,560,696,468,207,552,
0,554,686,463,206,545,
0,546,676,460,204,540,
0,540,668,455,203,531,
0,535,659,451,201,526,
0,528,739,448,219,519,
0,639,728,444,217,514,
0,630,716,440,216,508,
0,622,703,436,212,504,
0,614,693,512,211,519,
0,606,683,597,209,512,
0,598,673,589,207,507,
0,589,664,583,206,500,
0,582,655,574,204,494,
0,575,647,568,203,489,
0,593,756,561,219,483,
0,649,743,555,216,479,
0,639,732,549,215,474,
0,632,719,543,212,469,
0,624,709,537,211,535,
0,615,699,531,209,527,
0,608,688,526,207,521,
0,600,679,521,206,515,
0,591,670,514,204,508,
0,584,660,510,205,503,
0,583,718,504,207,497,
0,576,707,499,206,492,
0,570,694,495,204,487,
0,563,684,579,203,481,
0,558,675,572,201,542,
0,551,664,565,199,536,
0,545,655,559,198,529,
0,537,647,552,196,523,
0,531,639,544,195,515,
0,526,646,539,210,510,
0,635,719,533,209,504,
0,625,708,615,207,498,
0,617,696,607,205,493,
0,609,686,600,204,487,
0,602,676,591,201,544,
0,594,667,585,199,537,
0,587,657,579,199,531,
0,579,648,572,197,526,
0,572,639,564,195,518,
0,566,679,559,206,512,
0,560,669,552,204,507,
0,553,659,546,202,501,
0,547,647,540,200,496,
0,540,639,536,199,504,
0,535,631,529,196,519,
0,529,623,524,195,514,
0,524,615,519,194,508,
0,516,607,513,192,503,
0,511,600,508,191,496,
0,506,679,504,211,490,
0,600,668,497,208,485,
0,592,659,493,207,480,
0,585,647,488,204,475,
0,578,639,484,203,543,
0,571,630,480,200,536,
0,564,622,475,199,529,
0,558,614,471,198,524,
0,550,606,465,196,518,
0,543,598,461,195,510,
0,537,670,457,206,504,
0,561,659,453,204,499,
0,554,649,449,203,494,
0,547,639,445,200,488,
0,540,630,441,199,551,
0,535,622,438,197,544,
0,528,614,433,195,537,
0,523,605,430,194,531,
0,515,598,425,192,525,
0,510,591,423,197,519,
0,603,690,419,211,512,
0,614,679,415,209,507,
0,606,669,412,207,502,
0,599,657,409,206,496,
0,591,648,406,204,560,
0,583,639,403,202,553,
0,575,632,399,201,546,
0,569,623,396,199,540,
0,561,615,391,197,534,
0,555,622,390,211,526,
0,583,700,387,210,519,
0,575,689,384,207,515,
0,569,679,380,206,509,
0,562,668,378,204,504,
0,556,658,376,203,556,
0,548,649,372,200,550,
0,543,641,496,199,543,
0,536,632,515,198,536,
0,529,624,507,196,530,
0,524,691,502,212,523,
0,610,700,496,209,517,
0,601,689,491,207,512,
0,594,679,486,206,505,
0,587,668,480,204,531,
0,579,658,476,203,564,
0,572,649,472,201,558,
0,566,639,467,199,551,
0,559,632,462,198,545,
0,551,624,455,195,539,
0,545,768,452,204,531,
0,571,755,448,202,525,
0,564,743,444,199,519,
0,558,732,440,199,513,
0,551,719,435,196,572,
0,543,708,432,195,564,
0,537,697,428,193,558,
0,531,688,423,192,551,
0,526,679,419,191,544,
0,519,669,415,189,538,
0,515,755,412,216,531,
0,540,743,408,214,524,
0,534,732,404,211,519,
0,527,721,401,209,513,
0,521,708,398,207,562,
0,515,697,395,206,555,
0,510,688,391,204,548,
0,504,678,387,203,542,
0,499,669,385,201,536,
0,493,660,381,207,530,
0,561,803,377,221,522,
0,563,790,375,219,516,
0,556,777,371,217,511,
0,550,766,369,216,505,
0,543,751,366,213,561,
0,536,740,364,211,554,
0,531,729,480,209,547,
0,524,719,475,207,541,
0,519,709,470,206,535,
0,511,699,463,223,527,
0,515,767,459,223,521,
0,508,754,454,220,515,
0,503,743,449,219,510,
0,497,732,445,217,504,
0,492,719,440,215,560,
0,487,708,436,212,553,
0,482,699,432,211,547,
0,478,688,428,209,540,
0,473,679,423,207,535,
0,467,734,419,226,527,
0,527,763,415,223,521,
0,521,751,412,221,515,
0,515,739,408,220,510,
0,510,728,404,217,524,
0,504,716,400,215,567,
0,497,705,397,214,560,
0,492,696,393,211,552,
0,487,686,391,210,546,
0,481,676,387,208,540,
0,476,796,384,224,532,
0,546,796,380,223,526,
0,539,783,376,220,520,
0,532,771,376,219,515,
0,526,760,372,216,555,
0,519,745,369,215,547,
0,514,735,366,213,540,
0,508,723,363,211,535,
0,503,713,359,209,528,
0,497,704,358,207,523,
0,531,695,355,207,515,
0,624,684,352,206,510,
0,615,675,349,204,504,
0,608,667,347,202,499,
0,600,658,344,200,498,
0,592,647,342,199,492,
0,585,639,339,197,487,
0,579,632,337,195,483,
0,572,624,335,194,478,
0,564,615,332,193,473,
0,571,681,329,199,467,
0,569,671,327,198,462,
0,563,661,326,196,457,
0,556,652,323,195,454,
0,550,643,321,193,519,
0,543,632,319,192,513,
0,537,624,316,190,508,
0,531,615,315,188,502,
0,526,608,312,187,496,
0,519,615,311,205,491,
0,587,716,307,206,484,
0,579,705,305,204,479,
0,572,695,304,202,473,
0,564,684,302,200,469,
0,558,675,300,199,524,
0,551,664,298,196,518,
0,544,655,295,195,511,
0,538,646,294,193,505,
0,532,637,292,192,500,
0,525,678,291,201,495,
0,579,710,330,199,487,
0,572,699,327,197,483,
0,564,689,323,195,478,
0,558,679,320,194,486,
0,551,670,402,192,532,
0,543,657,397,191,526,
0,537,649,393,189,519,
0,531,639,390,188,514,
0,526,632,385,186,508,
0,519,704,382,207,503,
0,575,692,377,205,496,
0,568,681,374,204,491,
0,561,671,371,201,486,
0,555,663,368,199,543,
0,548,654,386,199,536,
0,542,643,382,196,529,
0,536,634,379,195,523,
0,529,625,375,193,516,
0,524,617,371,192,511,
0,526,700,368,204,505,
0,602,688,364,202,499,
0,595,679,360,200,493,
0,587,669,358,199,487,
0,579,659,355,198,548,
0,572,650,352,195,541,
0,566,639,348,194,535,
0,559,632,345,192,528,
0,551,623,343,191,523,
0,546,615,339,193,518,
0,539,695,337,216,511,
0,540,684,334,214,504,
0,534,674,409,212,499,
0,527,664,483,210,494,
0,521,655,478,208,552,
0,516,644,472,207,546,
0,511,636,467,204,540,
0,505,627,462,203,533,
0,500,619,457,201,527,
0,495,611,453,220,521,
0,598,639,448,220,515,
0,589,631,443,217,508,
0,582,622,439,216,503,
0,574,614,435,214,497,
0,568,606,431,212,543,
0,560,596,427,211,536,
0,553,589,423,208,531,
0,547,583,419,207,524,
0,541,575,415,205,519,
0,535,624,412,212,513,
0,601,659,408,210,507,
0,592,649,403,208,500,
0,585,639,399,207,495,
0,578,632,396,205,505,
0,571,624,393,203,556,
0,564,612,390,201,549,
0,558,605,386,199,543,
0,551,597,384,198,536,
0,544,590,380,196,530,
0,539,704,377,213,524,
0,649,691,374,211,519,
0,639,681,370,209,511,
0,632,671,367,207,505,
0,624,663,554,206,555,
0,615,653,545,204,547,
0,608,641,539,203,540,
0,600,633,532,199,534,
0,593,625,527,199,527,
0,587,616,521,198,521,
0,580,684,516,230,516,
0,600,673,509,227,510,
0,593,664,504,225,504,
0,585,655,499,223,498,
0,579,646,494,222,551,
0,572,637,489,220,545,
0,565,626,484,217,539,
0,559,617,480,216,532,
0,551,610,475,214,526,
0,546,602,470,212,520,
0,540,711,466,217,515,
0,608,701,460,216,508,
0,600,691,455,214,502,
0,592,681,452,211,496,
0,585,671,448,210,519,
0,577,662,444,208,512,
0,571,651,440,207,507,
0,564,641,435,205,500,
0,558,633,432,203,496,
0,551,627,428,216,491,
0,620,711,424,217,484,
0,647,701,419,216,480,
0,638,691,416,214,473,
0,630,681,413,211,469,
0,622,671,409,210,528,
0,614,662,406,207,523,
0,606,651,403,206,516,
0,599,642,399,204,510,
0,591,633,396,203,504,
0,584,662,392,217,499,
0,625,682,390,216,494,
0,614,671,385,214,487,
0,606,663,383,212,482,
0,599,654,380,210,486,
0,591,644,376,208,540,
0,583,636,373,207,534,
0,577,625,370,204,527,
0,570,617,368,203,521,
0,563,609,365,201,515,
0,558,734,362,212,510,
0,639,727,359,211,504,
0,628,716,355,209,499,
0,620,705,353,207,492,
0,612,696,350,205,543,
0,604,685,348,204,539,
0,598,675,344,201,532,
0,590,664,343,199,526,
0,583,655,339,199,519,
0,575,647,337,196,515,
0,569,738,335,216,508,
0,659,726,332,213,504,
0,647,715,329,211,497,
0,639,704,327,209,491,
0,632,695,324,207,552,
0,623,684,322,206,545,
0,615,675,319,204,539,
0,608,664,318,203,532,
0,600,655,315,201,527,
0,593,646,313,199,520,
0,587,734,312,223,515,
0,632,723,308,220,509,
0,621,711,305,219,504,
0,613,702,304,217,496,
0,606,691,302,216,543,
0,598,681,299,213,536,
0,591,671,297,211,531,
0,583,660,295,209,524,
0,576,652,294,207,518,
0,569,643,291,227,513,
0,601,696,289,230,507,
0,619,685,287,227,502,
0,608,675,285,225,495,
0,601,665,284,224,489,
0,593,656,281,222,540,
0,587,647,280,220,533,
0,579,639,278,217,527,
0,572,628,276,216,520,
0,566,620,274,214,515,
0,560,641,273,236,510,
0,659,679,271,233,504,
0,657,669,270,231,498,
0,647,659,268,230,492,
0,639,651,346,227,487,
0,631,641,446,225,532,
0,622,633,440,224,526,
0,614,624,435,222,519,
0,607,615,431,220,513,
0,600,607,427,217,508,
0,592,719,423,235,503,
0,703,716,419,232,497,
0,692,705,414,231,492,
0,679,696,409,228,486,
0,671,686,406,227,536,
0,662,675,402,225,544,
0,654,667,399,223,537,
0,645,657,395,221,531,
0,637,647,391,219,526,
0,630,638,388,217,519,
0,622,699,385,239,514,
0,619,688,381,236,508,
0,611,679,378,235,504,
0,603,669,568,231,496,
0,595,659,560,231,492,
0,588,651,553,228,487,
0,582,641,547,227,481,
0,575,633,541,225,476,
0,569,623,536,223,472,
0,563,615,529,221,467,
0,557,705,524,230,463,
0,650,694,519,227,457,
0,641,684,513,225,454,
0,631,674,507,224,448,
0,622,664,502,222,508,
0,615,655,496,220,502,
0,607,647,492,219,496,
0,600,638,487,216,491,
0,591,627,483,215,486,
0,584,620,478,231,480,
0,608,719,473,239,475,
0,652,708,469,236,470,
0,639,698,464,235,465,
0,632,688,459,232,459,
0,624,679,455,231,516,
0,615,668,451,229,510,
0,608,659,447,227,504,
0,601,651,443,225,499,
0,593,639,439,223,492,
0,587,673,435,248,487,
0,651,718,432,246,483,
0,643,707,428,243,478,
0,633,696,423,241,472,
0,624,686,419,239,466,
0,617,676,415,237,524,
0,609,668,412,235,518,
0,601,658,408,233,512,
0,594,649,406,231,505,
0,588,639,402,229,500,
0,580,735,399,243,495,
0,733,726,396,240,489,
0,721,715,391,238,484,
0,708,704,505,236,480,
0,699,694,575,234,519,
0,689,684,568,231,528,
0,679,675,561,230,523,
0,671,665,556,228,516,
0,663,654,550,227,511,
0,654,646,543,224,505,
0,647,708,537,246,499,
0,686,697,531,243,494,
0,676,687,526,241,488,
0,664,677,521,240,483,
0,655,668,514,238,536,
0,647,658,509,236,529,
0,639,649,504,233,523,
0,632,639,499,231,516,
0,624,632,494,230,511,
0,616,622,489,227,505,
0,609,759,485,250,499,
0,662,745,480,248,494,
0,652,734,476,246,488,
0,641,723,472,243,483,
0,633,712,466,241,539,
0,625,703,462,239,531,
0,617,692,457,237,526,
0,609,683,453,236,519,
0,603,671,449,233,513,
0,595,663,445,239,508,
0,604,766,441,248,503,
0,660,753,437,245,497,
0,652,742,433,243,492,
0,641,731,464,240,487,
0,633,720,478,239,549,
0,624,710,472,236,542,
0,616,700,467,235,536,
0,609,689,463,232,529,
0,601,678,457,231,524,
0,595,700,454,247,518,
0,639,734,508,245,512,
0,631,723,501,243,506,
0,622,711,496,240,500,
0,612,702,491,239,496,
0,605,691,483,236,562,
0,596,681,479,235,555,
0,590,671,474,233,548,
0,583,664,470,231,542,
0,575,652,464,229,536,
0,570,702,460,238,530,
0,705,691,455,235,524,
0,695,680,451,233,518,
0,685,671,590,231,512,
0,673,662,709,229,507,
0,664,652,699,227,550,
0,655,643,689,225,543,
0,647,635,680,224,536,
0,639,627,671,222,531,
0,632,617,664,220,525,
0,624,707,656,248,519,
0,627,696,648,244,513,
0,619,685,641,243,508,
0,611,675,633,240,503,
0,602,666,624,239,514,
0,595,656,617,236,531,
0,588,647,611,235,524,
0,582,639,604,232,519,
0,575,631,598,231,513,
0,568,620,591,228,508,
0,563,765,585,240,502,
0,696,752,579,238,496,
0,686,740,572,236,491,
0,676,729,568,234,486,
0,665,719,560,231,529,
0,655,708,554,230,520,
0,647,699,548,228,515,
0,639,688,543,227,508,
0,632,679,537,224,504,
0,624,668,533,223,498,
0,616,748,527,227,492,
0,632,736,523,225,487,
0,623,724,518,224,482,
0,615,713,512,221,477,
0,606,704,507,220,527,
0,599,694,503,217,519,
0,591,684,497,216,512,
0,584,675,493,215,507,
0,578,665,488,212,501,
0,572,705,484,217,496,
0,595,785,480,236,490,
0,603,772,476,233,485,
0,595,760,472,231,480,
0,588,748,480,230,475,
0,579,738,474,227,529,
0,572,727,470,225,521,
0,565,716,465,224,515,
0,559,707,461,222,509,
0,552,696,457,220,504,
0,547,797,454,220,498,
0,668,833,449,217,492,
0,657,819,446,216,487,
0,649,806,441,214,482,
0,639,793,438,212,477,
0,631,782,433,211,531,
0,622,769,430,209,523,
0,615,759,427,207,516,
0,607,748,423,206,511,
0,600,736,419,204,505,
0,593,775,416,222,499,
0,657,764,413,220,494,
0,647,752,409,217,488,
0,639,740,407,216,483,
0,632,729,403,214,487,
0,621,719,399,212,511,
0,613,709,396,211,504,
0,606,700,393,209,498,
0,598,690,390,207,492,
0,591,681,387,206,487,
0,584,812,384,223,481,
0,614,798,381,221,476,
0,606,785,378,219,472,
0,598,772,376,217,467,
0,591,761,372,216,507,
0,582,750,369,214,499,
0,575,739,366,211,493,
0,568,728,364,210,487,
0,561,718,361,208,482,
0,556,707,359,207,477,
0,550,808,355,207,472,
0,572,795,353,206,467,
0,564,783,351,204,462,
0,558,770,348,203,457,
0,551,760,345,201,514,
0,543,748,343,199,507,
0,537,737,340,199,500,
0,531,726,338,197,495,
0,527,716,335,195,489,
0,521,706,334,195,484,
0,572,801,331,207,479,
0,571,787,327,206,473,
0,563,775,326,204,469,
0,557,764,323,203,463,
0,550,752,321,201,510,
0,542,742,319,199,502,
0,536,731,317,198,496,
0,529,720,315,196,491,
0,524,711,312,195,486,
0,519,728,311,206,480,
0,595,811,308,205,476,
0,588,798,306,203,471,
0,580,785,304,201,465,
0,573,772,302,199,460,
0,566,761,300,199,508,
0,557,750,297,196,500,
0,551,739,295,195,495,
0,544,728,294,193,489,
0,538,718,291,192,483,
0,532,709,290,225,479,
0,626,696,287,223,473,
0,617,687,286,220,468,
0,609,678,284,219,463,
0,601,668,282,216,472,
0,594,660,280,216,505,
0,584,652,278,214,498,
0,577,643,276,211,492,
0,571,636,275,210,487,
0,564,627,273,208,482,
0,558,697,271,217,476,
0,584,684,269,216,472,
0,577,675,268,214,467,
0,570,664,266,211,462,
0,563,655,264,210,457,
0,556,647,263,208,452,
0,548,638,260,207,447,
0,542,630,259,205,443,
0,536,622,257,204,439,
0,530,614,255,201,435,
0,536,708,255,217,431,
0,580,694,252,216,427,
0,574,684,251,214,423,
0,566,674,249,211,419,
0,559,664,248,209,480,
0,551,655,247,207,473,
0,544,646,244,206,467,
0,538,638,243,204,462,
0,532,630,241,203,456,
0,526,621,240,201,452,
0,588,711,239,216,448,
0,587,696,237,212,443,
0,579,687,236,211,439,
0,572,676,235,209,433,
0,564,668,233,207,499,
0,556,658,231,206,494,
0,550,649,230,204,487,
0,543,639,228,203,481,
0,537,632,227,200,476,
0,531,628,226,209,471,
0,608,723,224,207,465,
0,600,709,223,204,460,
0,591,699,222,203,455,
0,583,688,221,201,451,
0,577,679,220,199,519,
0,568,669,218,199,513,
0,561,660,216,196,505,
0,555,651,216,195,499,
0,548,643,214,193,495,
0,543,707,213,195,489,
0,651,772,211,193,483,
0,641,758,210,192,479,
0,633,746,209,190,473,
0,625,735,207,188,482,
0,617,724,207,187,524,
0,607,713,206,185,518,
0,600,704,204,184,510,
0,591,694,204,184,504,
0,585,684,202,182,499,
0,579,787,201,187,494,
0,573,773,199,185,487,
0,567,758,199,184,483,
0,560,747,198,182,478,
0,553,735,196,181,541,
0,547,724,195,179,535,
0,540,714,194,179,527,
0,534,704,192,177,520,
0,527,694,192,176,515,
0,523,684,191,175,509,
0,524,771,189,201,504,
0,596,755,188,199,498,
0,588,743,187,197,492,
0,582,732,185,195,487,
0,574,722,185,194,540,
0,567,711,184,192,532,
0,558,701,183,191,527,
0,551,691,182,189,519,
0,545,681,180,188,513,
0,539,672,179,186,508,
0,563,787,178,200,502,
0,561,771,177,199,496,
0,555,760,176,197,491,
0,548,748,175,195,486,
0,542,737,228,193,543,
0,536,726,225,192,537,
0,527,716,223,191,531,
0,521,705,220,189,524,
0,516,696,218,188,518,
0,511,696,216,195,512,
0,593,788,215,197,506,
0,585,772,212,195,500,
0,577,761,211,193,496,
0,571,749,209,192,490,
0,563,738,207,190,526,
0,557,728,206,188,519,
0,548,717,204,188,513,
0,542,707,203,185,505,
0,536,697,200,184,500,
0,530,753,199,203,495,
0,593,775,198,201,489,
0,585,760,196,199,484,
0,578,748,195,197,480,
0,571,737,193,195,475,
0,564,726,227,194,523,
0,557,716,225,192,516,
0,550,705,222,191,511,
0,543,696,220,189,504,
0,536,686,218,188,498,
0,531,804,216,193,492,
0,602,790,215,191,487,
0,594,775,212,190,482,
0,587,763,211,188,477,
0,579,751,209,186,511,
0,572,740,207,184,504,
0,565,729,206,184,498,
0,557,719,204,182,493,
0,550,709,203,180,486,
0,543,699,201,179,481,
0,538,775,199,183,476,
0,532,763,198,182,471,
0,527,748,196,179,466,
0,521,737,195,178,461,
0,515,727,193,177,521,
0,510,716,192,176,515,
0,504,705,191,174,508,
0,499,696,188,173,503,
0,494,686,188,172,496,
0,488,676,186,171,491,
0,547,790,184,189,485,
0,574,776,183,187,480,
0,567,761,182,185,475,
0,560,750,180,184,470,
0,552,739,179,182,522,
0,546,728,178,180,515,
0,540,718,177,179,510,
0,531,707,176,177,504,
0,526,697,174,176,497,
0,519,688,174,185,492,
0,611,761,172,188,486,
0,602,749,171,186,481,
0,594,735,170,184,476,
0,587,724,169,183,471,
0,580,713,223,182,525,
0,572,704,220,179,519,
0,566,694,218,178,512,
0,557,684,216,177,507,
0,551,675,214,176,499,
0,545,736,212,199,494,
0,596,792,210,196,489,
0,588,779,208,195,483,
0,581,764,207,193,479,
0,574,752,205,191,476,
0,568,742,352,190,526,
0,560,731,349,188,519,
0,553,719,345,187,513,
0,545,710,342,185,508,
0,539,700,338,184,500,
0,533,776,335,192,495,
0,543,763,332,191,489,
0,536,752,329,189,484,
0,531,737,326,187,480,
0,524,726,323,185,521,
0,519,716,320,184,523,
0,513,705,318,183,516,
0,508,696,315,181,511,
0,502,686,312,179,504,
0,496,676,310,178,499,
0,494,758,307,192,492,
0,563,745,304,191,487,
0,556,734,303,189,483,
0,549,719,372,187,477,
0,542,710,368,185,532,
0,536,700,364,184,525,
0,529,689,361,183,519,
0,524,679,358,181,513,
0,516,671,353,179,505,
0,510,662,351,178,501,
0,564,786,348,192,495,
0,578,772,344,190,489,
0,571,760,342,188,484,
0,563,747,339,187,479,
0,557,736,335,185,532,
0,550,724,332,184,526,
0,543,714,329,183,519,
0,537,704,327,181,513,
0,529,695,323,179,507,
0,524,691,321,184,502,
0,641,809,318,188,496,
0,632,796,355,186,490,
0,624,783,387,184,485,
0,615,769,384,183,480,
0,608,758,380,181,536,
0,600,746,376,179,529,
0,592,736,431,178,524,
0,585,724,425,177,517,
0,577,715,420,175,510,
0,571,765,416,193,504,
0,564,827,412,191,499,
0,558,813,408,190,493,
0,551,799,404,188,487,
0,545,783,400,187,483,
0,539,772,397,184,539,
0,533,761,393,184,531,
0,527,750,390,182,526,
0,521,739,386,180,519,
0,515,728,382,179,512,
0,510,843,379,188,507,
0,615,827,376,186,501,
0,607,813,372,184,496,
0,600,799,369,184,491,
0,591,784,366,182,521,
0,583,773,363,180,531,
0,577,761,359,179,526,
0,571,751,357,177,519,
0,563,739,355,176,513,
0,556,729,351,175,507,
0,550,783,348,199,500,
0,556,769,345,196,496,
0,549,758,343,195,491,
0,543,746,339,193,484,
0,536,732,337,192,540,
0,531,721,335,190,534,
0,524,711,332,188,527,
0,519,702,329,187,520,
0,512,692,327,185,515,
0,507,684,323,184,508,
0,561,776,321,193,503,
0,601,764,319,192,496,
0,593,752,316,190,492,
0,585,740,313,188,487,
0,579,728,312,187,541,
0,572,716,309,185,535,
0,564,706,307,184,528,
0,558,696,304,182,522,
0,550,687,302,180,516,
0,543,678,300,185,510,
0,588,740,297,198,504,
0,580,729,295,196,498,
0,573,719,293,195,492,
0,566,707,291,193,487,
0,560,696,289,191,551,
0,551,685,287,190,545,
0,545,675,285,188,539,
0,540,667,283,187,532,
0,531,657,280,185,526,
0,526,692,279,208,519,
0,624,739,276,207,513,
0,615,728,275,205,508,
0,607,718,272,203,502,
0,599,707,271,201,497,
0,591,694,271,199,548,
0,583,684,268,198,542,
0,577,675,267,195,536,
0,571,665,264,194,529,
0,562,656,263,193,523,
0,556,743,261,201,515,
0,607,735,259,199,510,
0,599,723,257,198,504,
0,591,712,261,196,499,
0,583,702,258,195,537,
0,576,689,255,193,550,
0,569,679,254,192,543,
0,563,671,252,190,536,
0,556,662,251,188,530,
0,548,652,248,187,524,
0,543,757,247,198,517,
0,641,743,245,195,511,
0,632,733,243,194,505,
0,624,722,241,192,500,
0,615,709,240,191,553,
0,608,699,239,188,547,
0,600,689,237,187,540,
0,593,679,236,185,534,
0,587,670,233,184,527,
0,577,661,231,183,522,
0,583,724,231,195,514,
0,591,712,228,193,508,
0,583,702,227,192,504,
0,575,692,303,190,497,
0,569,679,352,188,546,
0,563,670,348,187,540,
0,556,660,344,184,534,
0,550,652,342,184,527,
0,543,643,339,182,520,
0,536,636,335,185,515,
0,614,732,332,189,508,
0,606,721,327,188,503,
0,598,711,326,185,497,
0,590,700,323,184,492,
0,583,688,319,183,507,
0,575,678,318,180,502,
0,568,668,315,179,496,
0,562,659,312,178,491,
0,556,651,310,177,485,
0,547,705,307,185,480,
0,593,769,304,184,474,
0,585,756,302,182,469,
0,578,745,300,180,464,
0,571,734,297,179,460,
0,563,720,295,178,519,
0,557,711,292,176,512,
0,551,700,290,175,507,
0,543,690,287,173,500,
0,537,681,286,172,495,
0,531,771,283,188,489,
0,547,764,280,187,483,
0,540,752,279,184,478,
0,535,740,276,184,472,
0,527,729,287,182,500,
0,522,716,339,180,519,
0,516,705,335,179,512,
0,511,696,332,177,507,
0,505,686,329,176,501,
0,500,676,327,174,496,
0,495,796,323,190,491,
0,588,782,319,188,483,
0,580,769,318,186,479,
0,573,758,315,184,473,
0,566,746,312,184,526,
0,560,732,309,182,519,
0,552,722,307,179,512,
0,546,711,304,178,507,
0,540,702,302,177,501,
0,534,691,300,176,496,
0,563,796,295,179,489,
0,588,783,294,177,483,
0,581,770,339,176,478,
0,574,759,348,174,473,
0,568,747,344,173,472,
0,560,734,340,172,467,
0,553,723,337,170,463,
0,547,712,335,169,457,
0,541,703,332,167,454,
0,535,693,328,188,449,
0,570,783,325,204,445,
0,566,771,322,203,440,
0,559,760,319,201,435,
0,552,748,317,199,431,
0,546,737,314,198,501,
0,540,723,312,195,495,
0,534,713,309,194,489,
0,527,703,307,192,483,
0,521,693,304,191,479,
0,515,747,302,190,473,
0,566,813,299,188,468,
0,558,799,295,187,462,
0,551,787,302,185,457,
0,543,775,299,184,453,
0,539,764,359,183,503,
0,531,750,356,181,497,
0,526,739,352,179,492,
0,519,728,349,178,487,
0,513,718,345,176,480,
0,508,783,344,187,476,
0,614,784,339,184,471,
0,605,772,335,183,464,
0,598,760,333,182,460,
0,590,749,331,179,478,
0,583,737,327,179,504,
0,575,724,324,176,497,
0,568,714,322,175,492,
0,562,704,319,174,487,
0,556,695,316,173,481,
0,550,792,314,185,476,
0,586,779,311,184,470,
0,579,767,308,183,465,
0,572,755,306,180,460,
0,564,743,304,179,536,
0,558,732,301,178,528,
0,551,719,298,176,521,
0,545,710,295,175,516,
0,539,700,294,173,510,
0,532,689,291,172,504,
0,527,788,289,179,499,
0,602,775,287,177,492,
0,594,763,284,176,487,
0,587,752,283,175,481,
0,579,740,280,173,536,
0,572,729,278,172,529,
0,566,716,275,170,523,
0,559,706,273,168,516,
0,551,696,271,167,511,
0,545,687,270,169,505,
0,545,760,268,174,499,
0,572,747,265,172,492,
0,564,736,263,171,487,
0,558,725,263,169,483,
0,551,715,291,167,531,
0,543,704,288,167,524,
0,537,691,286,165,519,
0,531,682,284,164,512,
0,526,673,280,163,507,
0,519,666,279,176,502,
0,558,732,276,177,496,
0,551,720,273,176,488,
0,543,710,271,175,483,
0,537,700,269,173,479,
0,531,689,267,172,535,
0,524,679,263,171,527,
0,519,668,263,169,521,
0,513,659,260,167,515,
0,508,650,258,166,510,
0,502,747,257,186,504,
0,556,771,255,184,499,
0,546,760,252,183,492,
0,540,748,251,181,487,
0,533,736,248,179,497,
0,527,726,247,178,523,
0,520,715,245,177,516,
0,515,703,243,175,511,
0,509,693,241,174,504,
0,504,683,240,172,499,
0,499,774,238,179,494,
0,579,760,236,177,487,
0,569,748,235,176,482,
0,562,737,233,175,477,
0,555,726,231,173,524,
0,548,716,230,172,516,
0,542,705,228,171,510,
0,536,693,227,168,504,
0,529,684,225,167,499,
0,524,674,224,166,494,
0,519,724,222,177,487,
0,582,713,221,176,483,
0,574,703,219,174,476,
0,568,692,217,173,472,
0,560,683,216,172,548,
0,553,673,215,170,542,
0,547,664,213,168,536,
0,540,653,211,167,529,
0,535,644,211,166,523,
0,528,636,209,175,518,
0,523,735,207,203,511,
0,541,723,206,201,505,
0,535,711,204,199,499,
0,527,702,204,198,494,
0,522,691,202,196,490,
0,516,681,200,195,485,
0,510,672,199,193,480,
0,505,661,198,192,475,
0,499,652,197,190,470,
0,494,659,195,193,465,
0,531,748,195,192,460,
0,543,736,193,190,455,
0,536,726,199,189,451,
0,530,715,198,187,446,
0,524,705,196,185,504,
0,518,695,195,184,498,
0,512,684,193,183,492,
0,507,673,192,180,487,
0,500,664,191,179,481,
0,496,744,190,192,476,
0,560,761,188,191,472,
0,551,749,187,189,467,
0,543,738,187,188,460,
0,537,727,185,185,476,
0,531,716,184,184,516,
0,525,706,184,183,510,
0,519,696,182,182,504,
0,513,684,181,179,499,
0,507,675,179,179,492,
0,502,782,179,180,487,
0,499,768,177,178,482,
0,493,756,176,177,477,
0,487,745,175,176,471,
0,483,734,174,175,537,
0,479,723,193,173,529,
0,473,713,192,172,523,
0,470,700,190,171,517,
0,465,691,188,169,511,
0,460,681,187,167,505,
0,456,769,185,182,499,
0,572,756,184,180,495,
0,562,744,183,179,489,
0,555,734,180,177,483,
0,548,723,179,176,519,
0,542,711,177,175,512,
0,536,702,176,173,506,
0,529,689,175,172,500,
0,523,679,174,170,495,
0,518,671,172,169,489,
0,512,767,172,182,484,
0,551,754,171,180,480,
0,543,743,169,179,474,
0,536,732,167,177,467,
0,530,720,167,176,517,
0,524,711,166,175,511,
0,518,700,165,173,504,
0,512,688,164,172,499,
0,507,679,163,170,494,
0,502,706,162,180,488,
0,548,817,161,179,483,
0,551,803,160,178,478,
0,543,792,159,177,472,
0,536,779,158,176,467,
0,530,768,198,174,518,
0,523,755,195,172,511,
0,518,743,193,171,505,
0,511,731,192,169,500,
0,505,719,191,167,495,
0,500,763,189,225,489,
0,568,780,188,222,483,
0,559,768,185,220,479,
0,551,756,184,218,473,
0,543,745,240,216,478,
0,537,734,283,215,516,
0,531,723,280,212,511,
0,525,713,276,211,504,
0,519,700,274,209,499,
0,513,691,271,207,494,
0,508,768,270,216,487,
0,611,754,267,214,483,
0,603,743,264,212,478,
0,593,732,262,210,472,
0,585,721,260,208,527,
0,578,710,258,207,519,
0,572,700,255,205,513,
0,564,690,254,204,507,
0,558,679,252,202,502,
0,551,670,249,199,496,
0,545,771,248,211,491,
0,638,758,246,208,485,
0,628,747,243,207,480,
0,619,736,352,205,475,
0,611,724,348,204,535,
0,603,713,344,201,527,
0,595,704,341,199,521,
0,588,694,337,199,515,
0,582,681,335,197,510,
0,575,672,332,195,504,
0,568,772,329,200,498,
0,632,760,326,199,493,
0,624,748,323,198,487,
0,614,737,319,195,482,
0,606,726,317,194,547,
0,599,716,314,193,540,
0,591,705,312,192,534,
0,584,696,310,190,527,
0,577,684,307,188,521,
0,571,674,304,205,516,
0,578,772,302,209,510,
0,580,760,300,207,504,
0,573,748,359,206,499,
0,564,737,353,204,494,
0,558,727,350,203,552,
0,551,716,347,201,545,
0,545,705,344,199,540,
0,539,696,340,198,534,
0,534,684,337,195,527,
0,527,695,335,203,521,
0,595,697,332,201,515,
0,585,688,327,199,510,
0,579,678,326,198,504,
0,569,668,375,196,499,
0,563,659,371,195,559,
0,556,652,367,193,551,
0,550,643,364,192,545,
0,543,635,359,190,540,
0,537,625,357,188,533,
0,531,641,354,195,527,
0,531,632,351,194,521,
0,525,624,348,192,515,
0,519,615,344,191,510,
0,512,608,341,189,508,
0,507,601,338,188,585,
0,502,593,335,186,578,
0,496,587,332,184,571,
0,492,580,329,184,564,
0,487,572,327,182,558,
0,483,647,369,205,551,
0,522,636,384,203,545,
0,515,627,380,201,540,
0,510,620,376,199,534,
0,503,611,371,198,611,
0,496,603,368,196,601,
0,492,595,364,195,594,
0,486,588,361,193,587,
0,481,580,358,192,579,
0,476,572,355,190,574,
0,472,655,352,203,567,
0,477,647,349,201,560,
0,472,638,345,199,553,
0,467,628,344,198,547,
0,462,620,359,196,615,
0,457,611,355,195,608,
0,452,604,352,193,600,
0,449,596,349,192,592,
0,444,588,347,190,585,
0,441,579,344,207,579,
0,447,684,340,211,572,
0,485,675,337,208,566,
0,480,664,334,207,559,
0,474,655,332,205,553,
0,467,647,327,204,591,
0,463,638,326,201,583,
0,457,630,323,199,575,
0,452,621,319,199,569,
0,448,613,318,197,563,
0,444,638,316,223,556,
0,440,704,313,221,550,
0,435,692,311,219,543,
0,432,683,307,217,538,
0,428,673,447,216,532,
0,423,664,592,214,575,
0,419,654,583,211,569,
0,415,646,577,210,563,
0,413,637,570,208,556,
0,409,628,563,207,550,
0,407,711,558,227,543,
0,405,732,551,224,537,
0,401,720,545,222,531,
0,398,710,540,220,526,
0,395,700,534,218,519,
0,391,689,527,216,543,
0,387,679,522,215,537,
0,385,670,517,213,531,
0,382,661,512,211,524,
0,380,652,507,209,519,
0,376,766,502,225,514,
0,454,752,497,223,508,
0,448,740,492,220,504,
0,443,729,487,219,498,
0,436,719,579,217,522,
0,432,708,571,216,524,
0,428,698,563,213,518,
0,423,688,558,211,511,
0,419,679,551,210,505,
0,415,670,545,208,500,
0,412,790,540,211,495,
0,478,776,534,209,489,
0,472,764,528,207,484,
0,467,752,523,206,480,
0,460,742,518,205,508,
0,455,731,511,203,500,
0,451,719,506,201,495,
0,446,710,501,199,489,
0,441,700,496,199,483,
0,436,691,492,197,479,
0,432,820,487,206,473,
0,428,806,482,204,468,
0,423,793,478,203,464,
0,419,781,473,200,460,
0,415,770,526,199,516,
0,411,758,524,198,508,
0,407,746,518,196,503,
0,403,736,512,195,497,
0,399,726,507,193,492,
0,396,716,502,199,487,
0,423,839,496,214,481,
0,430,825,563,212,476,
0,424,812,685,210,471,
0,420,799,675,207,466,
0,415,787,666,207,515,
0,411,775,655,205,508,
0,407,763,647,204,503,
0,403,752,639,201,496,
0,398,741,632,199,492,
0,395,760,625,217,487,
0,526,856,618,215,480,
0,519,842,611,213,476,
0,512,828,604,211,471,
0,507,815,598,209,466,
0,499,802,591,207,527,
0,494,790,583,206,519,
0,488,778,577,204,513,
0,483,767,572,203,508,
0,478,755,566,201,502,
0,473,874,560,215,497,
0,628,859,554,212,491,
0,620,844,548,210,486,
0,611,830,543,208,481,
0,603,816,540,207,522,
0,593,803,649,205,536,
0,587,792,639,204,527,
0,579,780,631,201,521,
0,573,768,623,199,515,
0,566,757,615,199,510,
0,560,844,609,215,504,
0,556,828,601,211,499,
0,549,815,595,209,494,
0,543,803,757,208,487,
0,537,790,760,206,544,
0,529,777,748,205,537,
0,524,766,736,203,529,
0,519,755,726,201,523,
0,513,743,716,199,517,
0,508,733,707,198,512,
0,504,796,697,230,505,
0,537,783,689,227,500,
0,531,771,681,225,495,
0,524,760,673,223,489,
0,519,748,665,221,537,
0,511,737,657,219,531,
0,505,727,647,217,523,
0,500,716,639,216,516,
0,495,707,633,214,511,
0,489,697,627,217,505,
0,530,804,620,238,499,
0,539,792,612,236,495,
0,532,779,811,233,489,
0,527,767,853,231,483,
0,519,755,839,230,526,
0,513,743,824,227,519,
0,507,733,812,226,512,
0,502,723,799,224,505,
0,496,711,788,222,500,
0,491,703,778,224,495,
0,591,758,768,223,489,
0,582,745,758,220,484,
0,575,735,748,219,480,
0,568,723,738,217,475,
0,561,713,728,216,519,
0,553,704,718,214,515,
0,547,694,709,212,507,
0,540,684,700,211,501,
0,535,675,692,209,496,
0,529,732,684,247,491,
0,616,772,676,243,485,
0,608,760,668,240,480,
0,600,749,719,239,475,
0,592,737,709,236,489,
0,585,727,700,234,512,
0,575,716,688,231,507,
0,569,706,679,231,499,
0,563,696,671,228,494,
0,556,687,663,227,488,
0,551,780,655,243,483,
0,555,764,647,240,478,
0,547,752,641,238,473,
0,542,740,633,236,468,
0,536,729,627,233,512,
0,530,719,620,231,505,
0,523,708,612,230,499,
0,517,698,606,228,492,
0,512,689,600,226,487,
0,507,679,593,224,482,
0,505,751,588,231,476,
0,598,736,582,230,472,
0,590,724,575,227,467,
0,583,713,570,225,462,
0,575,704,564,224,526,
0,568,693,559,222,519,
0,560,683,551,220,513,
0,553,674,547,219,505,
0,547,665,542,217,500,
0,541,656,537,216,495,
0,558,759,531,233,489,
0,559,743,777,231,484,
0,551,732,764,228,479,
0,545,721,753,227,473,
0,539,711,743,224,527,
0,532,700,733,223,521,
0,525,691,721,221,515,
0,519,680,711,220,508,
0,514,671,703,217,502,
0,508,663,695,220,497,
0,563,777,686,219,491,
0,555,761,676,216,486,
0,548,750,669,215,481,
0,542,739,660,213,476,
0,536,728,787,211,505,
0,529,718,896,210,499,
0,521,707,878,208,494,
0,515,697,864,207,487,
0,510,688,851,205,481,
0,505,728,838,222,476,
0,543,783,825,220,471,
0,536,767,814,217,466,
0,529,755,803,216,462,
0,524,743,792,214,483,
0,518,732,781,211,513,
0,512,722,771,210,508,
0,504,711,758,208,500,
0,499,702,748,207,495,
0,494,692,739,205,489,
0,513,818,731,224,484,
0,692,849,720,222,479,
0,682,831,711,219,473,
0,673,817,704,217,468,
0,664,804,696,216,518,
0,655,792,687,214,511,
0,647,780,679,212,504,
0,637,769,669,211,497,
0,628,758,662,208,492,
0,621,747,654,207,487,
0,614,828,647,248,481,
0,607,815,884,246,476,
0,600,798,887,243,472,
0,592,785,871,240,466,
0,585,774,858,239,516,
0,579,762,845,236,510,
0,572,751,831,235,504,
0,564,740,817,232,497,
0,558,729,806,231,492,
0,551,719,795,229,487,
0,583,824,783,233,480,
0,595,810,774,231,476,
0,588,793,764,229,471,
0,580,782,753,227,465,
0,573,769,743,225,461,
0,567,758,735,224,455,
0,560,747,726,222,451,
0,551,736,714,220,447,
0,545,726,705,218,443,
0,540,723,697,227,439,
0,573,841,689,225,434,
0,566,828,681,224,431,
0,559,812,673,222,427,
0,551,799,665,220,423,
0,545,786,658,217,476,
0,539,775,651,216,470,
0,533,763,643,215,465,
0,526,752,635,213,459,
0,520,741,628,211,454,
0,515,772,622,223,449,
0,598,836,615,220,444,
0,590,822,608,219,440,
0,583,806,603,216,435,
0,575,793,596,215,451,
0,568,780,590,213,492,
0,561,769,583,211,486,
0,553,758,579,209,480,
0,547,747,572,207,473,
0,540,736,566,207,469,
0,535,819,560,212,463,
0,684,824,555,211,459,
0,674,810,583,209,455,
0,665,794,759,207,449,
0,655,782,747,205,513,
0,647,770,736,204,505,
0,639,759,727,201,500,
0,630,747,716,199,495,
0,622,736,705,199,487,
0,614,726,696,198,483,
0,607,845,688,223,477,
0,600,830,679,221,472,
0,592,816,795,219,467,
0,586,799,886,216,462,
0,579,787,904,215,515,
0,572,775,889,213,508,
0,566,764,874,211,504,
0,558,752,860,209,497,
0,551,741,844,207,491,
0,545,731,833,207,485,
0,554,820,820,217,480,
0,549,807,809,216,475,
0,543,794,798,214,470,
0,536,779,787,211,464,
0,531,768,776,209,523,
0,525,755,766,207,516,
0,519,744,820,206,511,
0,513,734,875,204,505,
0,508,723,857,203,497,
0,503,713,846,217,492,
0,572,792,831,216,487,
0,563,779,819,215,481,
0,556,768,807,212,476,
0,550,752,796,211,472,
0,543,742,785,208,527,
0,536,731,775,207,521,
0,531,719,765,205,515,
0,523,710,755,204,510,
0,518,700,743,202,502,
0,512,719,734,233,497,
0,547,785,864,231,492,
0,540,772,850,228,486,
0,534,758,836,227,481,
0,527,747,824,224,476,
0,521,736,812,223,480,
0,515,725,900,220,473,
0,510,715,911,219,470,
0,503,704,915,217,464,
0,497,696,917,216,459,
0,493,789,913,219,454,
0,551,801,888,216,449,
0,543,788,873,215,444,
0,537,774,860,213,440,
0,531,761,847,211,483,
0,525,751,835,209,487,
0,519,739,824,207,482,
0,513,728,812,206,476,
0,505,719,801,204,472,
0,500,708,787,203,465,
0,495,798,777,215,460,
0,490,783,768,212,455,
0,486,771,757,210,451,
0,480,756,748,209,446,
0,476,745,739,207,513,
0,472,735,729,205,507,
0,467,723,719,204,500,
0,463,713,711,201,496,
0,457,704,704,199,489,
0,453,694,694,199,483,
0,496,780,685,227,478,
0,518,767,677,225,472,
0,511,755,670,223,467,
0,505,740,663,221,463,
0,499,729,655,219,524,
0,494,719,647,217,518,
0,487,708,639,216,512,
0,483,699,774,214,506,
0,476,689,759,211,500,
0,472,679,748,213,494,
0,522,736,737,212,487,
0,527,725,728,211,483,
0,521,714,718,209,478,
0,515,701,708,207,473,
0,510,691,771,206,531,
0,504,681,760,204,524,
0,497,671,750,202,518,
0,492,664,739,200,512,
0,486,655,727,199,506,
0,481,723,717,212,499,
0,476,790,707,211,493,
0,471,777,699,208,487,
0,465,765,690,207,483,
0,461,751,681,205,479,
0,455,739,673,203,536,
0,451,728,664,201,529,
0,448,718,657,199,523,
0,443,707,649,199,517,
0,439,699,639,196,511,
0,435,744,633,227,504,
0,431,732,626,225,499,
0,428,721,620,224,493,
0,423,711,613,222,487,
0,419,697,607,220,543,
0,415,688,600,217,558,
0,412,679,595,216,551,
0,409,669,680,214,544,
0,406,660,671,212,539,
0,401,652,659,210,532,
0,403,750,652,227,525,
0,519,737,643,225,519,
0,512,726,636,224,513,
0,507,716,628,222,508,
0,500,703,621,219,566,
0,495,692,614,217,559,
0,489,683,606,216,551,
0,484,673,600,214,545,
0,479,664,592,212,539,
0,472,655,585,211,532,
0,468,720,579,215,525,
0,464,710,574,212,519,
0,460,699,568,211,513,
0,455,688,563,209,508,
0,451,676,558,207,564,
0,446,668,600,206,557,
0,442,657,617,204,550,
0,438,649,609,203,543,
0,433,641,601,201,537,
0,428,633,593,217,531,
0,489,711,587,224,524,
0,483,700,579,221,518,
0,478,689,573,220,513,
0,472,679,567,217,507,
0,467,668,560,216,560,
0,462,658,555,214,553,
0,457,649,548,212,547,
0,452,639,543,210,540,
0,448,632,539,208,535,
0,441,636,532,220,527,
0,494,691,527,218,520,
0,487,680,523,216,515,
0,482,671,583,215,510,
0,476,662,575,213,504,
0,472,651,569,211,551,
0,466,642,659,209,543,
0,461,632,719,207,537,
0,455,624,708,206,531,
0,451,617,699,204,526,
0,446,715,688,223,518,
0,560,747,679,220,512,
0,553,736,670,219,507,
0,546,724,662,216,502,
0,540,713,654,215,527,
0,533,701,646,212,524,
0,527,691,638,211,519,
0,521,681,631,209,512,
0,515,671,624,207,507,
0,510,664,616,206,502,
0,504,799,608,230,494,
0,583,783,601,227,489,
0,575,771,595,226,484,
0,568,760,588,224,480,
0,561,748,582,222,542,
0,555,734,575,220,535,
0,548,723,569,218,527,
0,542,713,563,216,521,
0,536,704,558,215,515,
0,529,694,552,213,511,
0,523,799,545,229,503,
0,521,786,540,227,497,
0,516,774,535,225,492,
0,511,762,595,224,487,
0,505,750,598,222,545,
0,499,736,590,219,539,
0,495,726,583,217,531,
0,489,716,575,216,526,
0,484,705,650,214,519,
0,480,696,641,215,515,
0,572,820,632,216,507,
0,567,807,624,214,501,
0,560,793,615,212,496,
0,552,781,608,211,491,
0,547,769,601,209,551,
0,540,755,595,207,543,
0,534,743,588,205,537,
0,527,733,582,204,531,
0,521,723,575,202,525,
0,516,732,568,200,519,
0,579,831,561,199,512,
0,572,817,555,198,506,
0,564,804,549,196,501,
0,558,792,543,195,496,
0,551,780,537,193,568,
0,544,765,532,192,560,
0,538,753,527,191,553,
0,532,743,521,189,547,
0,527,732,517,188,540,
0,519,766,512,209,535,
0,515,753,507,207,527,
0,510,742,502,205,521,
0,504,730,497,203,515,
0,499,719,494,201,543,
0,494,710,489,199,563,
0,488,697,485,198,556,
0,483,688,481,196,550,
0,480,679,477,195,543,
0,474,670,472,193,537,
0,468,802,469,207,531,
0,574,793,463,206,524,
0,567,780,460,204,518,
0,560,768,456,201,512,
0,552,757,452,199,540,
0,547,745,449,199,532,
0,540,732,446,196,526,
0,534,721,441,195,519,
0,527,711,439,193,514,
0,521,701,435,192,508,
0,531,803,432,216,503,
0,593,789,427,214,496,
0,585,776,423,212,491,
0,579,765,421,211,486,
0,572,753,417,209,559,
0,564,742,414,207,551,
0,558,728,411,205,545,
0,551,718,408,203,539,
0,545,708,404,201,532,
0,539,698,401,211,527,
0,627,833,399,225,520,
0,628,818,395,223,513,
0,620,805,391,222,508,
0,612,792,390,220,502,
0,605,780,387,217,542,
0,598,768,384,216,535,
0,590,754,381,214,528,
0,583,743,378,212,522,
0,575,732,376,211,516,
0,569,722,372,212,511,
0,561,785,370,210,504,
0,556,774,480,208,498,
0,549,761,600,207,493,
0,543,750,591,205,487,
0,537,739,584,204,549,
0,531,726,577,202,542,
0,526,715,571,199,536,
0,519,705,564,199,529,
0,514,696,558,197,524,
0,509,760,552,214,518,
0,502,779,546,211,512,
0,497,768,539,209,505,
0,492,755,533,207,499,
0,487,743,527,206,519,
0,483,732,522,204,549,
0,478,719,556,203,542,
0,473,710,563,200,536,
0,468,700,556,199,529,
0,463,689,551,198,524,
0,460,771,544,203,518,
0,455,759,538,201,512,
0,450,747,531,199,505,
0,446,736,525,198,499,
0,441,724,519,196,547,
0,438,714,514,195,540,
0,434,702,509,193,534,
0,430,691,504,192,527,
0,426,682,499,190,521,
0,423,673,532,189,516,
0,419,696,657,217,510,
0,534,684,647,216,504,
0,527,675,637,214,497,
0,521,665,629,211,492,
0,515,657,622,210,558,
0,508,648,614,207,551,
0,504,639,607,206,543,
0,498,631,600,204,537,
0,492,623,593,203,531,
0,487,615,587,207,526,
0,483,732,580,212,519,
0,499,719,572,211,513,
0,494,708,567,209,507,
0,487,699,560,207,502,
0,483,689,555,206,569,
0,477,679,548,204,563,
0,472,668,543,202,556,
0,467,658,537,199,550,
0,463,649,532,199,543,
0,458,683,527,203,537,
0,514,796,521,201,531,
0,529,782,515,199,524,
0,523,771,511,198,517,
0,516,759,505,196,512,
0,511,747,500,195,580,
0,505,736,496,193,574,
0,499,723,492,192,567,
0,494,712,487,190,560,
0,489,703,482,188,553,
0,483,768,479,227,547,
0,535,833,473,224,540,
0,526,819,468,222,535,
0,519,807,463,220,527,
0,513,793,460,217,548,
0,508,782,560,216,582,
0,502,769,553,215,575,
0,496,755,547,212,568,
0,491,744,540,211,561,
0,486,734,535,209,555,
0,480,799,540,211,549,
0,569,785,724,209,542,
0,559,773,711,207,536,
0,551,761,701,206,528,
0,545,750,691,204,580,
0,540,739,683,203,572,
0,533,728,674,201,565,
0,527,716,665,199,559,
0,521,705,658,198,551,
0,515,696,650,196,545,
0,510,760,643,219,540,
0,534,748,635,216,534,
0,526,736,736,215,527,
0,519,726,726,212,519,
0,513,715,716,211,572,
0,508,705,706,209,565,
0,502,695,697,207,558,
0,496,683,688,205,551,
0,492,674,679,204,545,
0,487,665,671,207,540,
0,481,749,664,231,532,
0,476,737,655,230,527,
0,471,726,646,228,521,
0,465,716,638,226,514,
0,462,705,720,224,563,
0,456,695,710,223,557,
0,452,685,700,220,550,
0,448,673,691,219,543,
0,444,664,681,217,537,
0,440,655,673,222,531,
0,496,750,665,222,525,
0,514,738,657,220,519,
0,507,728,647,218,512,
0,500,716,639,216,507,
0,495,706,632,215,542,
0,489,696,624,212,536,
0,484,686,617,211,529,
0,479,674,611,209,523,
0,473,665,604,207,516,
0,468,706,599,216,512,
0,579,733,591,215,505,
0,575,721,585,212,500,
0,568,711,577,211,494,
0,560,700,572,209,504,
0,553,691,604,207,540,
0,547,681,596,206,534,
0,540,671,590,204,527,
0,534,660,583,203,521,
0,527,652,575,200,515,
0,523,762,570,224,510,
0,585,769,563,222,504,
0,577,758,558,220,499,
0,569,746,551,219,492,
0,562,735,545,216,542,
0,556,724,540,215,535,
0,549,714,536,213,527,
0,543,704,529,211,521,
0,536,691,524,209,515,
0,530,681,519,207,510,
0,525,762,515,233,504,
0,520,750,510,231,499,
0,515,738,505,229,494,
0,508,728,636,227,487,
0,503,716,627,225,547,
0,497,706,619,224,541,
0,492,696,611,222,535,
0,487,686,604,220,527,
0,482,675,597,217,522,
0,477,665,591,216,516,
0,472,727,583,217,511,
0,556,715,577,216,504,
0,550,704,571,215,499,
0,542,694,563,212,492,
0,535,684,557,211,543,
0,528,674,551,209,536,
0,523,665,545,207,529,
0,517,656,688,206,524,
0,511,646,676,204,518,
0,505,638,668,224,512,
0,511,743,659,224,506,
0,551,732,651,223,500,
0,543,721,643,220,495,
0,536,711,633,219,488,
0,529,700,625,217,531,
0,524,690,619,216,524,
0,518,680,611,214,519,
0,512,671,604,211,513,
0,506,659,598,209,507,
0,500,732,591,217,502,
0,592,813,584,216,496,
0,583,799,578,214,491,
0,574,787,572,212,486,
0,568,775,592,210,493,
0,560,763,749,208,539,
0,553,752,737,207,532,
0,547,740,728,205,526,
0,541,729,718,204,519,
0,535,717,708,201,514,
0,528,785,700,225,508,
0,588,772,691,224,503,
0,580,760,681,222,497,
0,572,748,673,220,492,
0,564,737,664,217,547,
0,558,727,655,216,550,
0,551,716,647,214,543,
0,545,705,639,212,536,
0,539,696,633,211,531,
0,532,684,625,208,524,
0,527,788,619,214,519,
0,606,775,611,211,512,
0,598,763,614,209,508,
0,589,752,760,207,502,
0,582,740,787,206,512,
0,575,729,775,204,507,
0,568,719,764,203,500,
0,561,708,753,201,495,
0,555,699,743,199,489,
0,548,687,734,198,485,
0,543,809,724,207,480,
0,604,795,715,206,475,
0,596,783,705,204,470,
0,587,771,696,203,465,
0,580,760,687,200,527,
0,573,748,678,199,521,
0,567,736,670,198,515,
0,560,726,663,196,509,
0,553,716,655,195,504,
0,547,704,647,217,498,
0,593,806,679,218,492,
0,652,792,669,216,487,
0,643,780,660,215,482,
0,633,768,652,212,477,
0,625,756,642,211,528,
0,617,745,635,209,522,
0,609,734,628,207,515,
0,603,723,621,206,510,
0,595,711,614,204,504,
0,588,708,608,223,499,
0,582,739,601,221,493,
0,575,728,595,219,487,
0,568,717,588,217,483,
0,560,707,583,216,478,
0,554,696,575,214,536,
0,547,687,569,211,528,
0,542,678,563,210,522,
0,536,669,558,208,516,
0,530,658,551,207,511,
0,524,713,547,230,505,
0,601,702,542,227,499,
0,593,691,536,225,494,
0,586,681,532,224,489,
0,576,671,527,222,483,
0,569,663,520,220,480,
0,563,654,515,217,475,
0,556,646,511,216,470,
0,550,637,506,214,464,
0,543,627,502,212,460,
0,538,700,497,216,455,
0,547,688,492,215,451,
0,540,679,596,212,448,
0,534,668,670,211,443,
0,526,659,660,209,470,
0,520,650,649,207,478,
0,515,641,641,206,472,
0,510,633,634,204,467,
0,504,624,627,203,462,
0,499,615,619,201,457,
0,495,753,662,216,452,
0,556,740,702,213,448,
0,548,728,692,211,443,
0,542,718,684,209,439,
0,534,707,673,207,497,
0,527,697,664,206,489,
0,521,688,655,204,483,
0,515,678,647,203,479,
0,510,668,639,201,473,
0,504,657,632,199,468,
0,499,688,625,215,463,
0,494,678,618,212,459,
0,488,668,611,211,454,
0,484,659,604,209,449,
0,478,650,596,207,508,
0,473,641,590,206,499,
0,468,633,609,204,495,
0,464,625,839,203,488,
0,460,617,825,200,483,
0,455,608,812,203,478,
0,451,632,800,216,473,
0,448,623,789,214,468,
0,444,614,778,212,463,
0,440,607,878,211,459,
0,435,600,908,208,520,
0,431,591,913,207,513,
0,427,585,914,206,507,
0,423,579,903,204,502,
0,419,572,881,202,496,
0,415,654,868,224,491,
0,463,665,855,221,485,
0,457,655,842,220,480,
0,452,647,830,217,475,
0,448,638,819,216,470,
0,441,629,903,214,504,
0,436,620,911,212,496,
0,432,612,915,211,490,
0,428,604,916,209,484,
0,423,598,910,207,480,
0,419,743,886,211,475,
0,568,739,871,208,470,
0,559,728,858,207,464,
0,551,716,846,205,460,
0,545,705,833,204,496,
0,537,696,819,201,508,
0,531,686,807,199,500,
0,525,676,796,199,495,
0,519,667,785,198,489,
0,513,658,775,195,484,
0,508,743,765,221,479,
0,503,731,755,219,473,
0,497,719,746,217,468,
0,492,710,737,216,463,
0,487,700,728,214,475,
0,480,689,717,211,469,
0,476,679,708,209,463,
0,471,671,700,208,457,
0,465,662,691,207,453,
0,461,652,684,205,449,
0,456,736,675,229,444,
0,455,724,668,227,440,
0,451,713,660,225,435,
0,446,703,654,223,432,
0,442,694,783,221,481,
0,436,683,785,220,476,
0,432,673,774,217,468,
0,428,664,763,216,463,
0,423,655,752,214,459,
0,420,647,743,214,455,
0,545,815,732,216,449,
0,545,801,723,214,444,
0,539,788,713,211,440,
0,531,775,704,210,435,
0,526,765,696,208,491,
0,518,753,685,207,483,
0,512,743,677,205,479,
0,507,732,669,204,473,
0,502,721,661,202,467,
0,496,711,654,230,463,
0,566,775,646,227,458,
0,558,764,639,226,454,
0,551,752,632,224,449,
0,543,741,625,222,444,
0,538,730,619,220,494,
0,530,719,611,219,487,
0,524,709,604,216,481,
0,519,700,598,215,476,
0,512,690,591,213,472,
0,508,768,587,221,467,
0,643,850,819,218,461,
0,633,835,804,216,455,
0,625,822,792,215,451,
0,617,808,780,213,473,
0,609,796,769,211,517,
0,600,783,756,209,509,
0,593,772,747,207,504,
0,585,761,813,206,497,
0,579,750,862,204,492,
0,572,830,848,222,487,
0,572,812,835,220,482,
0,564,799,823,217,477,
0,558,787,811,216,472,
0,551,775,799,215,537,
0,546,763,788,212,529,
0,538,752,775,211,521,
0,532,740,764,209,516,
0,527,731,755,207,510,
0,521,719,744,206,505,
0,527,790,735,238,499,
0,596,774,726,235,493,
0,589,761,716,233,487,
0,582,750,707,231,483,
0,575,739,699,230,549,
0,568,728,691,227,542,
0,559,718,680,225,534,
0,552,707,671,224,527,
0,547,698,664,222,521,
0,540,689,657,227,515,
0,535,733,649,257,510,
0,527,718,643,254,504,
0,523,707,636,252,499,
0,516,697,628,249,494,
0,512,688,633,248,554,
0,504,679,625,246,547,
0,499,670,615,243,539,
0,495,660,609,241,532,
0,489,652,603,239,527,
0,484,647,598,247,521,
0,489,752,591,244,515,
0,483,737,584,241,509,
0,478,727,579,240,504,
0,473,716,573,238,498,
0,470,705,568,236,552,
0,463,696,561,233,546,
0,459,686,555,231,537,
0,455,676,550,231,531,
0,451,667,575,228,526,
0,447,763,820,230,519,
0,630,814,805,227,513,
0,620,796,792,225,508,
0,611,783,782,224,503,
0,604,772,771,222,515,
0,596,760,760,220,547,
0,588,749,750,219,540,
0,580,739,737,217,532,
0,574,728,728,216,527,
0,568,718,718,214,521,
0,563,845,852,237,515,
0,681,867,904,235,509,
0,671,848,902,231,504,
0,663,834,883,230,498,
0,654,820,869,228,558,
0,646,807,856,226,550,
0,636,796,843,224,543,
0,627,783,828,223,536,
0,620,772,816,220,529,
0,612,761,804,219,524,
0,605,841,793,230,518,
0,598,827,783,227,512,
0,591,810,772,225,506,
0,584,798,762,224,500,
0,577,785,752,222,553,
0,571,774,743,220,547,
0,563,761,734,218,540,
0,557,751,722,216,531,
0,551,740,713,215,526,
0,545,729,705,214,519,
0,540,820,696,233,514,
0,546,803,778,231,508,
0,540,791,767,228,504,
0,534,779,755,227,497,
0,527,768,781,225,555,
0,523,755,769,223,547,
0,515,743,758,221,541,
0,511,734,745,220,533,
0,505,723,735,217,527,
0,500,713,726,224,521,
0,499,704,716,225,515,
0,494,692,706,224,509,
0,489,684,697,221,504,
0,484,674,689,220,499,
0,480,665,767,217,559,
0,475,657,900,216,551,
0,470,648,910,214,545,
0,465,639,906,212,537,
0,460,632,884,211,531,
0,456,661,871,231,526,
0,583,750,857,230,519,
0,574,736,844,227,513,
0,568,724,831,225,508,
0,560,713,820,224,511,
0,553,704,808,222,563,
0,547,694,798,220,556,
0,539,684,787,217,550,
0,533,675,852,216,542,
0,527,665,897,215,536,
0,521,799,881,217,529,
0,563,795,867,216,523,
0,556,779,854,214,518,
0,549,767,840,211,512,
0,542,755,828,209,575,
0,536,743,837,208,577,
0,530,733,824,207,570,
0,523,723,809,205,563,
0,516,712,798,204,555,
0,511,703,787,202,550,
0,506,828,776,222,543,
0,508,814,891,220,536,
0,502,796,880,217,531,
0,497,783,865,216,524,
0,492,772,852,214,583,
0,487,760,839,211,575,
0,482,750,827,210,568,
0,476,738,812,208,562,
0,471,728,799,207,553,
0,466,718,790,206,547,
0,531,792,779,227,541,
0,579,777,768,225,536,
0,572,763,758,224,529,
0,564,752,857,222,524,
0,558,740,865,220,575,
0,551,729,851,217,568,
0,543,719,838,216,561,
0,536,708,822,215,555,
0,531,699,810,212,547,
0,525,689,799,235,541,
0,612,822,787,233,535,
0,604,807,776,231,528,
0,596,792,892,229,523,
0,588,779,908,226,517,
0,582,768,913,224,564,
0,574,755,914,223,558,
0,568,744,902,221,551,
0,559,734,877,219,545,
0,553,723,864,217,536,
0,547,729,851,221,531,
0,542,760,839,219,525,
0,536,749,826,217,519,
0,530,735,815,215,513,
0,524,723,803,213,508,
0,519,713,792,211,552,
0,513,704,782,209,545,
0,508,694,771,207,539,
0,501,684,759,207,532,
0,496,675,749,205,526,
0,492,771,740,227,519,
0,510,779,731,225,513,
0,504,767,721,224,508,
0,499,752,713,221,503,
0,492,741,891,220,548,
0,487,729,908,217,547,
0,483,719,911,216,540,
0,478,709,902,214,534,
0,472,699,878,212,527,
0,467,689,864,210,520,
0,463,728,852,234,515,
0,537,716,839,231,508,
0,531,705,826,230,504,
0,524,692,815,227,497,
0,519,683,803,225,551,
0,512,673,792,224,544,
0,507,664,782,222,537,
0,502,655,771,220,531,
0,495,647,760,219,526,
0,489,639,750,216,519,
0,485,729,739,231,512,
0,492,717,730,228,507,
0,487,706,721,227,502,
0,481,694,712,224,496,
0,476,684,704,223,556,
0,472,675,696,220,550,
0,467,665,688,219,543,
0,462,655,679,217,536,
0,455,647,670,216,528,
0,451,639,664,227,524,
0,536,711,655,233,517,
0,527,701,647,231,511,
0,521,691,641,230,505,
0,515,678,633,227,500,
0,510,668,627,225,556,
0,504,659,620,223,550,
0,498,651,614,221,543,
0,493,641,608,220,536,
0,487,633,600,218,529,
0,481,671,593,233,523,
0,508,733,588,231,517,
0,502,721,582,230,511,
0,496,711,575,227,505,
0,490,697,571,225,500,
0,485,688,564,224,563,
0,480,679,559,221,556,
0,474,669,553,220,550,
0,470,659,548,217,543,
0,463,651,542,216,536,
0,459,724,537,229,529,
0,553,715,532,227,524,
0,546,704,527,224,518,
0,540,694,523,223,512,
0,533,681,518,220,554,
0,527,671,513,219,564,
0,520,663,508,216,558,
0,515,654,504,216,551,
0,509,645,499,214,545,
0,502,636,494,211,537,
0,497,748,490,226,531,
0,617,735,486,224,525,
0,608,723,481,222,519,
0,600,713,477,220,513,
0,593,700,473,217,574,
0,585,691,470,216,566,
0,579,680,465,214,560,
0,572,671,462,212,552,
0,566,662,457,211,547,
0,557,654,454,209,539,
0,583,787,449,233,532,
0,622,774,446,231,526,
0,613,761,442,230,520,
0,606,750,439,227,515,
0,598,736,435,225,582,
0,591,724,432,224,574,
0,583,715,428,222,567,
0,575,704,425,220,560,
0,568,695,422,218,553,
0,561,685,418,231,545,
0,556,803,414,236,540,
0,549,790,411,233,534,
0,543,777,408,231,527,
0,536,766,515,230,521,
0,531,751,508,227,575,
0,525,740,503,225,568,
0,519,729,497,224,562,
0,514,719,492,222,555,
0,508,709,487,220,549,
0,503,700,481,238,541,
0,497,768,476,235,535,
0,492,755,471,233,528,
0,487,743,466,231,523,
0,482,732,462,229,518,
0,478,719,457,227,566,
0,472,708,452,225,559,
0,468,699,448,224,551,
0,463,688,444,221,545,
0,458,679,440,220,540,
0,454,671,435,233,531,
0,449,662,431,231,526,
0,446,653,427,229,519,
0,441,644,423,227,515,
0,438,636,555,225,548,
0,433,627,608,223,561,
0,430,619,600,221,554,
0,425,611,593,220,547,
0,422,604,586,217,541,
0,417,597,579,216,535,
0,430,744,572,219,527,
0,523,732,564,216,521,
0,516,722,559,215,515,
0,510,711,552,212,510,
0,504,701,547,211,556,
0,499,688,540,209,550,
0,493,679,535,207,543,
0,487,670,625,206,536,
0,483,660,615,204,530,
0,476,652,608,203,524,
0,500,767,599,225,517,
0,508,753,591,223,511,
0,503,742,584,221,505,
0,497,731,578,220,500,
0,492,718,572,217,551,
0,486,707,565,216,543,
0,481,697,559,214,537,
0,476,688,553,211,531,
0,471,678,547,210,524,
0,464,669,542,215,519,
0,525,731,534,220,511,
0,524,719,528,218,505,
0,518,709,524,216,500,
0,512,699,518,215,496,
0,507,686,513,212,550,
0,500,676,508,211,543,
0,495,668,503,209,536,
0,489,659,566,207,530,
0,484,649,558,206,524,
0,478,641,551,206,519,
0,484,716,543,204,511,
0,479,705,537,203,505,
0,473,696,531,201,499,
0,468,686,662,199,495,
0,463,673,835,198,510,
0,459,664,820,196,504,
0,454,655,807,195,498,
0,449,646,796,193,493,
0,445,638,784,192,487,
0,440,680,771,219,483,
0,583,685,760,216,476,
0,574,675,750,215,472,
0,567,665,740,213,467,
0,560,655,731,211,490,
0,553,645,851,209,516,
0,546,636,838,207,510,
0,540,628,824,206,504,
0,534,620,812,204,499,
0,527,612,800,203,494,
0,521,696,787,217,487,
0,559,684,775,216,481,
0,551,675,765,214,476,
0,545,665,755,211,472,
0,539,655,745,210,530,
0,532,644,896,208,523,
0,526,636,908,206,516,
0,519,627,910,204,511,
0,515,620,892,203,504,
0,509,611,876,201,499,
0,523,728,860,231,494,
0,561,715,847,228,487,
0,554,704,835,227,482,
0,547,694,904,224,476,
0,541,684,910,223,534,
0,535,671,902,220,527,
0,529,663,881,219,520,
0,523,654,867,216,515,
0,516,645,855,215,508,
0,511,636,842,216,504,
0,549,782,827,220,497,
0,558,768,815,218,491,
0,551,756,803,216,486,
0,544,745,792,215,480,
0,539,735,860,213,550,
0,531,721,847,211,543,
0,526,711,833,209,536,
0,519,700,821,207,530,
0,514,691,809,206,524,
0,508,681,798,231,519,
0,504,756,783,228,512,
0,498,744,774,227,505,
0,492,733,764,224,499,
0,487,722,753,223,494,
0,483,711,743,221,507,
0,478,699,734,219,500,
0,473,689,726,217,495,
0,468,679,716,216,489,
0,463,671,708,214,484,
0,460,721,700,227,480,
0,510,762,689,224,475,
0,504,750,681,223,468,
0,497,739,673,220,463,
0,492,728,665,219,483,
0,487,717,658,216,518,
0,481,704,651,215,512,
0,476,695,643,213,506,
0,471,685,636,211,500,
0,465,675,631,209,496,
0,462,817,624,234,490,
0,568,841,615,231,484,
0,560,827,609,230,478,
0,552,813,696,227,472,
0,545,799,686,226,524,
0,540,788,676,224,516,
0,534,774,668,222,510,
0,527,761,659,220,504,
0,521,751,652,218,499,
0,515,739,643,216,494,
0,510,836,636,235,487,
0,536,822,626,231,483,
0,530,807,619,230,476,
0,524,796,612,228,472,
0,518,783,606,227,541,
0,512,771,599,224,534,
0,506,756,592,222,527,
0,500,746,587,220,521,
0,496,736,580,219,515,
0,491,725,575,219,511,
0,489,812,569,230,504,
0,563,797,563,228,497,
0,556,785,557,226,492,
0,548,773,551,224,487,
0,542,761,547,223,543,
0,536,750,542,220,536,
0,529,736,536,219,530,
0,524,726,531,216,524,
0,518,716,527,215,518,
0,512,705,521,231,512,
0,575,816,516,231,506,
0,585,801,511,229,499,
0,577,789,506,227,494,
0,571,776,502,225,488,
0,563,766,497,224,551,
0,557,753,493,222,543,
0,551,739,488,219,537,
0,543,728,484,217,531,
0,537,719,480,216,525,
0,531,715,476,222,519,
0,566,711,472,220,513,
0,556,702,467,218,507,
0,550,692,463,216,500,
