=~=~=~=~=~=~=~=~=~=~=~= PuTTY log 2021.04.22 12:40:08 =~=~=~=~=~=~=~=~=~=~=~=
50,503,257,
0,808,592,200,497,255,
0,796,585,199,492,252,
0,72,
0,762,534,268,498,295,
0,751,527,265,492,293,
0,740,521,263,487,290,
0,729,510,788,547,273,509,302,
0,774,540,270,504,299,
0,762,534,268,498,295,
0,751,527,265,492,293,
0,740,521,263,487,290,
0,729,515,261,482,287,
0,719,528,259,534,286,
0,833,595,257,527,283,
0,819,587,255,521,280,
0,807,579,273,515,310,
0,793,572,2,509,307,
0,779,564,267,504,304,
0,767,557,264,498,300,StartUp!
121,784,591,152,492,236,
0,775,585,167,488,267,
0,768,579,166,484,264,
0,759,575,164,481,263,
0,750,569,163,477,261,
0,742,564,163,473,259,
0,734,559,161,470,257,
0,727,553,161,467,255,
0,762,609,159,507,254,
0,830,602,159,503,252,
0,819,593,158,497,250,
0,807,586,165,492,248,
0,791,579,163,486,246,
0,779,572,162,481,243,
0,768,564,161,476,241,
0,755,557,159,471,240,
0,744,551,158,465,238,
0,734,543,156,460,236,
0,724,614,156,499,233,
0,819,608,155,493,231,
0,806,600,153,487,230,
0,793,591,159,483,228,
0,777,583,157,477,483,
0,766,575,188,472,259,
0,755,569,187,467,257,
0,743,562,185,463,255,
0,733,555,184,457,252,
0,723,547,182,452,250,
0,724,633,180,500,248,
0,824,624,179,495,246,
0,809,619,179,492,245,
0,801,611,177,487,243,
0,785,603,176,481,280,
0,774,595,174,476,278,
0,763,588,173,472,275,
0,751,580,172,466,272,
0,740,573,170,462,270,
0,730,564,168,458,268,
0,797,697,167,514,265,
0,839,686,166,508,263,
0,826,676,165,503,261,
0,813,667,198,497,259,
0,798,657,198,492,286,
0,785,649,195,486,284,
0,774,639,194,481,280,
0,761,632,192,476,278,
0,751,624,191,471,275,
0,740,615,189,519,273,
0,859,655,188,536,271,
0,850,647,186,531,268,
0,836,638,208,524,317,
0,823,629,220,519,313,
0,806,621,217,513,312,
1,793,614,216,507,310,
1,782,605,214,502,307,
1,771,598,211,496,304,
1,759,591,210,491,302,
1,748,609,208,543,299,
1,857,671,207,536,295,
1,843,663,204,529,294,
2,829,653,230,523,300,
2,816,644,227,517,296,
2,799,636,251,511,315,
2,788,627,248,505,312,
3,775,620,246,500,309,
3,764,611,243,495,306,
3,753,604,241,489,304,
3,743,642,240,563,301,
3,870,632,238,556,298,
3,855,624,236,549,295,
3,840,615,253,543,295,
3,827,607,251,536,294,
3,811,600,248,531,296,
3,798,591,246,524,294,
3,786,584,243,519,291,
3,775,577,241,513,289,
3,764,571,239,508,287,
3,754,600,238,551,284,
3,861,591,235,545,282,
3,847,583,233,539,280,
3,833,576,231,532,278,
3,816,569,230,527,275,
3,804,563,227,520,272,
3,792,556,225,515,271,
3,780,550,224,510,268,
3,768,543,222,504,266,
3,757,537,220,499,263,
3,809,608,219,547,262,
3,854,600,217,540,259,
3,839,591,216,534,258,
3,826,583,214,527,255,
3,809,575,212,523,260,
2,797,569,210,516,257,
2,785,561,208,511,255,
2,774,555,207,505,253,
3,762,548,206,500,251,
2,751,542,204,495,249,
2,857,611,203,539,248,
2,844,603,201,531,246,
3,831,595,210,526,244,
2,817,587,208,519,242,
2,801,579,207,515,276,
2,789,572,204,509,272,
2,777,565,203,504,270,
2,766,558,201,497,268,
3,755,551,199,493,265,
2,743,545,198,515,263,
2,859,579,196,540,260,
2,844,572,195,534,259,
2,830,564,193,528,268,
2,817,557,207,522,265,
3,801,550,207,516,271,
2,788,543,206,511,268,
2,776,537,204,505,266,
3,765,531,202,499,263,
2,754,525,199,495,262,
3,743,520,199,554,259,
2,851,607,198,544,257,
2,838,599,195,539,255,
3,824,591,232,532,290,
3,811,583,230,526,287,
3,796,575,228,520,294,
2,783,569,226,515,291,
3,771,561,224,509,287,
3,760,555,222,504,286,
3,750,548,220,498,283,
3,739,600,219,542,280,
2,838,590,216,533,278,
3,824,583,215,527,276,
2,811,575,236,521,280,
2,798,568,233,515,278,
2,783,560,231,510,275,
2,771,553,229,504,271,
2,760,547,227,499,270,
2,748,540,225,494,267,
2,737,534,223,488,265,
3,781,624,221,541,263,
2,843,615,220,532,260,
2,829,607,217,527,259,
2,816,599,244,521,255,
2,803,591,241,515,265,
2,787,583,240,510,263,
2,775,575,238,504,260,
1,764,569,235,498,257,
2,753,562,233,493,255,
1,743,556,231,488,254,
2,849,761,230,604,252StartUp!
123,738,575,153,487,201,
0,729,572,152,483,199,
0,723,600,152,533,199,
0,836,701,151,527,198,
0,825,692,150,523,196,
0,815,684,148,518,195,
0,805,678,148,514,194,
0,796,670,147,511,193,
0,787,664,147,505,192,
0,777,656,146,501,191,
0,768,647,145,496,190,
0,758,639,143,490,188,
0,743,631,142,485,187,
0,733,623,141,480,185,
0,723,681,140,519,184,
0,831,707,140,513,182,
0,818,697,138,507,181,
0,806,685,137,500,179,
0,792,675,136,495,179,
0,780,666,135,489,177,
0,769,657,135,483,176,
0,758,647,135,479,175,
0,743,639,134,474,174,
0,733,632,132,470,172,
0,785,665,131,519,171,
0,826,655,131,513,169,
0,812,647,130,508,174,
0,799,636,145,500,172,
0,787,627,143,495,172,
0,775,619,143,489,169,
0,764,615,143,487,169,
0,757,607,141,482,167,
0,743,600,140,477,167,
0,732,592,139,472,166,
0,847,664,137,537,164,
0,843,654,136,531,163,
0,828,644,166,524,211,
0,816,633,172,517,209,
0,803,625,187,511,216,
0,790,617,184,505,213,
0,779,609,183,500,211,
0,768,601,180,495,209,
0,752,593,179,489,207,
0,742,587,177,514,206,
0,864,732,176,532,204,
0,847,721,174,526,202,
0,835,711,192,519,243,
0,820,697,190,513,241,
0,807,688,192,507,239,
1,796,679,189,502,237,
1,783,669,188,496,235,
1,771,660,186,491,233,
1,758,652,184,486,231,
2,747,643,183,558,228,
3,868,635,181,550,227,
3,854,627,179,543,224,
3,839,620,244,537,223,
3,825,609,241,530,221,
3,813,602,240,524,225,
3,800,595,237,519,224,
3,788,588,235,512,221,
4,776,580,233,507,220,
4,762,574,231,502,217,
4,752,615,228,556,216,
4,860,647,227,548,214,
4,846,638,225,543,235,
4,831,630,238,536,237,
4,818,619,236,529,243,
4,806,611,233,523,241,
4,793,603,231,518,239,
4,782,595,230,511,237,
4,770,588,227,505,235,
4,755,580,225,500,231,
4,801,688,224,558,230,
4,857,675,222,551,228,
4,843,665,220,545,227,
4,829,657,255,538,225,
4,816,646,253,531,263,
3,803,637,251,525,259,
3,791,628,248,519,257,
3,779,620,246,513,255,
3,765,612,244,508,252,
3,754,604,241,503,251,
3,854,697,240,551,248,
3,848,687,238,545,246,
3,834,676,255,539,276,
3,821,668,252,533,273,
3,807,655,250,525,271,
3,796,647,248,519,268,
3,783,639,246,514,265,
3,772,630,243,508,263,
3,758,622,241,503,261,
3,747,614,240,518,259,
3,861,675,238,548,255,
3,846,664,236,542,254,
3,831,655,233,536,252,
3,819,647,231,531,250,
3,807,636,230,523,248,
3,794,628,228,518,246,
3,783,620,227,512,243,
3,771,611,224,506,242,
3,756,604,223,501,240,
3,747,643,221,560,238,
3,860,772,219,552,236,
3,846,760,217,547,234,
3,831,748,236,540,254,
3,819,737,234,534,252,
3,806,724,231,527,249,
3,793,714,230,520,248,
3,782,704,228,515,245,
3,770,694,226,510,243,
3,756,685,224,504,241,
3,746,729,222,556,238,
3,862,751,220,548,236,
3,847,739,219,542,271,
3,833,728,268,536,297,
3,820,718,265,529,295,
3,807,705,270,522,292,
3,795,696,267,516,289,
3,783,686,264,511,287,
3,771,676,262,505,284,
3,758,668,259,500,281,
3,794,688,257,548,279,
3,860,676,255,542,276,
3,846,667,253,536,274,
3,831,659,265,529,271,
4,819,647,263,524,298,
3,806,639,261,516,295,
3,793,632,259,511,292,
3,782,624,257,505,289,
3,770,615,255,499,287,
3,756,608,252,495,284,
3,847,695,249,559,281,
3,854,684,248,551,279,
3,839,673,246,545,276,
3,826,664,243,540,273,
3,813,652,242,534,271,
3,799,643,240,526,270,
3,788,636,239,519,267,
3,777,627,236,515,264,
3,765,619,235,509,263,
3,752,611,233,518,261,
3,868,707,231,558,258,
3,852,696,228,551,255,
3,839,687,227,544,255,
3,825,677,225,539,253,
3,812,665,224,532,252,
3,799,657,222,525,249,
2,787,647,220,519,248,
2,775,639,219,513,246,
2,764,632,217,508,243,
2,751,623,216,563,241,
2,864,627,214,555,239,
2,849,619,211,548,237,
2,835,611,210,542,287,
2,822,604,209,536,285,
2,809,594,207,529,300,
1,796,587,206,523,297,
2,783,580,204,518,295,
2,773,574,203,512,291,
2,761,568,201,505,289,
1,748,572,199,562,287,
1,861,637,198,555,284,
2,846,628,196,548,281,
1,832,620,249,542,281,
1,819,611,247,536,280,
1,806,601,244,530,276,
1,794,594,243,523,275,
1,782,587,240,516,271,
1,771,579,239,511,270,
1,760,572,236,505,268,
1,777,659,234,561,265,
1,851,649,231,553,263,
1,836,639,231,547,260,
1,824,632,228,541,259,
1,810,623,227,536,257,
1,798,612,225,529,255,
1,785,604,223,521,253,
1,774,597,222,515,251,
1,763,590,220,511,248,
1,752,582,218,505,247,
1,834,638,216,556,244,
1,856,627,215,549,243,
1,841,619,213,543,243,
1,828,611,212,536,241,
1,815,603,211,530,239,
1,803,593,209,524,238,
1,790,585,207,518,236,
1,778,579,206,511,233,
1,768,571,204,506,231,
1,755,564,203,505,231,
1,862,656,201,554,228,
0,847,647,199,547,226,
1,833,638,198,542,224,
0,819,629,196,536,223,
1,807,621,195,529,221,
1,795,611,193,522,220,
1,783,603,192,516,217,
0,771,595,191,511,216,
0,760,588,190,505,215,
0,748,580,188,557,214,
0,864,580,187,552,211,
0,848,574,185,546,209,
0,835,568,231,540,208,
0,821,560,230,534,207,
0,808,553,227,527,229,
0,796,546,226,519,227,
0,783,540,224,515,224,
0,772,534,222,509,223,
0,760,528,220,504,221,
0,750,578,219,550,219,
0,807,660,216,543,217,
0,793,651,214,536,231,
0,781,642,216,531,247,
0,769,633,214,524,244,
0,758,624,212,519,243,
0,747,615,211,511,240,
0,736,607,209,506,239,
0,726,600,207,500,236,
0,716,591,206,496,235,
0,707,647,204,553,232,
0,827,638,202,547,231,
0,813,628,199,540,234,
0,800,620,238,534,231,
0,788,612,236,527,242,
0,775,604,233,522,240,
0,764,595,231,515,237,
0,753,587,230,509,236,
0,743,579,228,504,233,
0,732,573,226,499,231,
0,731,635,224,548,230,
0,836,625,222,542,227,
0,823,616,248,536,229,
0,809,608,271,529,227,
0,797,600,269,524,231,
0,785,593,267,518,229,
0,773,583,263,511,227,
0,761,575,262,504,225,
0,751,569,259,499,224,
0,740,563,257,495,222,
0,805,646,255,543,220,
0,844,636,253,537,217,
0,830,627,273,531,223,
0,816,619,271,525,221,
0,804,611,268,519,219,
0,792,603,266,513,217,
0,780,593,263,506,216,
0,768,586,262,500,214,
0,756,579,259,496,212,
0,745,572,257,536,211,
0,856,652,255,537,209,
0,839,643,252,531,207,
0,825,634,251,525,216,
0,812,625,249,519,214,
0,799,617,247,513,232,
0,787,609,245,508,231,
0,775,600,243,501,228,
0,764,591,241,496,226,
0,753,583,239,491,224,
0,742,600,238,553,223,
0,851,668,236,546,221,
0,831,657,233,540,218,
0,819,648,231,534,232,
0,807,639,230,527,231,
0,794,632,228,521,236,
0,782,623,227,515,233,
0,770,613,224,508,231,
0,759,606,223,504,230,
0,748,598,221,497,227,
0,737,661,220,543,225,
0,849,657,217,536,224,
0,831,647,216,530,254,
0,817,639,242,524,251,
0,804,631,240,518,250,
0,792,623,238,512,248,
0,780,615,236,507,246,
0,769,604,234,499,243,
0,758,596,231,495,241,
0,747,590,230,489,239,
0,737,662,228,538,238,
0,842,652,227,531,235,
0,828,643,224,526,262,
0,815,633,223,519,259,
0,802,625,220,513,260,
0,790,617,219,508,258,
0,777,609,217,503,255,
0,767,600,216,496,253,
0,755,591,214,491,251,
0,743,583,212,486,249,
0,795,675,211,546,247,
0,835,664,209,540,244,
0,822,655,242,534,242,
0,808,646,243,527,240,
0,796,638,241,521,238,
0,783,628,239,515,236,
0,771,620,236,510,235,
0,760,611,235,504,231,
0,750,603,233,498,231,
0,739,595,231,534,229,
0,847,665,230,539,227,
0,839,655,227,532,225,
0,826,647,236,526,224,
0,812,638,234,519,222,
0,800,630,231,514,248,
0,787,621,230,508,246,
0,775,612,228,504,243,
0,764,603,227,496,241,
0,753,595,224,492,240,
0,743,604,223,539,238,
0,847,710,221,531,236,
0,829,699,219,525,233,
0,816,689,217,519,238,
0,803,679,216,513,236,
0,791,670,214,508,237,
0,779,660,212,502,235,
0,768,652,211,496,232,
0,755,641,209,489,231,
0,745,632,207,485,229,
0,735,681,206,539,227,
0,848,676,204,532,225,
0,831,667,203,526,224,
0,817,657,201,519,236,
0,804,648,199,514,239,
0,792,639,199,508,237,
0,780,632,198,504,235,
0,768,622,195,497,232,
0,757,614,195,491,231,
0,747,606,193,486,229,
0,736,644,192,536,227,
0,846,635,190,529,225,
0,828,626,189,524,251,
0,815,618,190,518,249,
0,802,609,189,512,249,
0,790,601,187,506,248,
0,778,595,185,500,245,
0,766,585,184,496,243,
0,755,579,184,488,241,
0,743,572,182,483,239,
0,783,684,181,531,236,
0,840,673,179,525,235,
0,824,664,178,519,258,
0,811,655,211,513,255,
0,798,646,208,508,254,
0,785,637,207,502,252,
0,774,628,205,496,249,
0,762,619,204,491,248,
0,752,611,201,485,245,
0,741,603,199,512,243,
0,838,679,199,527,241,
0,839,670,197,521,239,
0,822,660,196,515,238,
0,809,652,195,509,236,
0,797,643,193,504,259,
0,784,634,192,498,255,
0,772,625,190,493,254,
0,761,615,188,487,252,
0,750,608,187,481,249,
0,739,600,185,537,248,
0,857,592,184,531,245,
0,843,585,183,524,243,
0,825,579,212,519,280,
0,812,572,210,512,276,
0,799,565,208,507,275,
0,787,558,207,502,273,
0,775,551,204,496,271,
0,764,543,203,491,268,
0,753,538,201,484,266,
0,743,564,199,536,263,
0,856,567,198,527,262,
0,842,559,196,522,259,
0,825,551,227,516,262,
0,812,545,225,510,259,
0,799,539,224,505,257,
0,787,532,221,499,255,
0,775,526,220,494,252,
0,764,519,217,488,251,
0,752,513,216,483,248,
0,743,611,214,532,247,
0,846,600,212,526,244,
0,831,592,211,519,244,
0,815,584,235,513,253,
0,801,577,233,508,251,
0,790,570,265,503,248,
0,777,563,263,497,246,
0,766,556,260,492,244,
0,755,547,259,487,242,
0,743,542,255,480,240,
0,777,639,254,524,238,
0,844,628,252,517,236,
0,830,620,250,511,268,
0,814,611,248,505,264,
0,800,604,247,500,262,
0,788,596,244,495,259,
0,776,588,243,489,257,
0,765,581,240,484,255,
0,754,572,239,478,252,
0,743,566,237,499,251,
0,833,559,235,524,248,
0,837,551,233,518,246,
0,824,545,231,512,270,
0,807,539,230,506,267,
0,795,532,227,500,265,
0,783,527,225,495,263,
0,771,520,224,489,262,
0,760,515,222,484,259,
0,748,508,220,479,256,
0,737,510,219,533,255,
0,851,643,217,526,252,
0,835,633,216,519,250,
0,823,625,220,513,257,
0,806,616,217,508,255,
0,793,608,216,503,252,
0,781,600,214,497,250,
0,769,593,211,492,248,
0,759,585,210,487,246,
0,748,575,208,480,243,
0,737,622,207,530,242,
0,844,659,206,524,240,
0,830,651,204,518,238,
0,816,641,213,511,238,
0,799,632,211,505,253,
0,787,624,211,499,251,
0,775,616,209,495,249,
0,764,608,207,489,247,
0,753,600,206,484,244,
0,743,591,204,478,242,
0,733,657,203,534,240,
0,853,647,200,527,238,
0,839,638,199,521,238,
0,825,629,198,515,253,
0,808,620,196,510,263,
0,796,612,206,504,261,
0,783,604,204,499,259,
0,772,596,203,493,255,
0,761,590,200,487,254,
0,750,580,199,481,252,
0,769,637,198,532,249,
0,850,627,196,526,248,
0,835,619,195,519,246,
0,823,611,212,513,243,
0,807,603,226,508,268,
0,793,595,223,503,265,
0,782,588,221,497,263,
0,770,580,220,492,260,
0,760,573,217,487,258,
0,748,564,216,488,255,
0,830,624,214,509,254,
0,851,615,211,504,252,
0,836,607,210,497,263,
0,824,600,208,492,260,
0,807,591,207,487,292,
0,795,583,205,481,289,
0,783,575,203,476,286,
0,771,569,201,472,284,
0,760,563,199,467,281,
0,748,555,199,524,280,
0,849,673,197,518,276,
0,833,664,195,512,274,
0,820,654,196,506,271,
0,807,645,195,500,270,
0,792,636,192,495,267,
0,780,628,191,489,263,
0,768,620,190,484,262,
0,756,612,188,480,260,
0,746,604,187,475,258,
0,736,627,185,531,255,
0,845,652,184,524,254,
0,831,643,183,519,252,
0,817,635,184,512,249,
0,804,627,182,507,248,
0,788,618,199,501,245,
0,776,610,197,496,243,
0,765,602,195,491,241,
0,753,594,193,485,239,
0,743,587,192,480,237,
0,733,636,190,521,236,
0,833,625,189,515,233,
0,819,617,188,510,240,
0,807,609,188,504,267,
0,791,600,187,498,263,
0,779,593,185,493,261,
0,768,585,184,487,259,
0,756,578,182,483,257,
0,745,572,180,478,255,
0,735,564,179,472,252,
0,743,662,177,527,249,
0,830,652,176,521,248,
0,817,643,176,515,252,
0,803,633,184,510,249,
0,788,625,183,504,248,
0,776,617,181,499,244,
0,765,609,179,493,242,
0,753,601,178,487,240,
0,743,593,177,483,239,
0,732,587,175,478,237,
0,793,627,174,529,235,
0,819,617,173,523,232,
0,806,609,172,516,236,
0,792,601,182,511,233,
0,777,593,180,505,234,
0,766,585,179,499,231,
0,755,579,178,494,230,
0,743,572,177,489,228,
0,734,565,175,483,227,
0,723,558,174,480,225,
0,827,743,172,526,223,
0,812,732,171,519,221,
0,799,720,192,513,220,
0,787,710,192,508,217,
0,771,700,190,502,227,
0,760,690,188,497,225,
0,749,680,186,492,223,
0,738,671,185,487,221,
0,728,663,184,481,219,
0,718,655,182,512,217,
0,841,705,180,504,216,
0,826,695,179,499,214,
0,814,685,188,493,257,
0,799,675,185,487,254,
0,785,665,184,483,255,
0,773,657,183,478,252,
0,761,647,180,472,249,
0,751,639,179,467,248,
0,739,632,178,463,245,
0,729,760,177,518,243,
0,841,771,175,510,241,
0,827,760,174,504,239,
0,814,748,187,498,252,
0,801,737,184,492,249,
0,785,727,183,487,248,
0,774,716,181,483,244,
0,763,706,179,477,243,
0,752,696,178,472,240,
0,740,687,177,467,239,
0,739,733,176,529,236,
0,837,721,174,521,235,
0,824,711,172,515,236,
0,810,700,171,509,233,
0,797,691,170,504,237,
0,782,680,168,498,235,
0,771,671,167,492,231,
0,760,663,166,487,230,
0,748,654,164,482,228,
0,737,646,163,478,227,
0,799,752,163,528,224,
0,844,739,161,520,223,
0,830,728,169,515,234,
0,817,718,201,509,231,
0,804,707,199,504,236,
0,788,697,207,497,233,
0,777,688,204,492,231,
0,766,679,203,487,229,
0,754,670,201,482,227,
0,743,660,199,477,225,
0,856,719,198,523,224,
0,839,709,196,515,221,
0,825,699,199,509,243,
0,812,689,198,504,240,
0,799,679,196,497,239,
0,784,670,194,492,237,
0,773,660,193,487,235,
0,761,652,191,482,232,
0,751,643,190,477,231,
0,739,636,188,518,228,
0,824,656,187,536,227,
0,811,647,185,527,225,
0,798,639,184,521,281,
0,785,631,182,516,278,
0,773,623,180,510,275,
0,760,615,179,504,273,
0,748,608,177,499,270,
0,737,600,176,494,268,
0,727,593,175,488,265,
0,717,587,174,516,263,
0,836,639,172,510,261,
0,822,630,171,503,259,
0,809,622,190,497,257,
0,796,613,188,492,255,
0,783,605,187,487,254,
0,769,598,184,481,251,
0,758,590,183,476,248,
0,747,583,182,472,247,
0,736,575,180,467,244,
0,728,620,179,525,243,
0,839,620,177,519,241,
0,825,611,176,511,242,
0,812,603,176,504,240,
0,799,595,174,499,239,
0,787,587,173,494,237,
0,772,579,171,488,235,
0,761,572,170,483,232,
0,750,566,168,479,231,
0,739,560,167,473,229,
0,792,643,166,526,227,
0,835,632,164,518,225,
0,822,624,163,512,231,
0,809,615,175,507,230,
0,796,607,174,501,237,
0,783,599,173,496,235,
0,769,591,171,490,232,
0,759,583,169,484,231,
0,747,576,168,480,228,
0,736,569,167,475,227,
0,844,674,166,519,224,
0,835,662,164,512,223,
0,821,652,187,507,244,
0,807,643,184,500,241,
0,795,635,186,495,259,
0,783,626,184,490,255,
0,768,618,183,484,254,
0,757,610,180,480,251,
0,747,603,179,475,248,
0,736,595,178,495,247,
0,835,716,176,514,244,
0,821,703,175,506,242,
0,807,693,192,500,240,
0,796,683,190,496,238,
0,783,673,189,489,236,
0,771,664,187,484,235,
0,758,655,185,480,231,
0,746,647,184,475,230,
0,736,638,183,470,228,
0,726,631,181,526,227,
0,843,699,179,519,224,
0,828,686,178,511,223,
0,814,675,177,505,231,
0,800,665,176,499,228,
0,788,656,176,494,238,
0,775,647,175,488,236,
0,761,639,172,483,233,
0,751,632,172,479,231,
0,740,623,169,473,230,
0,731,655,168,526,227,
0,838,667,167,519,225,
0,824,655,166,512,231,
0,811,647,167,505,230,
0,798,638,167,500,240,
0,785,629,166,495,238,
0,774,620,164,489,236,
0,760,612,163,484,233,
0,748,605,161,480,231,
0,738,598,160,475,230,
0,784,671,159,531,227,
0,843,664,158,524,225,
0,829,652,163,517,241,
0,816,643,230,511,239,
0,803,635,227,505,243,
0,791,626,225,499,241,
0,779,618,224,495,239,
0,764,610,221,489,236,
0,753,602,220,484,234,
0,743,595,217,479,231,
0,839,639,216,511,230,
0,836,631,214,505,228,
0,823,620,218,499,263,
0,809,611,216,493,260,
0,797,604,215,487,267,
0,785,595,212,483,263,
0,773,588,211,478,262,
0,760,582,209,472,259,
0,748,575,207,467,257,
0,737,568,206,486,255,
0,852,622,204,524,252,
0,838,612,203,518,251,
0,824,603,200,510,252,
0,810,595,199,504,249,
0,798,588,198,499,248,
0,786,579,196,493,246,
0,774,572,195,487,243,
0,760,566,193,483,240,
0,748,559,192,478,239,
0,738,552,190,527,237,
0,843,647,188,519,235,
0,828,637,187,514,233,
0,815,627,187,507,231,
0,801,617,185,502,230,
0,790,609,184,496,233,
0,777,601,183,491,231,
0,764,594,182,486,228,
0,752,587,179,480,227,
0,742,579,178,476,225,
0,732,649,177,532,223,
0,839,709,176,526,221,
0,824,698,174,519,222,
0,812,686,188,512,231,
0,799,676,185,507,251,
0,787,667,184,501,257,
0,775,658,183,496,255,
0,760,649,181,491,252,
0,750,639,179,486,249,
0,739,632,178,480,248,
0,771,696,176,536,246,
0,831,685,175,528,243,
0,817,675,174,523,262,
0,804,664,189,515,259,
0,792,655,188,510,255,
0,780,646,208,504,254,
0,768,638,207,499,252,
0,754,630,204,493,249,
0,743,621,203,487,247,
0,732,614,201,483,245,
0,828,703,199,531,243,
0,841,691,198,524,240,
0,828,681,195,519,239,
0,815,669,195,511,238,
0,801,660,193,505,254,
0,789,652,192,499,251,
0,777,643,190,495,248,
0,763,634,188,489,247,
0,752,626,187,483,243,
0,741,618,185,492,242,
0,856,668,184,531,240,
0,841,659,182,524,238,
0,828,649,190,519,239,
0,814,639,188,512,236,
0,801,630,186,505,238,
0,788,622,184,500,236,
0,777,614,184,495,233,
0,763,606,182,489,231,
0,752,599,179,484,230,
0,741,591,179,536,227,
0,846,661,177,531,226,
0,831,652,176,524,224,
0,817,639,192,519,225,
0,804,632,190,511,223,
0,792,623,190,505,238,
0,780,615,188,500,236,
0,768,607,187,495,233,
0,754,600,185,489,231,
0,743,591,184,484,230,
0,734,585,182,536,227,
0,838,600,180,529,225,
0,824,591,179,523,224,
0,811,582,184,518,222,
0,798,575,182,510,221,
0,786,568,198,504,219,
0,775,561,195,499,217,
0,763,555,194,494,216,
0,749,548,192,487,214,
0,738,543,190,483,212,
0,766,598,188,534,211,
0,849,588,187,527,209,
0,835,580,185,520,207,
0,822,571,227,515,206,
0,808,564,224,508,206,
0,796,557,222,502,204,
0,783,550,220,496,203,
0,772,543,219,491,201,
0,758,537,216,486,199,
0,748,531,214,481,198,
0,830,631,212,519,196,
0,839,620,211,513,195,
0,825,612,209,508,231,
0,812,602,207,502,229,
0,799,595,206,495,227,
0,787,587,204,489,225,
0,775,579,202,484,223,
0,764,572,200,480,220,
0,750,565,199,475,219,
0,739,558,197,472,217,
0,855,632,195,515,215,
0,839,624,194,510,214,
0,825,615,211,504,249,
0,812,605,209,498,247,
0,799,598,207,492,244,
0,787,590,206,486,243,
0,775,582,204,481,240,
0,764,575,203,476,238,
0,751,568,199,472,236,
0,739,561,199,517,233,
0,849,587,198,510,231,
0,835,579,195,504,230,
0,822,572,197,499,231,
0,808,563,195,493,229,
0,796,556,193,487,246,
0,783,550,192,481,243,
0,771,543,191,476,241,
0,760,536,189,472,239,
0,747,530,188,467,237,
0,737,591,186,519,235,
0,849,644,184,512,232,
0,835,636,183,507,246,
0,822,627,207,502,263,
0,809,616,206,496,260,
0,796,608,249,489,258,
0,783,600,246,483,255,
0,772,592,243,479,254,
0,761,585,242,473,252,
0,747,578,239,469,249,
0,761,647,238,526,247,
0,839,636,235,519,244,
0,825,627,233,513,260,
0,813,620,231,507,257,
0,799,609,230,500,255,
0,787,601,228,495,252,
0,775,593,227,489,251,
0,764,587,224,484,248,
0,753,579,223,480,247,
0,739,572,220,475,244,
0,816,577,219,522,241,
0,840,569,217,515,240,
0,827,563,216,510,271,
0,814,556,220,504,268,
0,800,548,219,497,281,
0,788,542,219,492,278,
0,776,536,216,487,275,
0,765,529,215,481,273,
0,754,524,213,476,271,
0,740,518,211,472,268,
0,856,652,209,525,265,
0,841,641,207,519,263,
0,828,632,209,513,271,
0,814,624,207,507,268,
0,801,614,206,500,266,
0,789,606,204,495,263,
0,777,598,203,489,262,
0,766,590,201,484,259,
0,754,583,199,480,257,
0,741,575,198,521,255,
0,839,595,196,524,252,
0,824,588,195,519,250,
0,812,580,195,512,248,
0,799,572,193,507,246,
0,787,563,192,499,246,
0,775,557,190,494,244,
0,763,551,189,489,242,
0,752,543,188,483,240,
0,741,537,186,479,238,
0,728,532,185,527,236,
0,851,526,183,520,233,
0,836,519,182,515,231,
0,824,515,182,508,240,
0,809,509,180,504,239,
0,798,503,179,496,239,
0,785,497,178,491,237,
0,774,492,177,486,235,
0,762,487,176,480,233,
0,751,483,174,476,231,
0,753,583,172,524,228,
0,849,625,172,518,227,
0,835,616,170,512,225,
0,822,608,194,505,224,
0,808,600,192,500,224,
0,796,591,191,494,222,
0,783,583,189,487,220,
0,772,575,188,483,219,
0,761,569,186,478,217,
0,750,562,184,473,216,
0,809,615,183,521,214,
0,843,605,181,515,211,
0,829,597,179,509,211,
0,816,589,178,504,208,
0,803,582,177,497,219,
0,791,572,176,491,216,
0,779,565,174,486,215,
0,768,559,172,480,212,
0,755,551,172,476,211,
0,744,545,170,471,209,
0,854,638,168,521,207,
0,839,627,167,515,206,
0,825,620,198,510,236,
0,812,611,195,504,233,
0,799,603,194,498,233,
0,787,593,192,492,231,
0,775,586,191,486,229,
0,764,579,189,481,227,
0,752,572,187,476,225,
0,742,564,185,515,224,
0,862,639,184,526,221,
0,847,630,183,519,219,
0,833,622,194,514,255,
0,819,613,192,508,252,
0,807,605,191,503,251,
0,794,595,189,496,248,
0,782,588,188,491,247,
0,771,580,186,486,244,
0,760,573,184,480,242,
0,745,567,184,531,240,
0,856,653,181,524,238,
0,842,643,179,518,236,
0,828,635,192,512,236,
0,815,626,191,507,235,
0,802,618,189,500,233,
0,790,608,188,494,231,
0,778,600,185,488,230,
0,766,592,184,483,227,
0,755,585,183,479,225,
0,747,684,182,526,224,
0,856,775,179,519,222,
0,841,763,178,513,233,
0,828,752,188,507,231,
0,815,740,187,502,232,
0,802,729,184,496,231,
0,790,716,184,489,228,
0,777,707,182,484,227,
0,766,696,180,479,225,
0,755,688,179,474,223,
0,811,679,177,526,221,
0,847,671,176,519,219,
0,833,662,174,513,235,
0,820,654,203,508,231,
0,807,646,201,503,244,
0,794,637,199,497,241,
0,783,627,198,490,240,
0,771,620,195,485,238,
0,760,612,194,480,236,
0,748,604,192,475,233,
0,856,673,191,521,231,
0,844,664,189,515,229,
0,830,654,196,510,235,
0,816,645,194,504,231,
0,803,636,192,499,262,
0,792,627,191,494,259,
0,779,617,189,487,255,
0,768,609,188,481,254,
0,756,601,186,476,252,
0,745,595,185,496,249,
0,829,731,184,505,248,
0,815,719,181,499,244,
0,802,710,238,494,259,
0,790,699,235,488,257,
0,777,689,233,483,272,
0,766,676,231,479,270,
0,755,668,229,472,268,
0,743,659,227,467,265,
0,733,650,225,463,263,
0,723,642,224,524,260,
0,835,692,222,516,258,
0,822,683,220,511,255,
0,808,672,217,505,254,
0,796,664,216,499,252,
0,783,654,215,494,250,
0,772,643,212,488,248,
0,760,636,211,482,246,
0,750,627,209,477,243,
0,739,619,207,472,241,
0,728,664,206,521,240,
0,846,681,204,515,238,
0,831,671,202,508,245,
0,819,663,204,503,248,
0,806,653,202,497,247,
0,792,644,200,492,244,
0,781,633,199,487,242,
0,769,625,198,480,240,
0,758,617,196,476,238,
0,747,610,194,471,236,
0,737,696,193,524,234,
0,841,684,192,517,231,
0,827,674,190,511,234,
0,814,664,231,505,231,
0,801,655,228,499,230,
0,789,647,227,494,227,
0,777,636,224,488,226,
0,766,627,223,483,224,
0,754,620,221,478,223,
0,743,611,219,472,221,
0,772,663,217,525,219,
0,839,653,215,519,217,
0,826,643,214,513,257,
0,813,635,211,507,255,
0,799,627,237,502,252,
0,787,619,235,496,249,
0,775,608,233,491,248,
0,764,601,231,484,246,
0,753,593,228,479,243,
0,743,587,227,503,241,
0,834,681,225,534,239,
0,842,671,223,527,237,
0,828,662,221,521,235,
0,816,652,219,515,232,
0,803,643,217,510,287,
0,790,635,216,504,284,
0,779,624,214,499,281,
0,768,615,211,492,280,
0,755,608,210,487,277,
0,744,600,208,530,275,
0,856,670,207,523,271,
0,837,659,205,517,270,
0,824,651,204,511,267,
0,811,641,202,505,264,
0,798,633,201,499,270,
0,786,625,199,494,267,
0,774,615,198,489,264,
0,763,607,196,483,263,
0,752,600,195,478,260,
0,741,637,193,531,258,
0,847,667,192,524,255,
0,828,657,190,518,254,
0,816,647,190,512,251,
0,803,639,188,506,269,
0,790,632,187,500,273,
0,778,623,185,495,271,
0,768,612,184,487,268,
0,755,605,183,483,265,
0,743,597,182,479,263,
0,735,668,180,527,261,
0,847,656,179,520,259,
0,829,647,176,515,256,
0,816,639,176,509,254,
0,803,630,174,504,254,
0,791,622,174,498,252,
0,779,614,173,492,249,
0,768,604,172,486,248,
0,756,595,171,481,245,
0,744,588,169,476,243,
0,764,633,167,536,241,
0,839,624,167,529,239,
0,822,615,174,524,245,
0,808,607,174,518,242,
0,796,599,172,512,241,
0,783,591,171,507,239,
0,772,583,169,501,237,
0,761,575,167,494,235,
0,750,568,167,489,233,
0,739,563,166,497,231,
0,819,705,164,526,230,
0,828,695,163,519,227,
0,812,685,182,513,225,
0,799,675,180,508,224,
0,787,665,179,503,227,
0,775,656,177,497,225,
0,764,647,176,492,223,
0,752,637,174,484,221,
0,742,629,173,480,220,
0,731,621,172,523,218,
0,849,670,170,515,216,
0,834,660,169,509,215,
0,817,652,196,504,224,
0,804,642,194,498,222,
0,792,633,192,493,231,
0,780,625,191,487,230,
0,768,617,189,482,227,
0,757,608,188,476,225,
0,745,600,185,472,224,
0,736,627,184,526,222,
0,846,664,183,519,220,
0,831,655,182,513,218,
0,815,646,184,508,231,
0,801,637,183,502,232,
0,790,628,184,496,231,
0,777,620,182,492,228,
0,766,612,180,486,227,
0,755,603,179,480,224,
0,743,595,177,475,223,
0,734,664,176,515,221,
0,841,652,174,508,219,
0,827,643,173,503,220,
0,811,635,173,497,236,
0,798,626,172,492,269,
0,785,617,207,487,265,
0,774,609,206,481,263,
0,762,602,204,476,260,
0,751,591,202,470,258,
0,740,585,199,465,255,
0,743,579,199,515,254,
0,826,571,197,510,252,
0,812,564,195,504,249,
0,796,558,193,498,247,
0,783,551,192,492,278,
0,772,545,190,487,275,
0,760,540,188,482,272,
0,750,534,187,477,270,
0,739,527,185,471,268,
0,728,521,184,472,265,
0,802,595,183,513,263,
0,830,587,182,507,261,
0,816,579,179,502,259,
0,799,572,179,496,255,
0,787,564,177,491,254,
0,775,558,176,486,252,
0,764,551,175,480,250,
0,753,543,173,476,248,
0,742,536,172,469,246,
0,732,529,171,526,244,
0,851,607,169,519,242,
0,835,599,167,514,240,
0,818,591,183,508,240,
0,805,583,180,503,237,
0,793,575,179,497,240,
0,780,568,177,492,238,
0,769,561,176,487,236,
0,758,554,174,481,235,
0,747,546,172,475,231,
0,736,572,172,526,231,
0,844,620,170,519,229,
0,829,612,168,513,227,
0,812,604,184,507,225,
0,799,595,183,502,235,
0,787,588,181,496,249,
0,775,580,179,491,247,
0,764,574,178,486,244,
0,753,567,176,480,243,
0,742,558,175,474,240,
0,732,638,174,518,238,
0,831,632,172,511,236,
0,818,623,171,505,235,
0,802,614,169,499,231,
0,790,606,167,494,230,
0,777,598,167,487,228,
0,766,590,165,483,226,
0,754,583,164,478,224,
0,743,574,163,473,222,
0,733,567,161,467,221,
0,734,638,160,515,219,
0,831,627,159,510,217,
0,817,619,158,504,221,
0,801,611,173,498,219,
0,789,603,188,493,217,
0,777,595,196,487,216,
0,766,588,195,482,214,
0,754,579,193,478,212,
0,743,572,192,472,211,
0,732,564,190,472,209,
0,797,643,188,524,207,
0,829,633,187,518,206,
0,815,625,185,512,204,
0,799,615,199,507,203,
0,787,608,196,500,227,
0,775,600,194,496,225,
0,764,592,193,490,223,
0,752,585,191,484,220,
0,742,575,190,480,219,
0,731,569,188,519,217,
0,849,649,187,516,216,
0,834,639,185,511,214,
0,820,632,187,504,264,
0,804,622,185,499,262,
0,792,614,185,494,259,
0,780,606,184,487,255,
0,768,599,182,483,254,
0,756,591,180,478,252,
0,745,582,179,473,249,
0,736,639,178,512,248,
0,845,729,176,505,246,
0,830,719,175,500,243,
0,817,708,211,495,255,
0,801,697,207,489,253,
0,788,688,206,483,271,
0,776,679,204,479,268,
0,765,670,203,473,265,
0,753,660,200,468,263,
0,743,649,199,463,261,
0,732,698,198,515,259,
0,845,687,195,510,255,
0,831,676,194,504,254,
0,817,667,211,497,264,
0,801,658,209,492,263,
0,788,649,214,487,259,
0,777,639,211,481,257,
0,765,632,209,477,255,
0,754,624,207,472,252,
0,743,615,206,467,251,
0,737,662,204,523,248,
0,844,652,203,516,247,
0,830,643,201,511,273,
0,817,633,224,504,286,
0,801,625,222,499,284,
0,788,617,220,494,280,
0,776,609,217,487,278,
0,765,601,216,483,275,
0,753,594,214,478,273,
0,743,585,212,473,271,
0,799,637,211,529,268,
0,845,627,209,523,265,
0,831,619,207,518,263,
0,817,611,249,511,262,
0,801,603,246,505,271,
0,789,595,244,499,268,
0,777,588,242,495,265,
0,766,580,240,489,263,
0,755,574,238,484,261,
0,743,566,236,480,259,
0,854,561,233,526,257,
0,846,555,231,519,255,
0,831,548,240,514,271,
0,819,542,240,508,268,
0,803,536,237,503,265,
0,791,530,236,497,263,
0,779,524,233,492,261,
0,768,519,231,487,259,
0,756,513,230,481,255,
0,745,527,227,505,254,
0,852,619,225,519,252,
0,837,610,224,514,249,
0,824,602,240,508,267,
0,811,594,238,503,263,
0,795,587,236,497,271,
0,783,579,233,492,268,
0,771,572,231,487,265,
0,760,564,230,481,263,
0,748,558,227,476,261,
0,738,566,226,472,259,
0,829,558,224,466,257,
0,815,551,222,462,255,
0,803,543,221,457,263,
0,790,537,220,452,260,
0,775,531,223,448,292,
0,763,525,221,444,288,
0,752,519,220,440,286,
0,742,513,217,436,284,
0,731,508,216,432,281,
0,721,549,215,460,279,
0,822,542,212,455,275,
0,808,535,211,451,278,
0,796,527,221,446,295,
0,783,521,219,441,321,
0,769,515,217,437,328,
0,758,509,215,432,324,
0,747,504,214,428,321,
0,736,498,211,424,319,
0,726,493,209,422,316,
0,775,556,207,487,313,
0,825,548,207,481,311,
0,812,542,205,476,307,
0,799,535,209,471,305,
0,787,527,207,466,303,
0,771,522,216,461,300,
0,760,515,213,455,296,
0,749,510,211,451,295,
0,739,504,209,448,291,
0,728,498,207,443,290,
0,833,551,206,471,287,
0,825,543,204,465,285,
0,812,537,223,460,283,
0,799,530,231,455,280,
0,787,524,231,451,295,
0,772,518,228,446,291,
0,760,511,226,442,288,
0,750,505,224,438,286,
0,739,499,222,433,283,
0,728,494,220,452,280,
0,831,550,219,467,278,
0,817,543,216,462,275,
0,804,536,216,457,274,
0,792,529,214,452,271,
0,780,523,212,448,292,
0,765,516,211,444,288,
0,754,510,209,439,286,
0,743,504,207,435,284,
0,732,499,206,430,281,
0,723,494,204,474,279,
0,834,540,203,467,276,
0,820,534,201,462,273,
0,807,527,201,456,271,
0,794,520,199,451,270,
0,783,515,199,448,306,
0,768,508,198,443,302,
0,756,503,196,438,300,
0,745,496,195,433,296,
0,735,491,193,430,294,
0,725,524,192,471,291,
0,827,529,191,463,289,
0,813,523,189,459,287,
0,800,516,210,454,284,
0,788,510,207,449,295,
0,775,504,209,444,300,
0,761,498,207,440,295,
0,750,492,204,435,294,
0,739,487,204,432,291,
0,729,481,201,427,288,
0,764,569,199,465,286,
0,824,558,198,458,284,
0,812,551,196,454,281,
0,799,543,214,448,279,
0,786,537,212,444,305,
0,775,531,210,440,302,
0,760,524,207,435,299,
0,748,518,206,431,295,
0,738,512,204,427,294,
0,728,507,203,423,291,
0,825,601,201,461,288,
0,822,590,199,455,286,
0,809,583,232,449,287,
0,796,575,273,445,284,
0,783,568,271,440,316,
0,769,560,268,436,313,
0,758,553,265,432,310,
0,747,547,263,428,307,
0,736,540,260,423,304,
0,727,534,259,438,302,
0,833,560,255,466,299,
0,819,550,254,460,295,
0,806,543,252,455,299,
0,792,536,250,449,295,
0,780,530,248,445,308,
0,766,524,246,440,305,
0,755,518,243,436,302,
0,743,512,241,432,299,
0,733,507,240,428,295,
0,723,501,238,467,294,
0,821,496,236,460,291,
0,807,488,234,454,289,
0,795,483,232,449,287,
0,783,479,231,444,284,
0,771,473,229,440,304,
0,756,470,227,435,301,
0,745,464,225,432,297,
0,735,460,224,427,295,
0,724,455,222,423,292,
0,716,489,220,471,289,
0,824,513,218,464,287,
0,811,505,216,458,285,
0,798,499,216,453,283,
0,785,494,214,448,295,
0,774,487,212,444,299,
0,759,482,211,440,295,
0,748,476,209,435,293,
0,737,472,207,431,291,
0,727,466,206,427,287,
0,758,551,205,472,286,
0,828,542,203,465,283,
0,814,534,201,460,283,
0,801,527,220,455,280,
0,788,521,219,449,301,
0,776,515,219,445,297,
0,762,509,216,440,295,
0,751,503,214,435,291,
0,740,497,212,432,289,
0,729,492,211,428,287,
0,816,534,209,477,284,
0,825,524,207,472,281,
0,812,518,206,465,280,
0,799,512,220,460,277,
0,787,506,220,455,308,
0,775,499,217,451,305,
0,760,494,216,446,303,
0,750,488,214,441,300,
0,739,483,211,437,296,
0,728,478,210,447,295,
0,838,549,208,483,291,
0,823,540,207,478,289,
0,810,533,205,472,290,
0,797,527,203,466,287,
0,784,519,227,462,297,
0,773,514,225,456,295,
0,759,508,223,452,292,
0,748,503,220,448,289,
0,736,496,219,443,287,
0,727,491,217,483,284,
0,837,561,216,476,281,
0,823,551,214,472,280,
0,809,545,211,464,277,
0,797,539,210,460,275,
0,785,531,211,455,287,
0,772,526,208,450,284,
0,759,519,207,446,281,
0,748,513,204,441,279,
0,737,508,203,436,276,
0,727,502,201,464,273,
0,835,496,199,459,271,
0,820,489,199,454,270,
0,807,484,199,448,273,
0,795,479,199,444,271,
0,783,473,205,439,269,
0,771,468,203,434,267,
0,757,463,200,430,264,
0,745,459,199,425,262,
0,736,455,198,422,260,
0,753,543,195,465,258,
0,842,577,194,460,255,
0,828,568,193,455,254,
0,815,560,192,448,252,
0,801,553,190,444,278,
0,790,547,188,440,275,
0,777,540,187,435,272,
0,763,534,185,431,271,
0,752,527,184,427,268,
0,741,521,183,423,265,
0,813,590,182,485,263,
0,827,580,180,480,260,
0,814,572,179,474,259,
0,801,563,178,467,255,
0,788,557,177,463,277,
0,776,550,190,457,274,
0,765,543,188,454,271,
0,751,537,185,448,269,
0,740,531,184,444,267,
0,729,524,183,443,263,
0,816,596,182,480,262,
0,802,588,179,475,259,
0,790,579,179,470,257,
0,777,572,177,463,255,
0,766,564,182,458,275,
0,754,557,179,454,273,
0,743,551,178,449,271,
0,730,543,176,444,268,
0,719,537,175,440,265,
0,710,531,174,487,263,
0,824,583,172,483,260,
0,811,575,171,477,259,
0,798,567,179,471,255,
0,785,560,177,466,254,
0,774,552,176,461,286,
0,761,545,174,455,284,
0,751,539,173,451,281,
0,737,532,171,447,278,
0,727,526,170,443,275,
0,717,567,168,495,273,
0,836,575,167,487,271,
0,822,568,166,483,268,
0,809,559,204,476,266,
0,796,551,201,472,269,
0,784,545,199,466,305,
0,772,538,199,461,302,
0,761,531,196,456,300,
0,747,526,195,452,297,
0,736,519,193,448,294,
0,739,605,192,484,291,
0,831,599,190,478,288,
0,819,590,188,473,290,
0,806,581,192,467,287,
0,792,573,190,462,294,
0,780,566,217,456,291,
0,768,559,216,451,287,
0,757,551,214,448,286,
0,743,545,211,443,283,
0,733,539,209,439,280,
0,798,664,207,492,278,
0,818,654,206,487,275,
0,805,644,204,481,273,
0,792,633,207,475,271,
0,780,625,206,470,269,
0,768,617,204,464,267,
0,757,609,203,460,264,
0,745,601,201,455,263,
0,732,593,199,451,259,
0,722,587,198,446,258,
0,835,604,196,489,255,
0,820,596,195,483,254,
0,807,588,193,478,252,
0,795,579,192,472,249,
0,782,572,192,467,272,
0,771,565,190,462,270,
0,760,559,189,457,267,
0,748,551,188,452,265,
0,735,545,185,448,262,
0,724,540,184,487,260,
0,836,604,183,490,257,
0,822,596,181,485,255,
0,808,588,184,480,253,
0,796,579,182,473,252,
0,783,572,190,467,275,
0,771,564,188,463,273,
0,760,558,187,459,271,
0,750,551,185,454,268,
0,736,544,183,449,265,
0,726,539,182,499,263,
0,839,532,180,493,260,
0,825,526,179,487,258,
0,812,520,177,483,255,
0,799,513,176,476,254,
0,787,508,175,471,255,
0,775,503,173,466,252,
0,764,497,172,461,250,
0,752,492,171,456,248,
0,739,487,169,452,246,
0,736,482,167,485,243,
0,817,476,167,480,242,
0,803,472,166,473,240,
0,792,467,175,468,238,
0,779,462,173,463,268,
0,768,457,172,457,265,
0,756,452,171,452,263,
0,744,448,169,448,260,
0,734,444,167,444,258,
0,721,440,166,440,255,
0,783,540,165,443,254,
0,809,531,163,438,251,
0,796,524,162,434,287,
0,783,518,176,430,284,
0,771,511,175,425,287,
0,760,504,191,421,285,
0,749,499,189,417,282,
0,739,493,187,414,280,
0,726,487,185,409,278,
0,716,482,184,407,275,
0,830,547,182,455,271,
0,815,540,180,449,270,
0,802,534,194,444,268,
0,790,527,192,440,265,
0,777,519,201,435,287,
0,766,513,199,430,285,
0,754,507,197,425,283,
0,743,501,195,422,280,
0,729,496,193,417,278,
0,719,490,192,449,275,
0,827,539,190,453,271,
0,812,532,188,448,270,
0,799,526,188,444,268,
0,787,519,185,439,265,
0,775,511,209,433,287,
0,764,505,207,429,284,
0,752,499,205,424,282,
0,742,494,203,420,280,
0,728,488,201,416,277,
0,719,486,199,471,274,
0,824,531,198,464,271,
0,810,524,195,460,270,
0,798,518,194,455,267,
0,785,511,192,449,265,
0,774,504,215,444,302,
0,761,498,212,440,299,
0,750,492,211,435,295,
0,739,487,209,431,294,
0,727,481,207,427,291,
0,718,552,205,489,287,
0,830,591,204,483,286,
0,816,583,201,478,289,
0,803,576,199,472,286,
0,791,569,199,467,284,
0,779,560,198,462,281,
0,768,553,195,456,279,
0,756,547,194,452,276,
0,745,540,193,448,274,
0,732,534,191,443,271,
0,787,601,189,497,270,
0,835,591,188,492,267,
0,821,583,187,486,265,
0,808,577,190,481,263,
0,796,568,188,476,260,
0,783,560,188,469,259,
0,771,553,187,464,255,
0,760,547,185,460,254,
0,749,540,184,455,252,
0,736,534,183,451,251,
0,836,643,180,513,248,
0,822,633,179,507,246,
0,807,624,178,501,243,
0,796,615,177,496,241,
0,783,607,190,491,294,
0,771,598,198,483,290,
0,760,591,196,479,287,
0,749,583,195,473,285,
0,738,575,193,468,283,
0,726,569,192,497,280,
0,854,563,189,519,276,
0,839,556,188,513,275,
0,824,550,189,508,271,
0,812,543,187,503,270,
0,799,536,192,497,268,
0,787,529,191,490,265,
0,775,523,189,484,263,
0,764,518,188,480,261,
0,752,511,186,475,259,
0,739,521,184,519,257,
0,846,600,183,513,255,
0,831,591,181,507,252,
0,818,583,184,502,250,
0,805,576,183,496,248,
0,792,568,190,491,259,
0,780,560,188,484,257,
0,769,553,187,479,255,
0,758,547,185,474,253,
0,747,540,184,469,251,
0,734,592,182,512,248,
0,857,595,180,504,246,
0,844,587,179,499,248,
0,830,579,182,494,246,
0,816,572,179,488,263,
0,803,563,178,483,286,
0,792,556,177,477,283,
0,780,550,176,472,280,
0,768,543,174,467,278,
0,756,536,173,463,275,
0,792,628,171,516,273,
0,847,618,170,510,270,
0,831,609,168,504,271,
0,819,601,198,499,269,
0,806,593,195,493,271,
0,794,583,195,487,268,
0,782,577,193,481,267,
0,771,569,192,476,263,
0,760,563,190,472,262,
0,748,556,188,467,259,
0,844,686,187,543,257,
0,845,675,184,536,255,
0,831,665,184,530,252,
0,817,655,182,524,251,
0,805,647,194,518,266,
0,792,637,192,512,263,
0,780,628,191,505,262,
0,769,620,189,499,259,
0,758,612,187,494,256,
0,747,605,185,503,255,
0,857,664,184,518,252,
0,842,655,183,511,249,
0,828,646,190,505,248,
0,815,637,188,499,246,
0,803,629,188,495,287,
0,790,619,185,487,285,
0,778,610,184,483,283,
0,767,603,183,478,280,
0,755,595,182,473,278,
0,744,599,179,513,275,
0,849,679,177,506,272,
0,834,669,176,500,270,
0,821,659,211,495,268,
0,807,651,208,489,265,
0,796,643,211,484,317,
0,783,632,209,478,313,
0,771,624,207,472,311,
0,760,615,206,467,307,
0,749,608,204,463,305,
0,739,638,203,515,303,
0,839,644,200,508,300,
0,824,635,199,503,296,
0,812,627,251,497,294,
0,799,618,248,492,291,
0,787,610,246,487,289,
0,775,600,243,480,287,
0,764,593,241,475,284,
0,752,585,240,471,281,
0,742,579,238,465,280,
0,732,650,236,523,277,
0,845,639,233,516,274,
0,830,631,231,511,272,
0,817,623,279,505,270,
0,804,614,275,499,312,
0,792,606,273,494,309,
0,780,596,271,487,306,
0,768,589,268,483,303,
0,757,582,265,478,300,
0,746,575,263,472,298,
0,755,638,262,508,295,
0,831,628,259,502,292,
0,819,620,257,496,290,
0,806,611,255,491,287,
0,793,604,253,485,302,
0,781,595,251,480,299,
0,769,586,248,473,295,
0,759,579,247,468,294,
0,747,572,244,463,291,
0,736,565,243,478,287,
0,816,568,241,505,286,
0,836,561,239,499,283,
0,823,555,236,495,280,
0,809,548,235,489,278,
0,796,542,233,484,286,
0,784,536,231,479,284,
0,772,528,230,472,281,
0,761,523,227,467,279,
0,751,517,226,463,276,
0,739,512,224,515,274,
0,856,536,223,508,271,
0,837,529,220,502,269,
0,824,523,220,496,280,
0,811,516,217,491,279,
0,798,511,216,486,284,
0,786,505,215,480,281,
0,774,499,214,474,279,
0,763,493,211,469,275,
0,752,487,210,464,273,
0,740,553,209,508,271,
0,847,624,207,503,269,
0,829,615,205,496,267,
0,816,608,204,491,265,
0,803,600,202,486,263,
0,791,591,202,480,262,
0,779,583,200,476,259,
0,768,575,199,470,257,
0,755,568,198,464,255,
0,745,561,196,460,254,
0,735,638,195,512,252,
0,834,627,193,506,249,
0,816,619,192,500,249,
0,803,611,249,495,247,
0,792,603,247,489,244,
0,779,595,244,484,243,
0,768,588,242,480,241,
0,756,578,240,473,239,
0,745,571,238,468,237,
0,735,563,236,463,236,
0,739,664,234,509,233,
0,824,655,231,504,231,
0,810,646,230,497,230,
0,798,636,228,492,228,
0,785,628,227,487,238,
0,774,620,235,481,236,
0,761,612,233,476,233,
0,751,602,231,470,231,
0,739,595,230,465,229,
0,729,588,227,471,227,
0,799,622,226,508,225,
0,828,613,224,502,224,
0,815,605,222,496,222,
0,801,598,220,491,220,
0,790,590,218,486,219,
0,777,583,216,480,217,
0,766,575,215,475,216,
0,755,567,213,469,214,
0,743,560,211,463,212,
0,733,553,210,514,211,
0,850,547,208,507,209,
0,831,540,207,502,207,
0,818,535,205,496,206,
0,805,528,203,491,204,
0,793,523,204,485,217,
0,780,517,202,480,216,
0,769,511,200,475,214,
0,758,504,199,468,212,
0,747,499,198,463,211,
0,736,561,196,515,209,
0,844,621,195,509,207,
0,825,612,193,504,205,
0,812,604,192,497,209,
0,799,596,190,492,217,
0,787,589,189,487,252,
0,775,582,188,482,250,
0,764,574,186,476,248,
0,752,565,184,471,246,
0,742,559,184,465,243,
0,732,647,183,508,241,
0,843,636,180,503,239,
0,825,627,179,496,237,
0,812,620,177,492,235,
0,799,611,176,486,273,
0,787,603,198,480,271,
0,775,595,195,476,269,
0,764,585,193,471,267,
0,752,579,192,464,264,
0,742,572,191,460,263,
0,732,632,189,498,260,
0,821,623,188,492,258,
0,804,614,185,487,271,
0,792,606,184,481,268,
0,780,598,185,476,265,
0,768,590,206,472,263,
0,756,583,204,466,261,
0,745,574,202,462,259,
0,735,567,199,455,257,
0,724,560,199,455,255,
0,783,659,198,503,252,
0,830,649,195,497,251,
0,813,641,219,492,248,
0,799,632,261,487,246,
0,787,624,259,481,265,
0,775,615,255,476,263,
0,764,608,254,471,260,
0,752,598,252,466,259,
0,742,591,249,460,255,
0,731,583,248,504,254,
0,847,649,246,500,252,
0,837,639,243,495,249,
0,820,632,241,488,287,
0,807,623,239,483,284,
0,795,615,247,479,281,
0,782,607,244,473,279,
0,771,600,243,468,276,
0,760,590,240,463,273,
0,748,583,239,457,271,
0,737,575,236,510,269,
0,861,580,235,504,267,
0,846,572,232,497,264,
0,828,566,231,492,263,
0,815,559,228,487,260,
0,803,552,227,481,273,
0,790,546,225,476,271,
0,778,540,224,472,268,
0,768,532,222,467,265,
0,755,527,220,460,263,
0,745,615,219,512,262,
0,849,612,216,505,259,
0,834,604,215,499,257,
0,817,596,213,494,255,
0,804,588,211,488,280,
0,792,581,210,483,276,
0,780,574,208,479,273,
0,768,567,207,473,271,
0,757,558,205,468,269,
0,746,551,204,463,267,
0,736,598,202,515,263,
0,836,588,200,509,262,
0,823,581,199,504,259,
0,807,574,197,497,257,
0,794,567,195,492,255,
0,782,560,195,487,252,
0,770,552,193,482,251,
0,759,546,192,477,248,
0,748,537,191,472,247,
0,737,531,189,467,244,
0,790,711,188,526,243,
0,833,700,187,519,241,
0,819,689,185,513,239,
0,803,679,184,508,237,
0,791,670,184,502,266,
0,779,661,182,496,263,
0,768,652,180,492,261,
0,756,643,179,486,259,
0,745,633,178,480,255,
0,735,625,177,520,255,
0,834,699,176,530,252,
0,819,688,174,524,249,
0,806,679,179,518,248,
0,791,669,178,512,246,
0,779,660,178,507,243,
0,767,652,176,500,241,
0,755,643,175,496,239,
0,744,635,174,491,237,
0,734,624,172,483,236,
0,723,633,172,541,233,
0,828,686,170,534,231,
0,814,675,168,527,230,
0,801,666,176,521,236,
0,785,656,175,516,234,
0,774,647,185,510,233,
0,761,639,184,504,231,
0,751,632,182,499,230,
0,740,623,180,494,227,
0,729,613,179,487,226,
0,719,683,178,536,224,
0,815,684,176,529,223,
0,801,675,175,524,221,
0,789,665,187,518,235,
0,774,655,184,512,241,
0,762,647,220,506,239,
0,751,639,217,501,236,
0,739,631,216,496,235,
0,729,622,214,490,231,
0,719,612,211,483,231,
0,711,646,210,537,228,
0,820,636,208,531,227,
0,807,627,207,524,243,
0,794,620,205,519,263,
0,779,611,203,513,284,
0,768,604,240,507,281,
0,755,596,237,502,279,
0,744,589,235,496,276,
0,734,582,233,491,273,
0,723,573,231,485,271,
0,759,687,229,537,269,
0,807,676,227,531,267,
0,795,667,225,524,264,
0,782,657,226,519,263,
0,768,648,224,513,259,
0,756,639,222,507,257,
0,745,632,220,502,255,
0,734,623,219,496,253,
0,723,615,216,491,251,
0,713,606,215,525,249,
0,812,667,213,536,247,
0,805,657,211,529,245,
0,792,647,215,524,255,
0,780,639,248,518,253,
0,766,632,246,512,278,
0,754,623,243,507,275,
0,743,615,241,501,273,
0,732,606,240,496,270,
0,722,599,238,491,268,
0,711,590,236,547,265,
0,828,635,233,540,263,
0,814,625,231,533,262,
0,801,617,262,527,259,
0,788,609,259,521,257,
0,774,601,255,515,280,
0,761,593,253,510,278,
0,751,585,251,504,275,
0,740,579,249,499,273,
0,729,572,247,494,271,
0,719,639,245,543,268,
0,829,667,243,537,265,
0,816,657,240,531,263,
0,803,648,257,525,263,
0,790,639,255,519,262,
0,775,632,252,513,267,
0,763,623,250,508,263,
0,752,615,248,503,262,
0,741,607,246,497,259,
0,731,600,243,492,257,
0,721,715,242,527,255,
0,808,703,240,520,253,
0,796,692,238,515,268,
0,783,683,236,508,284,
0,768,673,234,504,281,
0,756,664,231,497,279,
0,745,655,230,492,276,
0,735,647,228,487,273,
0,724,638,227,482,271,
0,715,630,224,477,269,
0,742,704,223,534,267,
0,819,692,222,527,263,
0,806,683,220,521,262,
0,793,673,217,515,260,
0,778,664,216,510,258,
0,767,655,215,504,255,
0,755,647,213,499,253,
0,743,638,211,494,251,
0,734,630,210,487,249,
0,723,622,207,483,248,
0,809,690,207,531,244,
0,811,679,205,525,243,
0,798,670,204,519,241,
0,785,661,202,513,239,
0,771,652,200,508,240,
0,760,643,199,502,238,
0,748,635,198,497,236,
0,737,627,195,492,233,
0,727,619,195,487,231,
0,716,611,193,500,231,
0,824,673,192,537,228,
0,810,664,190,531,227,
0,798,655,189,524,225,
0,785,646,188,519,224,
0,771,638,210,513,223,
0,759,628,207,508,220,
0,748,620,205,502,219,
0,736,612,204,496,217,
0,726,604,201,492,216,
0,716,598,200,543,214,
0,828,643,199,535,212,
0,815,633,196,528,211,
0,802,625,195,523,214,
0,790,617,194,516,212,
0,774,609,198,511,211,
0,763,601,195,505,208,
0,752,593,194,500,207,
0,740,587,192,495,206,
0,731,579,191,489,204,
0,721,691,190,540,203,
0,790,679,188,531,201,
0,777,669,187,526,205,
0,766,659,226,519,222,
0,754,651,224,514,222,
0,740,642,222,508,223,
0,729,633,220,504,220,
0,719,625,217,497,219,
0,710,617,216,492,216,
0,700,609,214,487,215,
0,720,646,212,536,213,
0,806,636,210,527,211,
0,793,627,209,521,225,
0,780,619,241,515,223,
0,768,611,239,510,257,
0,754,603,254,504,255,
0,743,595,251,499,252,
0,733,588,248,494,249,
0,723,581,247,487,247,
0,712,574,244,483,245,
0,799,647,242,527,243,
0,815,637,240,519,240,
0,802,628,239,514,246,
0,790,620,236,508,243,
0,777,611,235,503,242,
0,763,604,232,497,240,
0,752,595,231,492,238,
0,740,588,228,487,236,
0,730,582,227,481,233,
0,719,574,225,482,231,
0,839,700,223,521,230,
0,824,690,222,515,227,
0,812,680,222,508,240,
0,799,671,220,503,238,
0,787,662,219,497,236,
0,771,653,216,492,234,
0,760,643,215,487,231,
0,749,636,213,481,230,
0,738,627,211,477,227,
0,728,620,210,520,226,
0,824,672,208,515,224,
0,809,664,207,507,222,
0,797,654,225,501,221,
0,784,644,223,496,219,
0,774,636,221,491,266,
0,759,628,219,485,263,
0,748,620,216,480,260,
0,736,612,215,475,258,
0,726,604,213,471,255,
0,717,643,211,519,254,
0,829,708,209,512,252,
0,815,698,207,504,249,
0,802,688,239,499,271,
0,790,679,237,494,268,
0,777,669,235,488,265,
0,763,660,231,483,263,
0,752,652,231,478,260,
0,741,643,228,473,257,
0,731,635,226,468,255,
0,727,721,224,519,254,
0,799,707,223,513,252,
0,787,696,220,506,249,
0,775,686,227,500,247,
0,763,676,225,495,245,
0,751,668,224,489,243,
0,737,658,222,484,241,
0,728,649,220,480,239,
0,717,641,217,474,236,
0,707,633,216,470,235,
0,783,657,215,510,233,
0,813,645,212,503,231,
0,799,636,211,497,230,
0,787,627,214,492,227,
0,775,620,211,487,227,
0,764,611,209,481,224,
0,750,604,207,476,223,
0,739,596,206,472,220,
0,728,590,204,467,219,
0,719,583,203,463,217,
0,799,659,201,506,216,
0,786,647,199,499,214,
0,774,639,199,494,212,
0,762,630,196,487,211,
0,751,622,195,483,217,
0,739,614,194,478,216,
0,727,605,192,472,214,
0,716,598,191,467,211,
0,707,590,189,463,210,
0,697,607,188,506,208,
0,826,748,187,505,207,
0,812,734,185,497,205,
0,799,723,184,492,207,
0,787,712,183,487,206,
0,775,702,214,482,236,
0,763,693,211,476,233,
0,750,684,209,472,231,
0,738,674,207,467,230,
0,728,665,206,462,227,
0,718,669,204,504,225,
0,822,705,202,497,224,
0,807,692,199,490,222,
0,796,683,199,484,223,
0,783,673,198,480,223,
0,771,664,197,475,270,
0,760,655,195,470,267,
0,745,647,193,464,263,
0,735,639,192,460,262,
0,724,631,190,455,259,
0,726,636,189,503,257,
0,824,625,187,496,255,
0,811,615,185,490,255,
0,799,608,204,484,252,
0,785,600,202,480,250,
0,774,593,200,474,248,
0,763,587,199,469,246,
0,748,579,196,463,243,
0,737,572,195,460,241,
0,728,567,193,455,240,
0,792,658,192,501,237,
0,828,647,191,495,236,
0,815,636,189,487,233,
0,802,627,192,483,231,
0,790,620,191,478,253,
0,777,611,201,472,251,
0,766,604,199,467,248,
0,752,595,198,463,246,
0,741,588,195,457,243,
0,731,581,194,454,241,
0,833,696,192,495,239,
0,819,684,191,489,237,
0,806,672,190,483,240,
0,793,664,188,477,239,
0,781,655,187,472,248,
0,769,646,184,467,246,
0,758,637,184,462,243,
0,743,629,182,457,241,
0,733,620,180,453,239,
0,723,613,179,491,237,
0,831,639,177,494,235,
0,817,631,177,487,233,
0,804,620,206,481,231,
0,792,611,204,476,230,
0,779,604,204,472,227,
0,768,596,203,466,226,
0,755,589,201,461,224,
0,743,582,199,456,222,
0,732,575,197,452,220,
0,722,652,195,489,219,
0,846,754,193,483,216,
0,831,742,192,477,215,
0,817,728,199,471,214,
0,804,718,199,465,211,
0,792,707,196,460,233,
0,780,697,195,455,231,
0,766,688,193,451,230,
0,755,679,192,448,227,
0,743,670,190,443,225,
0,734,681,188,497,224,
0,796,670,187,491,222,
0,783,661,185,486,220,
0,772,651,206,479,218,
0,760,642,204,473,250,
0,749,634,202,468,258,
0,738,626,199,463,255,
0,725,618,199,459,254,
0,715,611,196,454,251,
0,705,604,195,450,248,
0,764,739,193,499,246,
0,808,743,192,494,243,
0,796,732,190,487,243,
0,783,719,204,481,240,
0,771,708,202,476,239,
0,760,699,200,472,236,
0,748,689,199,466,235,
0,735,679,198,462,232,
0,724,671,195,456,231,
0,715,662,193,452,229,
0,824,694,192,496,227,
0,807,684,190,491,225,
0,795,674,192,485,227,
0,783,663,191,479,225,
0,771,654,189,473,257,
0,760,646,188,468,255,
0,748,637,186,463,252,
0,735,629,184,459,250,
0,724,621,183,454,248,
0,715,614,182,485,246,
0,809,606,180,496,243,
0,796,599,179,489,240,
0,783,591,204,484,259,
0,771,583,201,478,255,
0,760,575,201,472,254,
0,748,569,199,467,252,
0,737,563,198,463,249,
0,724,557,196,458,248,
0,715,551,193,454,245,
0,705,545,192,497,243,
0,814,604,191,490,241,
0,800,596,189,484,239,
0,787,587,188,480,246,
0,775,579,187,472,243,
0,764,572,185,467,241,
0,752,564,184,463,239,
0,742,558,183,458,238,
0,728,551,181,454,236,
0,718,544,179,449,233,
0,709,539,178,502,231,
0,812,532,176,495,229,
0,799,527,175,489,239,
0,786,519,174,484,236,
0,774,515,172,478,241,
0,762,509,172,472,239,
0,751,504,171,467,236,
0,740,499,169,463,235,
0,728,494,167,457,232,
0,717,488,167,453,230,
0,760,488,165,504,228,
0,824,483,163,498,226,
0,811,478,163,492,224,
0,798,472,193,487,223,
0,785,467,191,481,270,
0,774,463,190,476,267,
0,762,459,188,471,263,
0,751,454,187,465,262,
0,737,449,185,461,259,
0,728,446,184,456,257,
0,834,577,182,507,255,
0,831,568,180,501,252,
0,819,561,184,495,255,
0,806,551,182,489,252,
0,793,545,180,483,259,
0,781,539,179,478,255,
0,769,532,179,473,254,
0,758,526,177,468,252,
0,744,519,175,463,249,
0,734,514,174,483,247,
0,842,587,172,499,244,
0,827,578,171,494,243,
0,814,571,184,487,240,
0,801,561,183,483,239,
0,789,555,182,476,262,
0,776,547,179,472,259,
0,765,541,178,467,257,
0,754,535,176,462,255,
0,740,527,175,456,252,
0,730,540,173,504,250,
0,842,615,172,497,248,
0,828,606,171,492,246,
0,815,599,171,487,245,
0,802,588,169,481,243,
0,790,582,225,475,243,
0,777,574,223,470,241,
0,766,567,220,464,239,
0,755,560,219,460,237,
0,741,553,216,455,235,
0,732,583,215,492,233,
0,838,586,212,486,231,
0,824,578,211,481,230,
0,811,571,266,476,227,
0,798,562,263,471,247,
0,786,555,261,463,259,
0,774,548,259,460,257,
0,763,542,255,455,254,
0,752,536,254,450,252,
0,738,529,251,446,249,
0,758,548,249,503,248,
0,787,541,248,496,245,
0,775,535,246,491,249,
0,763,527,243,486,247,
0,752,519,241,480,280,
0,740,514,239,474,277,
0,729,508,238,469,275,
0,719,504,236,464,271,
0,710,497,233,460,270,
0,698,492,231,455,268,
0,801,528,230,502,263,
0,805,521,227,496,262,
0,792,515,247,491,260,
0,780,508,287,485,257,
0,768,502,285,479,257,
0,756,496,282,473,255,
0,745,489,280,468,253,
0,735,484,277,463,251,
0,724,480,275,459,248,
0,711,475,272,476,248,
0,825,629,270,503,243,
0,811,620,268,497,242,
0,798,611,265,492,271,
0,785,603,263,486,268,
0,774,593,261,480,265,
0,762,585,259,475,263,
0,751,579,257,470,261,
0,740,571,255,464,259,
0,729,564,253,460,255,
0,717,558,251,510,255,
0,804,607,248,504,252,
0,792,598,247,497,249,
0,779,590,245,492,248,
0,768,583,243,487,245,
0,756,574,241,480,271,
0,744,567,240,475,268,
0,734,560,238,470,266,
0,723,552,236,465,263,
0,713,547,235,460,262,
0,702,662,231,509,259,
0,820,703,231,503,255,
0,807,692,228,497,255,
0,794,683,248,492,252,
0,782,673,246,487,263,
0,770,662,248,480,276,
0,759,652,246,475,274,
0,748,644,243,470,271,
0,737,636,241,465,269,
0,727,627,239,460,267,
0,740,711,237,493,263,
0,801,750,235,487,262,
0,788,737,233,482,259,
0,776,728,231,476,257,
0,764,716,230,472,255,
0,753,704,227,465,254,
0,742,694,225,460,252,
0,732,684,224,455,249,
0,721,675,223,451,248,
0,711,667,220,447,246,
0,796,793,219,487,243,
0,805,779,217,483,240,
0,792,768,233,478,257,
0,780,755,263,472,255,
0,768,743,260,467,300,
0,756,731,257,461,297,
0,745,719,255,455,295,
0,735,710,253,451,291,
0,724,700,251,447,289,
0,715,691,249,449,287,
0,825,682,247,476,284,
0,811,673,244,471,281,
0,798,664,242,465,279,
0,785,655,240,460,276,
0,774,647,239,455,274,
0,762,637,237,450,271,
0,751,630,235,445,270,
0,740,622,233,441,268,
0,729,615,231,437,265,
0,719,607,230,496,263,
0,804,675,227,492,260,
0,791,665,225,486,258,
0,779,656,273,480,267,
0,767,647,270,476,263,
0,755,639,327,470,262,
0,743,628,323,463,259,
0,733,620,319,460,257,
0,723,611,317,455,255,
0,713,604,313,450,254,
0,702,598,312,504,252,
0,816,590,307,496,248,
0,803,583,305,491,247,
0,790,576,303,486,246,
0,777,569,300,480,262,
0,766,563,297,475,295,
0,755,556,295,468,292,
0,743,550,293,463,290,
0,733,543,291,459,287,
0,723,537,288,455,284,
0,734,575,286,499,282,
0,804,568,284,494,280,
0,792,560,281,488,277,
0,780,553,279,483,274,
0,768,547,276,478,287,
0,756,540,275,472,285,
0,745,531,272,467,281,
0,734,526,271,462,280,
0,723,520,268,457,277,
0,713,515,266,452,275,
0,805,513,263,500,271,
0,828,508,262,495,269,
0,815,503,295,489,289,
0,802,497,319,483,286,
0,790,492,316,479,284,
0,777,487,325,473,280,
0,766,481,321,467,278,
0,755,476,319,463,275,
0,743,472,316,457,273,
0,733,467,313,458,271,
0,835,597,311,497,269,
0,820,588,307,492,266,
0,807,580,364,487,265,
0,795,573,359,481,263,
0,783,566,355,476,270,
0,771,559,352,471,268,
0,760,550,348,464,265,
0,748,543,345,460,263,
0,737,536,343,455,261,
0,728,577,339,499,259,
0,859,803,336,493,255,
0,844,788,332,487,254,
0,830,775,330,482,269,
0,816,764,327,477,267,
0,804,753,324,472,306,
0,792,739,322,467,303,
0,780,728,319,460,300,
0,768,718,316,455,297,
0,756,708,314,451,295,
0,746,699,312,500,293,
0,853,689,309,494,289,
0,839,679,306,487,287,
0,825,671,304,483,285,
0,812,663,302,478,283,
0,799,654,299,472,280,
0,787,643,296,467,278,
0,775,636,294,462,275,
0,764,628,292,456,273,
0,752,620,290,452,271,
0,743,614,287,508,269,
0,835,606,286,503,267,
0,822,599,283,497,268,
0,808,591,280,491,265,
0,796,585,279,486,263,
0,783,578,278,481,261,
0,772,570,275,476,259,
0,760,563,273,470,257,
0,750,558,271,464,255,
0,739,551,270,460,253,
0,729,684,268,505,251,
0,819,718,265,499,249,
0,806,707,289,494,247,
0,793,697,399,487,244,
0,780,688,395,483,257,
0,769,678,391,478,255,
0,758,667,387,472,252,
0,747,657,384,467,250,
0,736,648,380,462,248,
0,726,639,376,457,246,
0,761,750,373,500,243,
0,782,737,369,494,241,
0,769,727,366,488,278,
0,758,716,363,483,275,
0,747,706,367,478,272,
0,736,696,363,473,270,
0,726,684,359,468,268,
0,716,675,356,462,265,
0,705,665,353,457,263,
0,696,657,351,504,261,
0,779,699,348,508,259,
0,763,688,344,503,255,
0,751,679,342,497,260,
0,739,669,339,492,258,
0,729,660,449,487,281,
0,719,651,443,481,279,
0,708,641,439,476,276,
0,699,632,434,470,273,
0,689,625,430,465,271,
0,681,670,426,507,269,
0,796,781,422,499,267,
0,780,768,416,494,263,
0,768,757,412,488,262,
0,756,745,409,483,259,
0,745,735,406,478,290,
0,735,724,401,473,287,
0,724,711,398,468,284,
0,714,702,395,462,281,
0,704,696,391,457,280,
0,696,801,388,509,277,
0,835,787,385,503,275,
0,817,775,380,497,271,
0,804,764,377,492,269,
0,792,752,375,487,308,
0,780,741,371,481,309,
0,768,731,368,476,305,
0,757,718,365,470,303,
0,746,707,362,465,300,
0,736,698,359,460,297,
0,726,745,357,508,295,
0,821,733,354,502,292,
0,804,723,351,496,290,
0,792,711,348,491,287,
0,780,702,344,486,284,
0,768,692,342,480,282,
0,756,683,339,475,280,
0,745,671,337,469,278,
0,735,664,335,463,275,
0,724,655,332,460,273,
0,774,797,329,504,271,
0,832,783,327,497,268,
0,815,771,323,492,267,
0,803,760,321,486,263,
0,790,748,319,481,269,
0,778,737,316,476,267,
0,767,728,314,472,263,
0,755,715,312,465,262,
0,743,704,310,460,260,
0,734,696,307,504,258,
0,827,686,305,516,255,
0,815,676,303,511,254,
0,799,668,300,505,252,
0,786,659,298,499,249,
0,774,652,327,494,257,
0,763,643,323,488,255,
0,751,635,319,483,252,
0,740,625,317,477,251,
0,730,617,315,472,248,
0,719,614,312,530,247,
0,809,655,309,523,244,
0,796,646,307,517,243,
0,780,637,304,511,240,
0,768,628,301,505,239,
0,757,620,299,499,246,
0,745,612,295,495,243,
0,735,604,294,489,242,
0,724,595,291,483,240,
0,715,588,289,478,238,
0,705,582,287,511,236,
0,797,575,286,504,234,
0,783,568,284,499,231,
0,769,562,281,493,233,
0,758,556,375,487,234,
0,745,550,369,483,231,
0,736,543,365,478,230,
0,725,538,361,472,228,
0,715,531,358,467,227,
0,705,525,355,462,225,
0,696,715,352,505,224,
0,787,710,348,499,222,
0,774,700,345,495,243,
0,760,689,371,488,246,
0,748,679,527,483,246,
0,737,670,551,479,243,
0,727,662,544,473,241,
0,716,652,539,468,239,
0,707,641,532,463,237,
0,696,633,527,458,235,
0,734,648,521,511,233,
0,782,639,515,504,231,
0,769,631,511,499,272,
0,755,623,504,493,268,
0,743,615,499,487,265,
0,733,608,494,483,263,
0,723,600,489,478,262,
0,712,592,484,472,259,
0,703,583,480,467,257,
0,694,577,476,499,255,
0,804,649,472,515,252,
0,824,639,467,510,250,
0,810,632,463,504,248,
0,795,623,457,498,246,
0,782,614,454,493,243,
0,771,606,449,487,241,
0,760,599,446,483,240,
0,748,591,441,478,238,
0,737,582,438,472,236,
0,728,575,434,507,233,
0,801,568,430,500,231,
0,787,561,426,495,230,
0,772,556,423,489,228,
0,760,548,419,484,226,
0,750,543,415,480,238,
0,739,536,412,474,235,
0,728,531,408,469,233,
0,718,525,404,463,231,
0,708,518,401,459,229,
0,699,560,399,512,227,
0,807,552,395,505,225,
0,794,546,391,499,224,
0,779,539,388,494,222,
0,768,532,385,489,220,
0,755,526,382,483,218,
0,743,519,379,479,216,
0,734,514,376,473,215,
0,723,508,373,468,214,
0,713,502,371,463,211,
0,704,608,368,533,210,
0,798,620,364,526,208,
0,785,611,361,520,231,
0,770,604,409,515,249,
0,759,595,403,508,247,
0,747,588,399,504,243,
0,736,580,396,497,242,
0,726,573,391,492,240,
0,716,566,388,487,238,
0,706,558,384,481,236,
0,732,697,381,545,233,
0,835,685,377,537,231,
0,821,675,374,532,248,
0,804,665,371,526,246,
0,792,657,367,519,243,
0,780,647,364,514,240,
0,768,639,361,508,238,
0,758,632,479,504,236,
0,746,623,558,498,235,
0,736,613,551,515,232,
0,812,686,543,553,231,
0,825,675,537,547,228,
0,811,666,532,540,240,
0,795,657,526,534,238,
0,783,648,519,527,236,
0,771,639,514,523,234,
0,760,632,509,516,231,
0,748,623,504,511,230,
0,738,613,499,505,228,
0,728,606,494,560,226,
0,808,649,489,551,224,
0,795,639,484,545,223,
0,783,632,567,540,262,
0,768,623,664,534,259,
0,755,615,652,527,255,
0,744,607,644,521,254,
0,734,600,636,516,252,
0,723,591,628,510,249,
0,713,583,622,505,247,
0,704,580,615,557,245,
0,824,575,607,550,243,
0,809,568,600,543,240,
0,796,562,594,537,240,
0,781,556,588,531,238,
0,769,549,598,526,236,
0,758,543,590,519,233,
0,748,536,583,514,231,
0,736,531,577,508,230,
0,726,524,571,504,227,
0,716,627,566,552,225,
0,816,707,560,545,224,
0,803,696,553,540,225,
0,790,687,548,534,240,
0,775,676,543,527,238,
0,764,668,581,521,235,
0,752,659,574,515,232,
0,742,649,568,510,231,
0,731,641,561,504,229,
0,720,632,555,499,227,
0,728,624,550,548,225,
0,829,615,543,542,224,
0,816,608,696,536,222,
0,803,600,756,529,220,
0,787,593,878,524,219,
0,775,585,863,518,216,
0,764,579,849,512,215,
0,752,572,836,507,213,
0,742,565,824,501,211,
0,731,557,812,496,210,
0,772,636,801,543,208,
0,780,627,790,536,207,
0,768,617,780,530,205,
0,756,609,769,524,204,
0,742,601,756,519,206,
0,731,594,747,512,203,
0,721,587,737,507,201,
0,711,579,728,502,199,
0,702,572,719,496,199,
0,692,563,711,494,198,
0,783,696,702,545,196,
0,771,685,694,539,195,
0,760,675,686,532,193,
0,748,665,678,527,192,
0,734,657,668,520,221,
0,723,647,661,515,219,
0,713,639,654,510,216,
0,704,632,647,504,215,
0,695,623,639,499,213,
0,685,647,633,544,211,
0,839,675,626,542,209,
0,824,665,620,536,207,
0,812,655,613,529,248,
0,799,647,607,524,245,
0,783,639,600,518,243,
0,771,630,592,512,240,
0,760,622,587,507,238,
0,749,614,582,501,236,
0,738,606,575,496,234,
0,728,633,570,553,231,
0,839,624,564,547,230,
0,825,615,559,540,228,
0,812,608,553,534,230,
0,799,600,548,527,230,
0,784,591,569,521,243,
0,772,584,563,516,240,
0,761,577,556,511,239,
0,750,571,550,505,236,
0,739,564,543,499,235,
0,752,557,539,555,231,
0,847,550,534,547,231,
0,833,543,559,542,260,
0,819,537,675,536,257,
0,807,531,665,529,255,
0,792,526,655,524,252,
0,780,519,647,518,249,
0,768,515,639,512,248,
0,756,510,632,507,246,
0,745,504,624,502,243,
0,807,639,616,551,241,
0,830,629,698,543,239,
0,816,620,688,537,255,
0,803,612,679,531,253,
0,792,604,670,526,251,
0,775,596,659,519,249,
0,764,589,689,515,246,
0,753,582,679,509,243,
0,743,574,671,504,242,
0,732,568,664,499,240,
0,777,686,655,548,238,
0,765,675,647,542,236,
0,753,667,639,536,240,
0,742,657,632,529,239,
0,731,648,624,524,260,
0,718,639,615,518,257,
0,708,632,608,512,255,
0,700,623,601,507,252,
0,690,615,595,502,251,
0,681,608,590,538,248,
0,768,675,583,539,246,
0,756,664,736,532,244,
0,745,655,726,526,304,
0,734,647,716,520,300,
0,723,638,706,515,298,
0,711,630,695,509,295,
0,700,622,686,504,292,
0,691,614,678,498,289,
0,682,606,669,493,287,
0,673,599,662,572,284,
0,791,590,653,562,282,
0,778,583,646,556,280,
0,766,575,638,549,292,
0,755,568,631,543,289,
0,743,562,624,537,287,
0,730,556,615,531,284,
0,719,550,608,525,281,
0,710,543,601,519,279,
0,700,536,595,514,276,
0,691,531,589,566,274,
0,683,524,583,556,271,
0,673,518,577,550,279,
0,665,512,571,543,280,
0,657,507,565,537,276,
0,649,502,560,531,274,
0,639,496,551,526,271,
0,632,492,547,519,269,
0,625,487,542,515,267,
0,619,482,536,509,264,
0,688,587,531,540,263,
0,744,575,526,532,260,
0,733,569,521,526,264,
0,722,561,516,519,262,
0,711,555,512,514,259,
0,702,547,508,508,257,
0,690,541,502,504,255,
0,680,535,497,498,253,
0,671,528,493,493,251,
0,664,522,489,487,249,
0,785,632,484,543,247,
0,771,620,480,535,245,
0,760,612,477,529,278,
0,748,604,472,523,275,
0,737,595,468,516,271,
0,724,588,464,511,270,
0,713,581,460,505,267,
0,704,574,455,500,263,
0,695,567,452,495,262,
0,686,560,449,527,260,
0,841,664,445,547,257,
0,826,651,441,539,255,
0,813,642,438,532,253,
0,799,633,435,526,251,
0,787,625,431,519,249,
0,772,616,428,515,248,
0,761,609,423,509,244,
0,750,601,420,504,243,
0,739,593,417,498,241,
0,729,639,415,539,239,
0,796,678,411,532,237,
0,783,665,607,525,236,
0,771,656,657,519,252,
0,759,647,648,513,249,
0,748,639,639,508,251,
0,734,631,632,502,248,
0,724,622,623,496,246,
0,714,615,615,492,243,
0,704,607,608,487,241,
0,696,651,602,544,240,
0,773,683,595,537,237,
0,760,670,588,529,236,
0,750,661,582,524,237,
0,739,652,575,518,235,
0,728,643,569,512,233,
0,715,635,563,507,231,
0,704,627,556,502,230,
0,696,619,551,496,227,
0,686,611,546,491,226,
0,743,604,758,543,224,
0,797,595,745,537,222,
0,783,587,736,530,279,
0,772,579,725,524,275,
0,760,572,716,518,272,
0,750,566,706,512,270,
0,736,560,697,507,268,
0,726,553,687,502,264,
0,716,547,678,496,263,
0,705,540,670,491,260,
0,824,535,662,547,257,
0,820,527,654,540,255,
0,807,521,647,532,291,
0,795,515,639,527,287,
0,783,511,632,520,293,
0,771,504,625,515,291,
0,756,499,618,510,287,
0,745,495,609,504,284,
0,735,489,604,499,281,
0,725,484,598,524,280,
0,867,638,591,541,276,
0,851,625,584,535,275,
0,837,616,579,527,283,
0,824,609,573,520,280,
0,811,600,568,515,277,
0,798,593,561,510,275,
0,783,585,556,504,272,
0,771,578,548,499,270,
0,760,571,543,493,268,
0,750,567,539,543,265,
0,820,628,533,536,263,
0,807,617,527,530,261,
0,795,609,600,523,265,
0,782,601,592,516,263,
0,770,593,585,511,262,
0,760,586,578,505,259,
0,745,579,572,499,257,
0,735,572,563,495,254,
0,724,565,558,489,252,
0,716,601,551,547,250,
0,825,616,600,540,248,
0,812,606,839,534,247,
0,799,598,894,526,244,
0,786,590,877,519,242,
0,775,583,863,514,240,
0,763,575,850,508,239,
0,749,568,834,503,237,
0,738,561,822,497,235,
0,728,555,811,492,232,
0,761,633,799,545,231,
0,807,624,788,539,229,
0,795,612,778,532,259,
0,782,604,768,524,257,
0,771,597,883,519,255,
0,760,590,908,513,252,
0,748,582,911,508,249,
0,735,575,903,503,248,
0,724,568,882,497,245,
0,715,561,869,492,243,
0,837,722,856,547,241,
0,854,710,843,540,239,
0,839,697,831,534,257,
0,825,687,819,526,255,
0,813,678,807,519,252,
0,799,668,797,515,250,
0,788,659,786,509,248,
0,774,651,773,504,246,
0,762,642,764,498,243,
0,752,633,754,520,241,
0,872,755,743,550,239,
0,856,742,735,543,237,
0,843,728,726,537,264,
0,828,718,717,529,262,
0,816,707,708,523,259,
0,803,697,700,518,257,
0,792,688,692,512,255,
0,775,679,682,507,252,
0,764,670,675,501,250,
0,755,697,821,542,248,
0,898,887,809,535,246,
0,899,870,797,528,243,
0,880,851,785,521,254,
0,865,838,775,515,252,
0,851,824,764,510,249,
0,838,812,754,504,248,
0,825,799,743,499,244,
0,809,787,732,494,243,
0,798,775,723,488,240,
0,787,785,713,551,238,
0,795,777,704,543,236,
0,783,766,696,538,235,
0,771,752,688,530,232,
0,760,742,679,524,243,
0,750,731,671,519,240,
0,739,721,664,513,238,
0,729,711,656,508,236,
0,716,702,647,502,234,
0,707,693,639,496,231,
0,760,820,633,555,230,
0,819,810,627,547,227,
0,807,797,620,542,275,
0,793,782,614,534,272,
0,782,770,608,527,275,
0,769,759,601,521,271,
0,759,748,595,516,270,
0,748,736,590,510,267,
0,734,726,582,505,265,
0,723,716,576,499,262,
0,759,728,571,550,259,
0,748,718,565,543,257,
0,737,707,560,537,255,
0,727,696,555,529,253,
0,716,686,550,524,255,
0,707,678,543,518,252,
0,697,668,539,512,251,
0,688,661,535,507,248,
0,679,653,660,502,246,
0,670,645,651,508,244,
0,811,637,643,540,242,
0,796,630,635,534,240,
0,783,622,627,527,238,
0,772,612,692,519,236,
0,760,606,683,514,235,
0,749,599,673,508,231,
0,739,591,665,503,231,
0,728,585,657,497,228,
0,716,579,647,492,227,
0,706,572,639,551,225,
0,790,652,632,543,223,
0,777,642,624,537,222,
0,765,633,617,531,249,
0,754,623,610,524,247,
0,743,615,760,518,244,
0,732,607,748,512,242,
0,721,599,736,507,240,
0,711,591,727,501,238,
0,700,583,715,496,236,
0,691,577,706,546,233,
0,799,579,696,539,231,
1,787,572,736,532,231,
1,775,565,726,526,236,
0,763,557,716,519,236,
0,752,551,707,513,233,
1,741,545,697,508,231,
1,731,539,780,502,230,
1,719,534,768,497,227,
1,707,527,755,492,225,
1,723,591,743,548,224,
1,788,582,734,542,222,
1,775,574,723,536,264,
1,764,567,715,529,261,
1,752,558,705,521,259,
1,742,551,696,515,255,
1,731,544,688,510,254,
1,721,537,679,504,252,
1,711,531,671,499,249,
0,699,526,662,494,248,
1,781,639,654,543,245,
1,787,628,647,536,243,
0,775,620,639,531,270,
0,764,611,632,524,267,
0,752,601,625,517,263,
0,742,593,619,511,262,
0,731,586,611,505,259,
0,719,579,604,500,257,
0,708,572,599,495,255,
0,699,564,591,496,252,
0,783,641,584,540,250,
0,771,632,579,534,248,
0,759,623,573,527,264,
0,748,615,567,521,262,
0,736,605,561,515,259,
0,726,597,556,509,257,
0,716,590,551,504,255,
0,705,582,545,497,253,
0,694,575,540,492,251,
0,685,568,534,542,248,
0,784,646,528,536,246,
0,772,636,524,530,243,
0,760,627,519,524,251,
0,748,620,514,519,248,
0,738,609,602,511,246,
0,727,601,594,505,244,
0,717,593,587,500,242,
0,707,586,579,495,240,
0,696,579,573,489,239,
0,686,572,566,536,236,
0,816,565,559,529,234,
0,803,559,577,524,232,
0,790,551,711,518,243,
0,777,543,700,512,263,
0,766,537,691,505,287,
0,755,531,682,499,284,
0,743,526,673,494,283,
0,733,519,665,489,280,
0,719,514,657,483,277,
0,718,593,647,536,274,
0,797,610,639,529,271,
0,784,601,632,524,271,
0,772,593,624,518,269,
0,761,587,785,512,267,
0,750,576,831,505,264,
0,739,569,818,499,263,
0,728,563,806,494,260,
0,718,556,795,489,259,
0,705,549,783,484,255,
0,738,659,770,527,254,
0,729,649,760,521,252,
0,719,639,750,515,280,
0,708,632,740,509,277,
0,699,621,731,504,275,
0,689,612,721,497,271,
0,680,604,711,492,270,
0,671,597,704,487,267,
0,664,590,695,481,264,
0,653,583,687,478,263,
0,755,711,676,529,259,
0,743,699,668,524,257,
0,732,689,662,518,276,
0,721,679,654,511,274,
0,711,668,646,505,271,
0,700,658,639,499,269,
0,691,649,632,494,267,
0,681,641,625,488,263,
0,673,633,619,483,262,
0,662,625,612,524,260,
0,761,723,604,515,257,
0,749,711,597,510,255,
0,737,702,591,504,253,
0,727,691,587,499,251,
0,716,679,581,494,248,
0,707,670,575,487,247,
0,696,662,569,481,244,
0,687,652,563,476,243,
0,678,643,558,472,241,
0,668,636,551,526,239,
0,775,657,546,519,236,
0,763,647,541,513,235,
0,752,639,536,508,232,
0,740,631,531,502,236,
0,730,620,526,496,268,
0,719,613,693,490,265,
0,710,605,697,484,263,
0,700,598,688,480,260,
0,689,591,679,475,258,
0,714,707,668,521,255,
0,829,807,659,515,253,
0,816,795,652,508,251,
0,803,782,644,504,248,
0,790,770,636,497,258,
0,778,756,628,492,255,
0,768,745,622,486,253,
0,755,735,615,480,251,
0,744,724,608,475,248,
0,734,713,600,471,247,
0,792,825,593,524,244,
0,824,811,586,519,241,
0,810,798,580,513,257,
0,798,785,574,507,255,
0,785,774,568,502,259,
0,774,760,562,496,255,
0,762,748,556,489,254,
0,751,737,551,484,252,
0,740,728,544,479,249,
0,729,718,540,474,248,
0,775,766,532,525,245,
0,763,753,527,519,243,
0,752,743,523,513,291,
0,740,732,518,507,287,
0,729,721,513,502,285,
0,719,708,508,496,282,
0,710,699,504,489,280,
0,700,690,499,484,277,
0,691,680,495,480,275,
0,681,689,491,519,273,
0,836,856,486,525,270,
0,821,841,481,519,268,
0,807,828,477,513,270,
0,796,814,473,508,267,
0,783,801,470,502,264,
0,771,787,465,496,263,
0,760,775,569,489,260,
0,748,764,563,484,259,
0,739,752,556,480,255,
0,728,742,550,524,255,
0,776,732,542,518,252,
0,764,721,536,511,249,
0,753,711,530,505,249,
0,742,702,524,500,248,
0,731,692,519,495,245,
0,720,681,513,487,243,
0,711,673,508,483,241,
0,701,664,503,478,239,
0,692,655,497,473,238,
0,684,732,494,519,236,
0,771,760,487,512,233,
0,759,748,483,507,273,
0,747,737,478,502,279,
0,736,727,473,496,276,
0,726,716,575,491,273,
0,716,704,568,483,271,
0,705,694,561,479,269,
0,696,684,555,473,267,
0,687,675,549,469,263,
0,679,667,543,527,263,
0,760,657,536,521,259,
0,748,649,529,516,282,
0,737,641,524,510,280,
0,727,633,696,504,276,
0,716,625,775,499,274,
0,705,616,764,492,271,
0,696,609,752,487,270,
0,687,602,743,481,267,
0,678,595,732,477,265,
0,728,673,723,527,263,
0,783,664,711,521,259,
0,771,654,702,515,275,
0,760,644,694,510,271,
0,748,636,685,504,270,
0,737,627,676,499,267,
0,728,617,668,492,264,
0,717,609,660,487,263,
0,707,601,653,482,260,
0,697,595,646,517,259,
0,771,633,639,534,255,
0,755,624,850,527,254,
0,743,615,835,521,252,
0,733,608,823,515,251,
0,723,600,811,510,251,
0,711,591,799,504,248,
0,702,583,788,497,247,
0,693,577,777,492,244,
0,684,571,768,487,243,
0,675,612,758,535,241,
0,845,724,747,527,239,
0,826,713,735,520,236,
0,813,704,726,515,236,
0,800,693,716,509,234,
0,788,684,707,504,231,
0,775,674,699,498,231,
0,764,663,691,492,229,
0,753,654,683,487,227,
0,743,646,674,481,225,
0,732,638,667,536,224,
0,760,628,659,529,222,
0,745,621,649,523,220,
0,735,613,642,518,219,
0,724,606,636,512,255,
0,715,598,628,506,266,
0,705,591,622,500,263,
0,696,583,615,494,262,
0,687,575,608,488,259,
0,678,569,602,483,257,
0,670,736,596,536,255,
0,792,741,590,529,252,
0,775,729,583,523,249,
0,764,719,576,517,248,
0,752,708,571,511,246,
0,741,698,565,505,243,
0,731,689,560,500,241,
0,720,677,554,494,239,
0,711,668,549,488,237,
0,700,659,543,483,236,
0,743,714,539,534,233,
0,829,703,533,527,231,
0,816,692,527,521,246,
0,803,683,522,515,243,
0,791,673,518,510,241,
0,779,664,512,504,239,
0,768,655,508,499,237,
0,755,644,504,492,235,
0,745,636,499,487,233,
0,735,628,495,508,231,
0,815,623,490,532,229,
0,817,615,486,526,227,
0,804,607,481,520,247,
0,792,600,476,515,244,
0,780,592,472,508,248,
0,768,585,468,504,245,
0,756,579,464,498,243,
0,745,570,460,492,240,
0,735,563,456,486,239,
0,724,558,454,543,237,
0,807,551,449,536,235,
0,790,545,446,530,232,
0,777,540,441,524,230,
0,766,534,438,518,228,
0,755,527,434,512,235,
0,743,523,431,507,233,
0,732,517,428,502,231,
0,723,511,423,495,229,
0,712,505,420,489,227,
0,703,540,419,540,225,
0,786,556,415,533,224,
0,771,548,572,527,222,
0,760,542,596,520,251,
0,748,535,589,515,248,
0,736,528,582,510,246,
0,726,522,575,504,243,
0,716,515,568,499,241,
0,705,508,563,492,240,
0,696,503,556,487,238,
0,688,608,551,547,236,
0,839,598,543,540,233,
0,820,589,538,535,232,
0,807,582,531,527,231,
0,795,574,526,523,252,
0,783,567,520,516,249,
0,771,560,515,511,248,
0,760,551,510,505,246,
0,749,545,504,499,243,
0,739,539,499,494,241,
0,769,638,496,531,239,
0,860,628,564,526,237,
0,841,620,558,519,280,
0,828,611,550,514,276,
0,815,603,543,508,274,
0,802,595,537,503,271,
0,790,588,531,497,269,
0,779,579,526,492,267,
0,768,572,519,486,263,
0,755,564,515,507,263,
0,843,659,510,533,259,
0,867,649,504,527,258,
0,849,639,499,520,255,
0,835,632,492,515,254,
0,822,623,487,509,252,
0,809,615,483,504,249,
0,797,607,479,498,248,
0,785,597,475,492,246,
0,774,590,470,487,243,
0,762,583,465,545,242,
0,873,697,462,537,240,
0,857,687,457,531,238,
0,839,676,453,525,253,
0,825,668,448,519,250,
0,813,658,444,513,248,
0,800,649,440,508,246,
0,788,641,436,503,243,
0,776,631,432,497,241,
0,765,623,429,491,240,
0,755,615,425,545,238,
0,802,612,422,539,236,
0,788,604,419,532,233,
0,774,598,414,526,235,
0,761,590,411,520,235,
0,751,583,408,515,232,
0,739,575,404,509,231,
0,729,568,401,504,229,
0,719,561,399,498,227,
0,710,555,396,492,225,
0,702,683,393,544,224,
0,814,696,390,537,222,
0,800,686,387,531,220,
0,785,677,612,526,231,
0,773,668,603,519,228,
0,761,658,595,513,227,
0,750,649,588,508,225,
0,739,641,582,503,224,
0,729,630,575,497,221,
0,719,622,568,491,220,
0,737,668,562,547,217,
0,774,658,649,540,216,
0,760,648,654,534,267,
0,747,639,643,527,263,
0,736,632,636,522,260,
0,726,623,627,516,259,
0,715,615,620,511,255,
0,705,607,612,505,254,
0,696,598,606,499,252,
0,688,591,599,510,249,
0,777,748,591,550,248,
0,812,735,585,543,246,
0,799,723,579,536,243,
0,783,713,764,531,241,
0,772,703,752,524,239,
0,760,693,742,519,236,
0,749,684,732,513,235,
0,739,675,721,508,233,
0,728,664,711,500,231,
0,718,655,704,547,230,
0,860,700,695,540,227,
0,867,689,686,534,225,
0,852,679,689,527,224,
0,835,670,678,521,222,
0,822,660,670,516,237,
0,809,652,662,511,235,
0,796,643,654,504,233,
0,785,636,646,499,231,
0,773,625,639,493,229,
0,762,657,632,548,227,
0,857,696,625,542,225,
0,843,686,617,536,224,
0,829,676,611,529,227,
0,812,667,603,523,225,
0,799,657,596,518,223,
0,787,649,590,512,220,
0,775,639,584,506,219,
0,765,632,578,501,217,
0,754,622,572,494,216,
0,743,708,568,537,214,
0,824,696,561,531,212,
0,810,686,556,525,211,
0,798,676,550,519,211,
0,782,667,543,513,210,
0,770,657,537,508,208,
0,760,648,532,502,207,
0,748,639,527,496,206,
0,737,632,523,492,204,
0,728,622,518,485,202,
0,734,681,513,543,201,
0,826,671,508,537,199,
0,812,662,504,531,234,
0,799,652,499,526,231,
0,783,643,493,519,228,
0,772,635,489,513,227,
0,761,627,484,508,224,
0,750,619,480,503,223,
0,739,611,476,497,221,
0,729,601,472,499,219,
0,799,716,467,543,217,
0,831,705,463,537,216,
0,817,696,460,531,244,
0,805,686,455,526,242,
0,790,676,451,519,239,
0,777,667,448,514,237,
0,766,658,444,508,235,
0,755,649,440,504,232,
0,743,639,436,497,231,
0,734,631,433,546,230,
0,857,735,430,539,227,
0,862,723,426,532,225,
0,847,713,543,526,255,
0,833,703,536,519,254,
0,817,694,529,514,251,
0,804,684,523,508,248,
0,792,674,518,504,247,
0,780,665,512,498,244,
0,769,655,507,492,242,
0,758,696,502,544,240,
0,862,764,496,537,238,
0,847,752,491,531,236,
0,834,741,486,525,242,
0,820,730,481,519,240,
0,804,719,649,513,237,
0,792,710,641,508,236,
0,780,700,632,503,233,
0,768,690,625,497,231,
0,758,680,617,492,230,
0,747,671,611,537,227,
0,851,675,603,531,225,
0,837,665,595,524,227,
0,824,657,589,519,239,
0,811,648,583,513,236,
0,795,639,575,507,234,
0,783,632,568,502,231,
0,771,624,563,496,230,
0,760,616,557,491,228,
0,749,609,551,486,226,
0,740,711,545,524,224,
0,818,700,540,518,222,
0,805,690,535,512,221,
0,793,680,529,506,219,
0,777,671,524,500,255,
0,766,662,518,496,252,
0,755,653,512,489,249,
0,743,644,508,484,247,
0,733,636,503,480,244,
0,723,627,498,475,243,
0,713,655,493,532,240,
0,707,645,608,526,239,
0,697,636,670,519,320,
0,688,627,660,514,316,
0,678,619,652,508,313,
0,669,611,641,503,310,
0,660,604,633,497,307,
0,653,596,627,492,304,
0,645,589,619,487,301,
0,638,583,611,482,299,
0,787,664,605,523,295,
0,820,654,598,517,294,
0,807,645,591,511,291,
0,794,636,584,505,288,
0,779,627,579,500,286,
0,768,619,571,495,284,
0,756,611,565,489,281,
0,745,604,559,484,279,
0,735,596,553,480,276,
0,724,589,548,512,274,
0,867,685,542,521,271,
0,851,675,536,515,270,
0,837,665,705,510,268,
0,824,655,695,504,265,
0,807,647,685,499,263,
0,795,639,674,493,260,
0,783,631,665,487,259,
0,771,622,657,483,257,
0,760,614,649,478,255,
0,749,607,642,540,252,
0,880,646,634,531,251,
0,864,636,627,525,248,
0,851,627,620,519,251,
0,837,619,612,513,248,
0,820,611,606,507,258,
0,807,604,597,502,255,
0,796,595,591,496,253,
0,783,588,584,491,251,
0,772,582,578,486,248,
0,761,630,572,521,247,
0,838,620,567,513,244,
0,824,612,560,508,243,
0,812,604,600,502,240,
0,799,596,756,496,241,
0,783,588,744,491,239,
0,771,581,732,486,236,
0,760,574,721,480,235,
0,749,568,711,476,232,
0,739,561,704,471,231,
0,808,635,695,519,230,
0,860,625,686,511,227,
0,846,615,678,505,254,
0,831,608,669,499,251,
0,819,600,737,494,249,
0,803,592,728,488,247,
0,791,585,715,483,244,
0,779,577,705,478,242,
0,768,571,696,473,240,
0,756,563,688,468,238,
0,870,639,679,523,236,
0,856,632,671,515,234,
0,841,623,663,509,248,
0,827,615,655,504,247,
0,815,607,647,498,246,
0,799,599,639,492,243,
0,787,591,632,487,240,
0,775,583,624,483,239,
0,764,575,617,478,236,
0,752,569,611,504,235,
0,856,619,604,513,232,
0,841,611,598,506,231,
0,828,603,591,500,228,
0,814,595,584,495,227,
0,801,587,579,489,225,
0,786,579,572,484,224,
0,775,572,566,480,222,
0,763,566,560,474,220,
0,752,559,554,470,218,
0,742,551,550,525,216,
0,852,660,543,518,215,
0,838,651,538,510,214,
0,824,643,532,504,240,
0,812,633,527,499,238,
0,799,625,523,493,236,
0,783,617,516,487,233,
0,771,609,512,483,231,
0,760,601,507,478,230,
0,750,593,502,472,227,
0,740,636,498,534,225,
0,819,623,494,527,224,
0,806,615,489,519,227,
0,793,607,484,514,225,
0,780,599,480,508,244,
0,769,591,476,503,241,
0,755,583,472,497,240,
0,743,575,467,492,237,
0,733,569,463,487,235,
0,723,563,459,481,233,
0,770,708,455,540,231,
0,836,696,451,532,229,
0,823,687,448,525,249,
0,809,677,444,519,248,
0,797,668,440,513,245,
0,784,659,436,508,243,
0,770,649,486,502,240,
0,759,641,480,496,238,
0,748,632,475,492,236,
0,737,624,470,487,234,
0,831,616,465,536,231,
0,817,607,460,529,230,
0,804,600,455,523,228,
0,792,591,451,517,226,
0,780,585,447,511,263,
0,768,577,441,505,260,
0,754,572,436,500,257,
0,743,564,433,495,255,
0,732,558,429,489,252,
0,723,551,426,508,251,
0,814,670,422,532,248,
0,799,657,419,524,246,
0,787,647,415,519,243,
0,775,639,412,513,241,
0,764,631,409,507,241,
0,752,622,406,502,240,
0,739,615,402,496,238,
0,728,606,399,491,236,
0,718,599,396,486,233,
0,708,591,393,532,231,
0,840,707,434,526,230,
0,825,694,429,518,227,
0,812,684,424,512,226,
0,799,674,420,506,224,
0,787,664,415,500,235,
0,775,655,412,495,231,
0,761,647,412,489,230,
0,751,639,408,484,228,
0,739,631,404,480,226,
0,730,660,400,539,224,
0,811,657,397,532,223,
0,798,646,393,524,259,
0,786,637,390,519,280,
0,774,629,387,513,276,
0,762,620,384,507,274,
0,751,613,381,502,271,
0,737,605,377,496,268,
0,728,598,376,491,266,
0,717,590,371,486,263,
0,741,679,369,540,262,
0,797,668,367,532,259,
0,784,655,364,525,257,
0,773,647,373,519,255,
0,760,639,369,513,273,
0,750,630,366,508,271,
0,739,622,363,502,268,
0,726,614,359,496,265,
0,716,606,357,492,263,
0,706,599,355,487,262,
0,811,797,352,545,258,
0,811,782,350,538,255,
0,798,767,348,531,274,
0,785,755,345,524,271,
0,774,743,343,519,269,
0,762,733,340,513,267,
0,751,723,346,508,263,
0,737,712,342,502,262,
0,728,703,339,496,259,
0,717,694,336,511,257,
0,827,743,334,541,255,
0,812,732,332,535,252,
0,799,719,329,527,287,
0,787,708,327,521,284,
0,775,698,325,515,281,
0,763,688,323,510,280,
0,752,679,321,504,277,
0,739,670,318,499,273,
0,728,662,316,494,271,
0,719,654,314,540,269,
0,856,736,312,534,267,
0,840,726,310,527,264,
0,827,712,307,519,263,
0,814,702,306,514,260,
0,801,692,304,508,258,
0,789,683,302,503,255,
0,777,673,300,497,254,
0,763,664,297,492,251,
0,752,655,295,487,249,
0,742,760,294,539,247,
0,872,846,291,531,245,
0,857,831,328,526,252,
0,844,814,324,518,249,
0,830,801,321,512,248,
0,817,790,319,507,245,
0,804,777,316,501,243,
0,789,766,312,496,241,
0,777,755,310,491,239,
0,766,743,307,486,237,
0,755,734,304,543,235,
0,753,723,302,536,233,
0,742,713,300,529,231,
0,732,702,296,523,230,
0,721,693,295,516,227,
0,711,684,292,511,226,
0,703,675,290,505,224,
0,691,666,287,499,222,
0,683,658,286,495,220,
0,673,649,284,489,219,
0,779,727,282,549,217,
0,772,715,280,543,216,
0,760,704,279,536,214,
0,749,691,276,528,212,
0,737,682,275,523,227,
0,728,671,273,518,224,
0,717,664,271,511,223,
0,704,655,270,506,220,
0,696,646,268,500,218,
0,686,638,267,512,216,
0,851,632,264,559,215,
0,842,625,334,551,212,
0,828,617,365,545,248,
0,815,608,359,537,245,
0,801,601,357,531,243,
0,790,594,353,526,240,
0,777,588,350,519,239,
0,763,580,347,514,236,
0,752,574,344,508,234,
0,742,568,340,545,231,
0,812,654,337,539,230,
0,799,645,334,532,228,
0,787,636,332,526,235,
0,774,625,327,519,231,
0,763,617,326,513,240,
0,752,609,344,507,238,
0,740,601,340,502,236,
0,728,593,337,496,233,
0,718,587,333,492,231,
0,709,644,331,545,230,
0,807,732,327,537,227,
0,793,720,324,531,231,
0,782,707,473,526,243,
0,769,697,547,518,240,
0,758,688,540,512,238,
0,747,678,534,507,236,
0,736,669,527,501,233,
0,723,660,521,496,231,
0,713,652,515,491,230,
0,743,675,510,543,227,
0,827,673,504,537,225,
0,813,664,499,531,263,
0,800,652,494,525,260,
0,788,643,489,518,258,
0,775,635,484,512,255,
0,764,627,480,507,254,
0,753,619,475,501,251,
0,739,611,471,496,249,
0,729,604,465,491,247,
0,752,636,460,547,244,
0,755,626,455,540,242,
0,743,617,451,535,245,
0,734,608,448,528,243,
0,723,600,444,521,240,
0,712,591,440,515,239,
0,704,585,435,510,237,
0,694,578,432,504,235,
0,683,572,428,499,233,
0,674,565,423,497,231,
0,791,679,419,533,228,
0,777,668,416,527,227,
0,765,659,413,520,227,
0,754,647,417,515,224,
0,743,639,414,508,252,
0,732,630,409,503,249,
0,721,622,407,497,248,
0,711,614,403,492,246,
0,699,606,399,487,243,
0,690,599,396,540,240,
0,749,696,470,535,239,
0,737,686,558,527,236,
0,727,675,551,522,234,
0,716,664,543,516,231,
0,706,655,539,509,231,
0,696,647,532,504,228,
0,687,638,527,498,227,
0,678,630,521,493,225,
0,667,621,514,487,223,
0,659,625,509,545,221,
0,766,638,504,538,219,
0,753,630,499,531,231,
0,743,621,688,526,243,
0,732,610,737,519,240,
0,721,603,726,513,239,
0,711,595,716,507,236,
0,701,588,707,502,234,
0,691,581,697,496,231,
0,679,574,687,491,231,
0,719,721,679,543,227,
0,824,825,670,536,225,
0,809,812,662,531,247,
0,797,799,654,524,244,
0,784,783,647,519,243,
0,772,771,655,511,241,
0,761,760,646,505,239,
0,750,749,639,500,237,
0,739,738,632,496,235,
0,727,728,623,489,233,
0,748,760,615,537,231,
0,739,748,609,531,228,
0,728,736,603,524,227,
0,717,726,596,519,225,
0,707,712,590,512,224,
0,697,703,583,506,223,
0,689,694,577,500,220,
0,679,684,572,495,219,
0,671,675,566,489,217,
0,660,667,559,486,216,
0,781,755,553,524,214,
0,768,743,547,517,211,
0,756,732,543,511,222,
0,744,721,537,505,220,
0,734,709,575,499,240,
0,723,699,588,493,239,
0,712,689,581,487,236,
0,704,679,575,483,234,
0,694,671,568,478,231,
0,682,662,560,528,231,
0,807,699,553,528,227,
0,793,688,547,522,226,
0,782,679,542,516,259,
0,769,669,536,511,255,
0,758,658,531,504,254,
0,748,649,526,498,252,
0,736,641,520,493,249,
0,726,633,515,487,248,
0,716,625,511,483,246,
0,704,619,505,537,243,
0,855,628,500,530,241,
0,839,620,496,524,240,
0,827,612,524,518,263,
0,812,604,518,512,262,
0,799,595,512,505,259,
0,788,589,506,499,255,
0,776,582,500,495,255,
0,765,575,496,489,252,
0,754,569,491,483,249,
0,742,621,486,531,248,
0,783,617,481,524,246,
0,771,608,477,518,257,
0,760,600,472,512,255,
0,748,592,468,507,252,
0,737,583,464,499,249,
0,727,575,460,494,248,
0,717,568,456,489,246,
0,707,562,452,483,243,
0,698,556,448,479,241,
0,770,687,444,529,239,
0,834,675,440,523,237,
0,821,665,510,517,252,
0,808,655,683,511,249,
0,796,647,672,505,275,
0,783,636,664,498,272,
0,771,627,655,493,270,
0,760,620,647,487,268,
0,749,611,639,482,264,
0,738,604,632,478,263,
0,862,700,622,531,259,
0,865,688,615,524,257,
0,851,679,608,519,280,
0,837,669,601,512,276,
0,824,660,595,507,273,
0,811,648,588,500,271,
0,798,639,582,495,269,
0,786,632,575,489,267,
0,775,624,569,484,263,
0,764,615,563,523,263,
0,842,746,556,526,259,
0,828,734,551,519,257,
0,815,723,545,514,255,
0,801,712,540,508,253,
0,790,703,534,503,251,
0,777,691,529,496,248,
0,766,681,524,491,247,
0,755,671,519,486,244,
0,744,664,513,480,243,
0,734,655,510,532,240,
0,723,711,503,526,238,
0,713,701,499,519,243,
0,704,691,494,514,278,
0,696,681,557,508,275,
0,686,671,550,503,272,
0,678,660,543,496,270,
0,668,652,537,491,268,
0,660,643,531,486,265,
0,653,635,526,480,263,
0,685,777,521,533,261,
0,821,838,513,526,258,
0,807,824,508,520,304,
0,796,811,619,515,301,
0,783,798,611,508,299,
0,771,785,603,504,295,
0,760,771,595,496,292,
0,748,760,589,491,290,
0,737,749,582,486,287,
0,728,738,575,481,286,
0,780,728,569,534,283,
0,817,718,561,527,280,
0,805,708,556,520,278,
0,792,699,550,515,275,
0,780,689,543,509,273,
0,768,680,537,504,271,
0,757,670,532,496,268,
0,746,661,527,492,266,
0,736,652,521,487,263,
0,725,644,516,481,262,
0,783,698,511,537,259,
0,771,688,504,531,257,
0,760,678,500,524,262,
0,748,668,508,519,259,
0,737,659,703,513,257,
0,726,651,691,507,255,
0,716,639,683,500,253,
0,706,632,673,495,251,
0,696,624,665,489,249,
0,688,616,657,523,248,
0,817,609,649,540,245,
0,803,602,639,533,243,
0,791,595,632,527,252,
0,778,588,625,521,249,
0,767,582,617,515,263,
0,755,575,611,510,260,
0,743,567,604,503,258,
0,734,560,598,497,255,
0,723,554,591,492,254,
0,713,548,585,547,252,
0,825,542,579,539,249,
0,811,536,571,532,247,
0,799,531,565,527,245,
0,787,526,680,520,243,
0,774,519,671,515,241,
0,763,513,663,509,239,
0,752,508,654,503,237,
0,740,503,646,497,236,
0,731,497,639,492,233,
0,720,548,632,534,231,
0,783,550,624,527,230,
0,770,543,632,521,228,
0,759,536,850,515,227,
0,748,529,835,509,247,
0,736,523,822,504,243,
0,726,515,809,498,241,
0,716,509,798,492,240,
0,706,504,787,486,238,
0,696,497,775,481,236,
0,688,583,767,531,233,
0,746,575,755,524,231,
0,736,568,875,519,275,
0,724,560,906,513,271,
0,713,553,908,507,269,
0,704,546,889,502,267,
0,694,539,874,496,263,
0,685,532,861,489,262,
0,676,526,847,484,259,
0,668,519,835,480,257,
0,691,638,824,527,255,
0,743,628,812,520,253,
0,732,620,799,515,278,
0,721,611,787,509,275,
0,711,603,777,504,272,
0,701,595,768,498,270,
0,691,585,757,492,268,
0,682,579,748,486,265,
0,673,572,760,481,263,
0,664,564,880,511,261,
0,779,644,865,527,259,
0,829,635,847,521,255,
0,816,627,835,515,255,
0,802,618,823,510,252,
0,790,610,811,504,250,
0,778,602,799,499,248,
0,767,592,788,493,246,
0,755,585,778,487,244,
0,744,578,768,481,242,
0,734,571,758,536,240,
0,825,623,748,529,238,
0,807,614,736,523,236,
0,795,606,727,517,233,
0,783,598,718,511,231,
0,771,590,709,505,275,
0,760,583,701,500,272,
0,748,574,693,495,270,
0,738,567,685,488,268,
0,728,560,677,483,265,
0,718,651,670,534,263,
0,843,692,662,527,260,
0,825,683,652,521,258,
0,812,673,646,515,255,
0,799,664,639,510,254,
0,787,655,632,504,252,
0,775,646,625,499,249,
0,764,636,619,494,248,
0,753,627,612,487,245,
0,743,620,606,481,243,
0,732,682,600,531,241,
0,812,671,593,524,239,
0,796,662,586,519,238,
0,783,652,580,512,235,
0,771,643,575,507,233,
0,760,635,569,501,231,
0,749,627,563,496,230,
0,739,616,558,489,227,
0,728,608,552,484,226,
0,718,601,547,480,224,
0,760,697,566,532,223,
0,869,686,673,526,221,
0,851,676,663,519,219,
0,836,667,654,514,217,
0,824,657,646,508,233,
0,811,648,638,503,231,
0,798,639,630,497,229,
0,786,630,623,491,227,
0,775,622,615,486,225,
0,763,614,608,505,224,
0,836,700,601,526,222,
0,822,689,594,519,220,
0,806,679,586,513,253,
0,793,670,579,508,249,
0,781,660,574,503,248,
0,769,652,568,496,245,
0,758,643,561,492,243,
0,747,632,556,485,241,
0,736,624,550,480,239,
0,726,671,545,536,237,
0,830,762,539,527,235,
0,816,750,534,521,233,
0,799,739,527,515,231,
0,787,728,523,510,228,
0,775,718,518,504,231,
0,764,707,513,499,230,
0,753,697,508,493,227,
0,743,686,504,487,225,
0,732,676,499,481,224,
0,721,668,496,534,222,
0,751,659,492,527,220,
0,739,651,487,520,219,
0,724,642,482,515,232,
0,715,634,478,509,231,
0,705,626,473,504,228,
0,696,619,470,498,226,
0,687,611,465,492,224,
0,679,601,462,486,223,
0,670,595,457,481,221,
0,662,723,455,539,219,
0,786,721,451,531,217,
0,773,711,447,526,220,
0,759,700,442,519,239,
0,748,691,439,514,236,
0,736,681,435,508,235,
0,726,671,476,503,231,
0,716,663,470,497,231,
0,706,652,465,491,228,
0,696,643,460,486,227,
0,718,820,455,543,224,
0,799,805,451,536,223,
0,787,792,446,530,252,
0,771,780,440,524,248,
0,760,768,436,519,246,
0,749,757,433,513,243,
0,738,745,429,507,241,
0,728,736,425,502,239,
0,718,723,423,495,237,
0,707,712,419,512,236,
0,785,804,415,532,233,
0,822,792,413,526,231,
0,807,779,409,519,230,
0,792,768,406,513,227,
0,780,755,403,508,225,
0,768,744,399,503,224,
0,758,734,396,497,222,
0,746,723,393,492,220,
0,736,711,391,486,218,
0,726,702,387,543,216,
0,797,692,385,536,215,
0,783,683,383,528,213,
0,772,674,380,523,267,
0,758,665,604,517,263,
0,745,657,664,511,260,
0,736,648,655,505,258,
0,724,639,647,499,255,
0,715,632,639,495,254,
0,705,623,632,487,252,
0,696,646,624,557,249,
0,839,694,616,550,248,
0,824,684,609,543,246,
0,808,675,602,537,243,
0,796,665,593,531,241,
0,783,655,587,526,240,
0,771,647,580,519,238,
0,760,639,575,514,236,
0,750,631,568,508,233,
0,739,620,563,502,231,
0,729,614,557,550,230,
0,824,606,551,543,227,
0,811,600,545,536,235,
0,795,591,540,531,242,
0,783,585,533,524,240,
0,771,579,527,519,238,
0,760,572,523,513,236,
0,748,566,518,508,233,
0,737,560,512,502,231,
0,728,551,508,496,230,
0,743,741,503,545,227,
0,799,728,498,539,225,
0,787,717,494,533,252,
0,772,707,488,527,248,
0,760,696,483,521,248,
0,750,687,479,515,246,
0,739,678,475,510,243,
0,728,668,471,504,241,
0,718,659,466,499,240,
0,708,648,462,508,238,
0,792,744,458,548,236,
0,825,733,454,542,233,
0,812,723,450,536,263,
0,796,711,446,529,259,
0,783,702,550,524,257,
0,772,691,551,518,255,
0,760,682,545,512,252,
0,750,673,539,507,250,
0,739,664,533,502,248,
0,728,653,527,566,246,
0,752,672,521,559,243,
0,740,663,516,552,241,
0,729,654,627,546,248,
0,716,645,671,540,246,
0,707,637,659,534,243,
0,697,629,651,527,241,
0,688,621,643,521,240,
0,679,614,635,516,237,
0,671,604,627,511,235,
0,663,679,621,563,233,
0,748,769,612,556,231,
0,736,757,606,550,230,
0,726,745,600,543,254,
0,712,734,591,537,251,
0,703,724,583,531,248,
0,693,713,577,525,246,
0,684,704,572,519,243,
0,675,694,566,514,241,
0,665,681,560,508,240,
0,657,780,555,551,238,
0,723,805,548,545,236,
0,711,792,543,539,233,
0,702,780,537,532,231,
0,689,768,531,527,246,
0,679,757,525,520,270,
0,671,745,519,515,268,
0,663,735,515,510,265,
0,654,724,510,504,263,
0,646,711,505,499,260,
0,668,830,557,556,258,
0,768,815,617,548,255,
0,756,801,611,543,267,
0,745,788,603,536,263,
0,732,776,595,530,262,
0,721,766,587,524,259,
0,711,754,580,519,255,
0,701,743,574,513,254,
0,691,732,568,508,252,
0,683,719,561,502,250,
0,771,829,556,553,248,
0,804,815,606,547,246,
0,792,802,599,541,265,
0,779,790,591,535,263,
0,764,777,583,529,260,
0,753,766,575,523,257,
0,742,755,569,518,255,
0,732,743,563,511,253,
0,721,733,556,506,251,
0,711,721,551,501,249,
0,807,756,545,540,247,
0,793,744,539,534,244,
0,780,733,534,527,251,
0,768,723,527,522,248,
0,755,712,521,516,246,
0,743,703,516,511,243,
0,732,694,511,505,241,
0,723,684,506,499,239,
0,712,675,501,495,237,
0,704,760,497,536,236,
0,760,826,492,539,233,
0,748,812,487,532,231,
0,736,799,646,527,230,
0,726,787,641,520,227,
0,712,775,632,515,226,
0,703,764,624,510,224,
0,694,753,615,504,222,
0,684,742,608,498,220,
0,675,732,601,493,219,
0,667,719,595,547,217,
0,803,708,588,537,216,
0,789,700,698,531,214,
0,776,690,688,525,216,
0,765,681,679,519,215,
0,751,671,668,513,213,
0,739,664,659,508,211,
0,729,655,652,502,209,
0,719,647,643,497,207,
0,710,639,636,492,207,
0,723,762,628,536,205,
0,838,748,621,529,203,
0,824,737,615,523,211,
0,811,726,608,516,209,
0,798,716,600,511,207,
0,783,705,591,505,205,
0,771,696,585,499,203,
0,760,686,579,495,201,
0,748,677,574,489,199,
0,738,668,568,484,199,
0,793,783,561,526,198,
0,833,769,556,519,195,
0,819,758,551,514,220,
0,807,746,544,508,218,
0,795,736,539,502,216,
0,779,724,532,497,215,
0,768,715,527,492,211,
0,756,704,522,487,210,
0,745,695,517,481,208,
0,735,686,512,476,207,
0,796,707,508,529,205,
0,783,696,503,524,204,
0,771,687,600,518,263,
0,760,677,695,512,261,
0,748,668,685,505,259,
0,735,659,674,500,255,
0,724,652,665,495,254,
0,715,643,657,489,251,
0,705,635,649,484,249,
0,696,627,641,523,247,
0,785,624,633,534,244,
0,772,616,626,527,243,
0,760,609,619,522,240,
0,749,602,612,516,239,
0,739,595,606,511,236,
0,725,588,597,505,235,
0,715,582,688,499,231,
0,705,575,678,494,231,
0,696,568,670,489,228,
0,687,606,662,539,227,
0,824,728,652,529,225,
0,811,716,644,524,224,
0,798,705,637,518,231,
0,785,696,630,512,231,
0,774,686,622,506,228,
0,760,676,613,500,226,
0,748,668,606,495,224,
0,738,659,600,489,222,
0,728,649,593,484,220,
0,721,734,587,542,219,
0,812,758,580,534,217,
0,799,746,729,527,237,
0,787,735,719,521,235,
0,774,724,708,515,232,
0,763,714,700,510,231,
0,749,704,688,504,228,
0,738,695,679,499,226,
0,728,684,671,494,224,
0,718,675,664,488,223,
0,718,822,655,528,220,
0,727,807,647,521,219,
0,716,795,639,515,216,
0,706,783,632,510,216,
0,696,771,625,504,214,
0,688,760,619,498,212,
0,676,748,609,493,209,
0,668,738,603,487,207,
0,659,728,596,483,207,
0,652,717,591,478,206,
0,740,785,583,531,204,
0,728,769,577,523,201,
0,717,758,612,518,220,
0,707,746,782,511,217,
0,696,735,769,505,216,
0,688,724,759,500,214,
0,675,714,745,495,211,
0,667,704,736,489,210,
0,658,695,726,484,207,
0,649,686,717,515,207,
0,707,677,707,529,205,
0,696,665,699,522,203,
0,686,657,690,516,224,
0,676,649,681,511,222,
0,667,641,673,504,220,
0,655,633,665,499,219,
0,647,625,655,494,216,
0,639,618,647,488,214,
0,632,610,639,483,212,
0,625,604,634,534,211,
0,785,651,627,527,209,
0,772,639,620,519,207,
0,760,631,613,513,233,
0,750,622,607,507,231,
0,739,614,600,502,228,
0,725,606,593,496,227,
0,715,599,585,491,224,
0,705,591,580,486,222,
0,696,584,574,480,220,
0,688,659,568,535,219,
0,782,724,563,527,217,
0,769,710,557,520,220,
0,758,700,591,515,217,
0,747,689,612,509,216,
0,736,680,755,504,214,
0,723,671,743,498,212,
0,712,662,730,492,211,
0,704,653,720,487,208,
0,694,644,711,482,207,
0,752,761,702,537,205,
0,794,755,692,531,204,
0,782,740,684,524,245,
0,769,729,675,518,242,
0,758,719,668,512,240,
0,748,708,659,506,238,
0,734,699,652,500,236,
0,723,689,643,495,233,
0,713,679,635,490,231,
0,704,671,628,485,230,
0,761,664,621,542,227,
0,749,655,614,536,225,
0,737,645,608,527,263,
0,727,636,601,521,259,
0,716,628,595,515,257,
0,707,621,588,510,255,
0,695,614,582,504,252,
0,686,606,575,499,249,
0,676,599,568,494,248,
0,668,591,563,519,246,
0,781,678,558,536,243,
0,768,664,551,530,241,
0,756,655,546,523,279,
0,745,647,540,516,275,
0,734,638,536,511,273,
0,723,630,531,505,271,
0,711,622,526,499,268,
0,702,614,519,495,265,
0,692,606,515,489,263,
0,683,598,511,545,260,
0,765,651,505,537,259,
0,752,639,500,531,255,
0,742,632,496,524,280,
0,731,623,492,518,278,
0,719,614,487,512,275,
0,710,606,483,507,272,
0,697,599,479,502,270,
0,688,591,473,496,268,
0,679,583,575,491,265,
0,671,671,568,553,263,
0,782,723,561,545,260,
0,769,710,555,539,277,
0,758,699,548,531,280,
0,747,689,542,526,278,
0,736,679,536,519,275,
0,725,670,531,514,272,
0,711,662,526,508,271,
0,703,652,519,503,268,
0,693,644,513,498,265,
0,752,638,508,558,263,
0,796,630,503,551,260,
0,783,619,497,545,304,
0,771,611,492,537,300,
0,760,604,487,531,297,
0,749,596,483,525,294,
0,739,590,478,519,291,
0,726,583,472,513,289,
0,716,575,512,508,286,
0,705,569,568,503,284,
0,706,600,561,557,281,
0,696,592,555,551,279,
0,687,583,548,543,300,
0,678,575,542,536,296,
0,669,568,536,530,294,
0,660,561,530,524,291,
0,652,556,524,519,288,
0,643,550,518,512,286,
0,635,543,512,507,283,
0,627,537,508,526,281,
0,760,707,502,550,278,
0,747,696,496,543,276,
0,736,683,564,536,291,
0,724,672,557,529,287,
0,714,664,551,524,285,
0,704,655,543,518,283,
0,695,646,538,512,280,
0,683,638,531,507,278,
0,674,630,525,501,275,
0,665,633,519,554,272,
0,782,743,514,547,270,
0,768,731,519,540,268,
0,758,718,679,534,277,
0,745,707,668,526,275,
0,735,697,660,519,271,
0,724,687,652,515,270,
0,713,678,643,509,267,
0,702,668,633,504,265,
0,692,659,627,498,263,
0,686,740,620,551,260,
0,835,801,611,543,258,
0,822,788,605,537,255,
0,809,774,598,531,260,
0,796,761,591,524,259,
0,783,751,585,519,255,
0,772,739,579,513,254,
0,761,729,572,508,252,
0,748,719,565,502,250,
0,736,708,559,496,248,
0,728,776,553,540,246,
0,772,764,547,534,243,
0,760,752,542,527,257,
0,749,737,536,519,255,
0,738,727,531,515,253,
0,728,716,526,509,251,
0,718,707,520,504,248,
0,707,696,558,497,247,
0,696,688,550,492,244,
0,687,679,543,487,241,
0,779,844,537,542,240,
0,785,828,531,536,238,
0,774,815,693,529,240,
0,761,799,705,521,238,
0,750,786,696,516,236,
0,739,775,687,511,233,
0,728,763,678,505,231,
0,719,752,669,499,231,
0,707,742,659,494,228,
0,697,731,652,508,227,
0,817,781,643,538,224,
0,803,768,636,531,223,
0,792,756,628,526,237,
0,779,743,621,518,235,
0,768,732,614,512,232,
0,755,721,607,507,231,
0,744,711,600,502,228,
0,734,702,593,496,227,
0,721,693,586,491,224,
0,711,684,580,540,223,
0,892,796,739,533,221,
0,879,782,728,527,219,
0,864,771,719,521,258,
0,849,755,709,513,255,
0,836,744,700,508,254,
0,823,734,691,503,251,
0,810,723,681,497,248,
0,798,713,673,492,247,
0,783,704,664,487,244,
0,772,726,655,542,242,
0,793,723,647,536,240,
0,781,711,639,529,238,
0,769,702,633,523,236,
0,758,689,625,515,247,
0,748,680,619,510,243,
0,737,671,612,504,241,
0,727,664,606,499,240,
0,717,655,599,494,237,
0,705,647,591,488,235,
0,745,736,585,540,233,
0,819,745,579,533,231,
0,806,734,572,527,279,
0,793,723,567,521,275,
0,781,710,561,514,272,
0,769,700,556,508,270,
0,758,690,550,503,268,
0,747,680,544,497,265,
0,736,671,539,492,263,
0,723,663,532,487,260,
0,816,654,527,532,258,
0,835,646,522,526,255,
0,821,638,518,519,304,
0,807,630,512,514,302,
0,796,620,508,507,299,
0,783,613,503,502,295,
0,771,606,498,496,293,
0,760,599,494,491,291,
0,750,591,489,486,287,
0,736,585,484,486,285,
0,770,673,480,520,283,
0,758,663,593,515,280,
0,747,654,586,509,320,
0,736,644,579,504,317,
0,725,633,572,496,314,
0,716,625,566,491,312,
0,705,617,560,486,308,
0,696,609,552,481,305,
0,685,601,547,476,303,
0,676,595,540,536,300,
0,775,721,534,530,297,
0,763,711,527,524,295,
0,752,700,523,518,292,
0,740,689,517,512,290,
0,729,678,512,505,287,
0,719,668,507,499,285,
0,710,659,502,494,283,
0,700,651,496,488,280,
0,688,643,492,483,278,
0,679,671,486,536,275,
0,673,701,481,529,273,
0,664,691,477,523,271,
0,657,680,472,517,268,
0,648,671,468,511,267,
0,641,659,464,504,263,
0,633,651,460,499,262,
0,627,642,456,493,260,
0,619,633,452,487,258,
0,610,625,449,483,255,
0,643,619,444,531,254,
0,746,610,440,524,252,
0,735,603,437,518,250,
0,723,595,433,512,248,
0,713,588,430,507,246,
0,704,579,427,499,244,
0,694,573,423,494,242,
0,684,567,419,488,240,
0,675,560,415,483,239,
0,664,554,468,479,237,
0,697,696,462,508,235,
0,688,684,456,502,232,
0,678,675,451,496,231,
0,668,665,447,490,229,
0,659,655,443,485,227,
0,651,645,438,479,226,
0,643,636,433,473,224,
0,635,628,430,469,223,
0,627,620,425,464,221,
0,617,612,422,467,220,
0,778,727,430,513,217,
0,764,715,540,507,216,
0,752,704,533,501,240,
0,740,695,527,496,239,
0,730,682,521,490,236,
0,719,672,515,483,234,
0,710,664,510,479,231,
0,700,655,504,473,230,
0,691,646,499,468,228,
0,679,638,494,508,227,
0,793,630,487,504,224,
0,780,622,483,497,222,
0,768,615,540,492,230,
0,757,607,775,487,227,
0,745,598,787,481,226,
0,734,590,775,475,224,
0,724,583,764,470,222,
0,714,575,753,465,220,
0,704,569,743,460,218,
0,693,572,735,495,217,
0,787,613,721,487,215,
0,775,604,792,483,213,
0,763,596,777,478,211,
0,752,588,766,472,210,
0,740,579,755,467,211,
0,729,572,745,462,209,
0,719,565,736,456,207,
0,710,559,726,452,206,
0,700,551,716,448,204,
0,689,547,707,469,203,
0,679,540,696,463,201,
0,671,535,688,459,231,
0,663,528,679,454,228,
0,654,523,671,449,227,
0,646,516,664,445,225,
0,638,511,655,440,223,
0,631,505,648,435,220,
0,623,500,641,432,219,
0,615,496,634,428,217,
0,679,608,625,446,216,
0,671,600,619,441,213,
0,662,591,612,436,254,
0,652,583,665,432,251,
0,643,575,657,428,267,
0,636,568,647,423,263,
0,627,560,639,419,262,
0,620,553,632,415,259,
0,611,547,624,412,257,
0,604,540,617,408,255,
0,597,644,608,416,252,
0,590,634,601,412,249,
0,583,625,595,408,260,
0,577,617,646,405,257,
0,572,609,846,401,265,
0,566,600,831,398,263,
0,560,591,819,394,261,
0,553,583,807,391,259,
0,548,576,796,387,255,
0,543,570,783,387,254,
0,536,579,771,384,252,
0,531,572,760,381,249,
0,526,565,751,378,291,
0,520,558,740,376,288,
0,515,551,731,372,292,
0,511,543,722,369,289,
0,505,537,713,366,287,
0,500,531,704,363,284,
0,496,525,696,360,281,
0,492,527,876,359,280,
0,508,579,896,355,276,
0,502,572,879,352,274,
0,496,564,865,350,271,
0,491,557,852,348,275,
0,486,551,839,344,293,
0,481,542,827,342,291,
0,476,536,816,339,287,
0,472,529,804,337,285,
0,468,523,792,335,283,
0,463,577,783,332,280,
0,463,582,769,329,278,
0,459,574,760,327,276,
0,455,567,750,326,274,
0,451,560,740,323,284,
0,447,552,731,320,281,
0,443,543,722,318,279,
0,440,537,712,316,276,
0,435,531,704,313,273,
0,432,525,696,312,271,
0,428,598,688,309,269,
0,423,588,678,307,267,
0,419,580,670,305,275,
0,416,574,663,303,272,
0,413,566,655,301,295,
0,409,559,647,299,294,
0,406,551,639,295,290,
0,403,543,633,295,287,
0,399,537,627,292,286,
0,396,531,620,291,283,
0,393,590,614,288,280,
0,390,582,606,287,278,
0,387,574,600,285,275,
0,384,567,593,283,272,
0,380,560,588,281,295,
0,377,552,582,280,291,
0,375,543,575,277,289,
0,371,537,570,275,287,
0,369,531,564,273,284,
0,366,525,559,271,281,
0,364,519,553,270,280,
0,359,513,547,268,276,
0,358,508,542,267,274,
0,355,503,536,265,271,
0,352,497,531,263,322,
0,350,492,687,262,319,
0,347,486,677,259,316,
0,344,481,668,258,312,
0,342,476,659,255,310,
0,339,525,652,255,307,
0,337,569,643,253,304,
0,334,562,633,252,301,
0,332,555,626,250,299,
0,329,548,619,248,297,
0,327,542,611,247,339,
0,324,535,604,246,335,
0,322,527,598,243,332,
0,319,520,591,242,328,
0,318,515,584,240,326,
0,316,509,579,239,323,
0,313,504,572,238,319,
0,311,497,564,236,317,
0,308,492,559,235,314,
0,306,487,553,233,355,
0,304,482,603,231,352,
0,302,477,595,231,348,
0,300,471,588,229,345,
0,297,466,581,227,342,
0,295,462,639,226,339,
0,294,564,632,226,335,
0,311,556,624,224,332,
0,307,548,614,223,329,
0,304,542,607,222,326,
0,302,536,600,220,369,
0,299,528,591,219,365,
0,295,523,625,217,361,
0,294,515,790,216,358,
0,291,509,777,215,355,
0,289,504,766,214,352,
0,288,497,755,216,348,
0,310,492,744,215,345,
0,305,487,732,213,342,
0,303,481,723,211,338,
0,300,476,713,210,390,
0,297,472,704,209,385,
0,295,467,696,207,382,
0,291,460,687,206,377,
0,289,455,679,205,374,
0,287,451,671,209,371,
0,376,632,663,207,368,
0,393,622,655,206,364,
0,389,614,646,204,359,
0,385,606,638,203,356,
0,382,598,632,201,377,
0,377,590,624,200,374,
0,374,583,617,199,370,
0,370,574,611,198,367,
0,366,567,604,196,364,
0,363,560,598,207,359,
0,359,553,591,204,356,
0,355,547,584,203,353,
0,352,540,622,201,350,
0,349,534,614,199,352,
0,346,527,606,198,398,
0,344,522,599,196,393,
0,340,516,591,195,390,
0,337,509,584,194,386,
0,334,504,578,192,382,
0,331,604,572,206,379,
0,327,628,566,204,376,
0,325,620,560,202,371,
0,322,611,553,199,368,
0,319,603,596,199,391,
0,316,595,589,197,385,
0,314,588,582,195,382,
0,312,580,575,194,378,
0,309,572,568,192,375,
0,306,564,561,192,371,
0,304,558,556,217,368,
0,345,551,550,215,364,
0,341,544,543,212,361,
0,338,539,728,211,358,
0,334,532,846,209,354,
0,331,526,831,207,352,
0,327,519,819,206,348,
0,325,515,807,204,345,
0,322,508,796,202,343,
0,319,502,783,200,339,
0,361,615,774,219,336,
0,408,606,763,216,334,
0,403,598,753,215,331,
0,399,590,740,213,327,
0,395,583,732,211,353,
0,391,575,722,209,350,
0,387,568,713,207,347,
0,384,560,704,206,344,
0,379,552,696,204,340,
0,376,546,688,216,337,
0,372,540,679,215,334,
0,368,534,671,212,331,
0,364,527,664,211,327,
0,360,521,654,209,325,
0,358,515,647,207,380,
0,355,510,639,206,376,
0,352,504,632,204,371,
0,348,497,625,203,368,
0,345,492,619,200,364,
0,342,505,612,222,361,
0,412,633,732,220,358,
0,407,624,890,217,355,
0,401,615,875,216,352,
0,397,608,857,214,348,
0,393,600,844,212,396,
0,389,591,831,211,391,
0,385,584,819,209,387,
0,382,575,807,207,384,
0,377,568,796,205,380,
0,375,562,786,221,377,
0,371,555,775,219,374,
0,367,548,765,216,370,
0,363,542,755,215,367,
0,359,536,743,213,391,
0,356,529,733,211,391,
0,353,524,724,209,387,
0,350,518,716,207,384,
0,347,511,707,207,380,
0,344,505,698,204,376,
0,341,499,690,205,373,
0,338,495,681,203,369,
0,335,489,673,201,366,
0,332,484,838,199,363,
0,328,480,824,199,399,
0,326,475,811,197,396,
0,323,470,799,195,391,
0,319,464,787,194,387,
0,318,459,776,192,384,
0,315,455,766,191,380,
0,312,455,755,208,376,
0,310,451,745,207,374,
0,307,447,887,205,370,
0,304,442,909,204,367,
0,302,439,911,201,362,
0,300,434,898,199,359,
0,297,430,879,199,356,
0,295,427,865,197,353,
0,292,422,852,195,350,
0,291,419,840,211,348,
0,288,415,828,215,344,
0,286,411,816,212,342,
0,284,408,806,211,338,
0,281,404,792,209,335,
0,280,401,781,207,373,
0,278,398,771,206,369,
0,275,395,760,204,366,
0,274,391,751,203,363,
0,272,387,741,200,359,
0,271,437,732,231,356,
0,361,560,723,227,352,
0,356,551,715,225,350,
0,353,545,705,224,347,
0,348,538,696,222,344,
0,345,531,688,220,368,
0,342,526,679,218,365,
0,339,519,671,216,361,
0,335,513,685,215,359,
0,332,506,857,212,355,
0,329,540,845,260,352,
0,399,553,831,257,348,
0,394,547,818,255,345,
0,390,540,856,252,342,
0,385,532,838,251,339,
0,381,527,825,248,358,
0,377,520,813,246,355,
0,374,514,801,244,352,
0,370,508,791,242,348,
0,367,501,780,240,344,
0,367,505,769,316,342,
0,519,499,759,312,339,
0,512,494,749,308,335,
0,505,487,739,306,333,
0,498,483,889,303,338,
0,492,478,873,300,340,
0,487,472,860,297,337,
0,482,467,847,295,335,
0,476,463,834,292,332,
0,472,457,822,304,328,
0,508,519,811,396,326,
0,628,513,799,391,323,
0,619,507,788,387,320,
0,611,500,777,384,318,
0,601,495,764,380,315,
0,594,489,754,376,312,
0,587,483,744,373,310,
0,579,479,736,369,307,
0,573,473,726,366,305,
0,567,467,717,415,304,
0,672,641,708,467,300,
0,726,631,700,461,298,
0,715,622,728,455,295,
0,704,614,718,451,294,
0,692,606,705,447,291,
0,683,599,696,441,289,
0,673,591,688,438,287,
0,665,583,679,433,284,
0,656,575,671,429,282,
0,648,577,664,515,280,
0,771,686,668,524,278,
0,758,675,659,518,276,
0,746,666,652,511,274,
0,735,657,644,505,272,
0,723,647,683,500,270,
0,711,639,673,495,268,
0,703,632,664,489,266,
0,693,623,656,484,263,
0,684,615,647,480,262,
0,675,663,641,569,260,
0,837,728,633,560,258,
0,822,717,627,553,255,
0,809,707,620,547,255,
0,796,696,613,542,252,
0,782,687,605,536,251,
0,770,678,600,529,248,
0,760,668,593,524,247,
0,748,659,587,518,245,
0,737,651,581,512,243,
0,728,710,575,593,241,
0,853,697,569,584,240,
0,839,688,564,577,238,
0,825,678,559,571,236,
0,812,668,553,564,243,
0,796,659,627,558,254,
0,784,651,619,551,252,
0,773,642,611,546,249,
0,762,633,604,540,248,
0,751,626,596,535,245,
0,795,736,589,607,243,
0,892,724,583,599,241,
0,875,713,575,591,258,
0,860,703,569,584,255,
0,847,693,563,577,253,
0,830,684,556,571,249,
0,817,674,550,565,248,
0,805,665,544,559,246,
0,792,656,540,552,243,
0,781,647,535,547,242,
0,871,760,529,621,240,
0,905,748,524,612,238,
0,894,736,519,606,247,
0,877,726,515,598,243,
0,859,715,511,591,276,
0,845,704,504,584,272,
0,831,696,500,577,270,
0,819,686,496,572,268,
0,807,676,491,566,265,
0,795,668,487,573,263,
0,894,803,483,630,260,
0,908,791,479,622,259,
0,897,778,475,614,255,
0,879,766,471,607,255,
0,860,755,467,600,252,
0,847,743,462,592,249,
0,834,734,459,587,248,
0,822,723,455,579,246,
0,809,713,451,574,243,
0,798,704,448,633,242,
0,891,744,444,636,240,
0,875,734,531,627,238,
0,860,723,555,620,271,
0,846,712,548,613,268,
0,830,702,584,606,265,
0,816,692,575,599,263,
0,804,684,568,591,260,
0,792,675,561,585,258,
0,780,666,556,579,255,
0,771,751,550,652,254,
0,903,821,543,639,252,
0,910,807,537,632,249,
0,903,795,531,624,248,
0,881,783,526,616,246,
0,863,771,519,609,243,
0,849,760,513,603,240,
0,836,749,508,595,239,
0,824,738,504,589,237,
0,811,728,498,583,235,
0,857,815,494,657,233,
0,906,825,488,646,231,
0,911,812,483,638,235,
0,902,799,480,630,232,
0,880,786,475,622,231,
0,863,775,470,615,229,
0,849,764,464,608,227,
0,835,752,460,600,225,
0,824,742,455,594,224,
0,811,731,452,588,222,
0,878,832,448,657,220,
0,904,818,444,646,219,
0,892,805,440,638,217,
0,876,792,436,630,216,
0,861,780,433,622,231,
0,844,768,430,615,229,
0,831,758,425,608,227,
0,818,747,479,601,225,
0,806,736,484,594,223,
0,795,726,480,591,221,
0,892,846,474,653,219,
0,909,831,599,643,217,
0,910,817,590,635,263,
0,891,804,583,627,261,
0,875,792,575,620,259,
0,857,780,568,611,255,
0,844,769,561,605,253,
0,831,758,555,598,251,
0,818,747,548,591,248,
0,806,736,543,652,247,
0,900,862,536,675,244,
0,911,847,531,664,243,
0,913,833,526,655,241,
0,904,820,519,647,240,
0,882,807,515,639,238,
0,864,795,508,632,236,
0,851,783,504,624,233,
0,837,771,498,617,231,
0,824,760,494,611,230,
0,812,785,489,711,227,
0,903,869,483,698,305,
0,908,854,480,687,302,
0,893,839,475,678,300,
0,877,826,600,669,296,
0,862,813,591,660,294,
0,845,800,582,653,291,
0,831,788,575,645,287,
0,819,777,568,638,286,
0,807,766,562,631,284,
0,823,841,556,731,281,
0,905,876,550,719,284,
0,906,861,543,707,281,
0,887,847,537,697,279,
0,871,831,532,689,276,
0,857,819,527,680,274,
0,840,807,519,671,271,
0,828,795,515,664,269,
0,815,783,510,655,267,
0,803,771,504,648,265,
0,877,889,499,745,319,
0,907,904,495,734,316,
0,910,889,489,721,313,
0,893,873,485,712,311,
0,876,858,480,704,307,
0,862,844,476,694,305,
0,845,831,470,686,302,
0,831,818,465,677,299,
0,819,806,462,669,295,
0,807,793,457,665,295,
0,894,896,454,750,355,
0,908,885,449,739,351,
0,902,869,445,726,347,
0,881,855,441,716,344,
0,867,841,512,707,340,
0,854,828,508,698,337,
0,836,815,500,689,334,
0,824,802,496,681,331,
0,812,790,490,672,327,
0,799,779,486,725,325,
0,898,900,480,756,333,
0,893,907,475,743,329,
0,876,894,564,734,327,
0,862,875,684,723,323,
0,847,860,674,713,321,
0,835,846,664,704,318,
0,819,831,654,696,316,
0,806,819,647,688,312,
0,794,807,639,679,310,
0,783,830,632,741,307,
0,902,900,624,729,321,
0,903,882,615,717,318,
0,884,867,659,707,315,
0,870,852,876,698,312,
0,856,839,868,689,310,
0,842,825,855,680,307,
0,825,812,838,671,304,
0,813,800,825,664,301,
0,800,788,814,656,299,
0,804,867,803,736,339,
0,902,899,791,725,412,
0,889,877,780,712,408,
0,873,862,770,704,403,
0,859,847,760,695,399,
0,845,835,750,686,396,
0,831,822,740,677,391,
0,816,808,729,668,387,
0,804,796,719,660,384,
0,792,784,711,653,380,
0,862,889,704,742,417,
0,897,902,695,731,412,
0,879,880,686,718,408,
0,864,865,678,708,404,
0,851,851,670,700,400,
0,837,837,663,691,396,
0,824,824,655,683,392,
0,808,811,647,673,388,
0,796,799,639,665,384,
0,784,787,632,658,382,
0,888,897,625,731,401,
0,906,903,619,720,396,
0,894,881,612,708,392,
0,876,865,606,699,388,
0,862,851,600,690,385,
0,847,838,593,681,382,
0,835,824,588,673,377,
0,819,812,579,664,374,
0,807,799,574,656,371,
0,795,788,568,688,368,
0,896,871,563,694,364,
0,887,856,558,684,361,
0,871,839,551,673,358,
0,856,825,547,665,355,
0,844,812,542,657,352,
0,830,799,536,649,350,
0,817,788,531,641,346,
0,802,776,525,635,343,
