=~=~=~=~=~=~=~=~=~=~=~= PuTTY log 2021.04.22 13:07:02 =~=~=~=~=~=~=~=~=~=~=~=
7,271,211,
4,207,
0,635,607,171,281,206,
0,627,599,169,280,204,312,184,
0,617,705,224,310,184,
0,609,695,222,307,182,
0,601,684,220,304,181,
0,591,675,217,302,180,
0,583,665,216,299,198,
0,577,
0,617,705,195,
0,570,6
0,609,695,222,307,182,
0,601,684,220,304,181,
0,591,675,217,302,180,
0,583,665,216,299,198,
0,577,656,214,296,195,
0,570,647,212,294,194,
0,563,639,211,291,192,
0,556,629,209,289,191,
0,550,745,207,287,189,
0,60bbb¢bbj
0,601,721,204,281,186,
0,593,711,204,2StartUp!
121,164,461,121,78,495,
0,163,457,120,77,491,
0,163,454,120,77,488,
0,162,451,120,77,502,
0,162,448,124,76,519,
0,161,444,123,76,514,
0,160,440,122,76,510,
0,159,436,121,76,507,
0,159,434,121,75,503,
0,159,431,120,75,498,
0,158,427,120,75,493,
0,157,519,119,74,487,
0,156,512,118,73,483,
0,156,506,117,73,478,
0,154,500,116,73,473,
0,153,494,115,71,519,
0,152,488,115,71,512,
0,152,483,115,71,507,
0,151,478,113,71,501,
0,150,472,113,71,496,
0,150,468,112,71,491,
0,148,527,111,70,485,
0,147,519,111,70,480,
0,147,513,110,69,475,
0,146,507,109,69,471,
0,145,500,108,68,470,
0,144,495,113,68,489,
0,143,489,112,67,483,
0,143,483,111,67,478,
0,142,479,110,67,473,
0,142,473,110,67,468,
0,140,578,109,66,463,
0,140,571,108,66,460,
0,140,563,108,65,455,
0,139,558,107,65,452,
0,138,551,106,65,452,
0,137,544,140,65,468,
0,136,538,138,64,463,
0,135,531,136,63,459,
0,135,525,135,63,454,
0,135,519,135,63,449,
0,134,559,134,63,445,
0,133,608,132,62,441,
0,132,600,131,62,436,
0,131,591,183,62,433,
0,131,584,180,62,429,
0,131,577,179,61,468,
0,129,569,177,61,463,
0,129,564,175,60,457,
0,127,558,174,60,452,
0,127,551,172,60,448,
0,127,544,171,60,444,
0,126,598,169,59,440,
0,125,589,167,59,435,
0,124,582,167,59,431,
0,124,574,166,58,427,
0,124,568,171,57,424,
0,123,560,169,57,421,
0,122,553,167,57,417,
0,121,547,167,57,414,
0,120,540,166,56,409,
0,120,534,163,56,407,
0,120,672,163,56,403,
0,127,661,161,56,399,
0,126,652,160,56,396,
0,124,643,159,55,392,
0,124,633,180,55,391,
0,123,626,187,54,387,
0,121,617,185,54,384,
0,120,609,184,54,381,
0,120,602,183,54,377,
0,120,595,181,53,375,
0,119,639,179,53,371,
0,214,630,178,52,368,
0,210,621,176,52,366,
0,207,612,175,52,363,
0,206,607,174,51,359,
0,204,599,188,51,358,
0,203,591,187,51,355,
0,201,583,185,51,352,
0,199,576,184,51,350,
0,198,569,182,50,347,
0,196,639,180,75,344,
0,313,657,179,73,342,
0,309,647,177,73,339,
0,306,639,176,72,337,
0,303,630,175,71,334,
0,300,622,225,71,332,
0,297,614,222,71,329,
0,295,606,220,70,327,
0,291,598,218,69,324,
0,289,592,216,69,322,
0,287,585,215,115,319,
0,384,684,212,120,317,
0,403,671,211,119,315,
0,398,662,209,118,312,
0,394,652,207,116,310,
0,391,643,206,115,320,
0,387,635,204,115,318,
0,382,627,203,113,314,
0,378,619,200,112,312,
0,375,611,199,112,308,
0,371,646,198,152,307,
0,485,674,196,150,304,
0,478,662,195,148,302,
0,472,653,193,147,300,
0,467,644,192,145,297,
0,462,636,208,144,313,
0,456,627,207,143,311,
0,451,619,204,142,307,
0,446,611,203,140,304,
0,441,603,201,140,302,
0,438,696,199,170,299,
0,551,700,198,167,295,
0,543,688,196,167,294,
0,536,678,195,164,292,
0,530,668,193,163,305,
0,524,659,198,162,305,
0,516,651,195,161,302,
0,511,642,194,159,299,
0,505,633,192,158,295,
0,500,625,191,157,294,
0,520,833,189,203,291,
0,617,817,188,199,288,
0,608,801,187,198,287,
0,600,788,185,196,284,
0,593,776,190,194,310,
0,585,765,192,193,306,
0,577,753,191,192,303,
0,571,743,189,190,300,
0,564,733,188,188,297,
0,558,723,187,207,295,
0,629,819,184,228,291,
0,666,804,183,225,289,
0,657,789,182,224,287,
0,647,777,180,221,284,
0,639,766,194,220,310,
0,632,754,192,217,306,
0,622,743,191,216,304,
0,614,732,188,214,300,
0,607,722,187,212,297,
0,600,712,185,260,295,
0,723,821,184,260,291,
1,710,807,182,258,289,
1,700,792,224,255,287,
1,690,779,222,253,284,
0,681,768,224,251,302,
1,671,756,221,248,299,
1,661,745,220,247,295,
1,652,735,217,244,292,
1,644,724,216,243,290,
1,638,771,214,287,287,
1,755,806,211,284,285,
1,742,792,209,281,283,
1,732,777,208,279,280,
1,721,765,207,276,283,
1,711,754,211,273,295,
1,702,743,208,271,294,
1,690,732,207,269,291,
1,681,722,205,267,287,
1,672,712,204,265,286,
1,664,808,201,304,283,
1,788,795,199,301,280,
2,775,779,199,298,278,
1,764,767,197,295,275,
2,753,755,195,292,309,
1,743,743,206,289,305,
2,732,734,204,287,302,
2,719,723,202,285,300,
2,710,712,199,283,295,
2,700,703,199,280,294,
3,716,851,197,331,291,
3,808,835,195,327,287,
3,795,817,193,324,286,
3,783,804,192,320,283,
3,771,792,208,318,312,
3,760,780,206,315,308,
3,750,768,204,312,305,
3,737,757,202,310,303,
3,728,746,199,307,299,
3,718,736,199,310,295,
3,780,876,197,322,294,
3,807,860,195,319,291,
3,794,841,193,316,288,
3,782,828,192,312,286,
3,771,816,211,310,326,
3,760,803,209,307,322,
3,749,791,207,305,319,
3,736,779,206,303,316,
3,726,768,204,300,312,
3,716,756,202,338,310,
3,833,825,199,336,307,
3,819,812,199,333,304,
3,807,796,197,329,302,
3,793,783,195,327,299,
3,783,771,207,323,329,
3,771,760,206,321,326,
3,760,748,204,318,323,
3,747,738,201,316,319,
3,736,728,199,312,316,
3,728,775,199,339,313,
3,843,804,196,335,311,
3,828,791,195,332,307,
3,816,775,244,329,305,
3,803,764,241,326,315,
3,792,752,239,323,335,
3,780,742,237,319,332,
3,768,731,235,317,329,
2,755,720,232,315,326,
2,744,711,231,312,322,
2,735,813,229,351,319,
3,839,799,227,347,316,
3,825,785,225,344,313,
3,813,771,224,340,311,
2,800,759,222,337,327,
3,788,748,228,334,324,
2,777,737,227,331,321,
3,766,727,225,327,318,
2,753,716,223,326,315,
2,743,706,221,323,312,
2,764,776,219,331,308,
2,839,764,217,327,305,
2,825,752,216,325,304,
2,812,738,215,321,301,
3,799,728,213,319,321,
2,788,717,211,316,318,
2,777,707,209,313,315,
2,766,696,207,311,312,
2,752,688,206,308,308,
2,742,679,205,319,305,
2,819,740,203,340,303,
1,831,728,201,337,300,
2,818,718,199,334,297,
2,806,704,198,331,295,
2,794,695,223,327,327,
1,782,684,220,324,324,
1,771,675,219,322,320,
1,760,667,216,319,318,
1,747,658,214,316,315,
2,736,650,212,332,312,
2,838,651,211,329,308,
1,824,642,208,326,305,
1,811,635,207,323,303,
1,799,624,206,319,300,
1,787,617,216,317,332,
1,775,610,213,314,327,
1,764,603,211,312,325,
1,753,595,209,309,322,
1,740,589,207,307,319,
1,731,669,206,321,316,
1,802,722,204,318,312,
1,790,711,203,315,310,
1,777,700,200,312,307,
1,766,688,199,310,339,
1,755,679,217,307,363,
1,743,669,216,304,359,
1,734,660,214,302,355,
1,724,652,211,299,352,
1,711,643,209,297,349,
1,704,721,207,303,344,
1,788,710,206,300,342,
1,776,699,204,297,338,
1,765,689,203,295,335,
0,753,677,201,292,355,
1,743,668,199,290,352,
0,732,659,199,287,348,
0,723,649,197,286,344,
0,713,641,195,284,342,
0,701,633,193,281,337,
1,724,740,192,304,334,
0,794,728,191,302,331,
0,782,718,190,300,327,
0,770,707,188,296,325,
0,759,695,188,294,359,
0,748,684,185,291,355,
0,737,675,184,289,352,
0,727,665,183,286,349,
0,717,657,182,284,345,
0,705,648,180,301,342,
0,790,821,179,310,338,
0,796,807,177,306,335,
0,783,794,176,304,332,
0,772,782,175,301,329,
0,761,768,191,298,383,
0,750,755,189,295,378,
0,739,744,188,293,375,
0,729,734,185,291,371,
0,719,723,184,288,367,
0,707,722,183,307,363,
0,792,796,181,304,359,
0,780,783,179,302,355,
0,768,771,179,299,352,
0,756,759,177,295,349,
0,745,744,181,293,386,
0,736,734,179,291,382,
0,725,723,179,288,377,
0,715,713,177,286,374,
0,705,704,176,284,371,
0,695,748,174,310,366,
0,750,736,172,306,363,
0,738,724,171,304,359,
0,728,714,170,301,355,
0,717,704,168,299,380,
0,707,691,190,295,384,
0,697,683,188,292,380,
0,689,673,187,290,376,
0,679,664,184,287,372,
0,671,656,183,286,369,
0,662,707,182,306,364,
0,745,696,179,303,360,
0,734,687,178,300,358,
0,724,677,177,297,354,
0,713,668,176,295,368,
0,704,655,176,292,365,
0,695,647,176,289,361,
0,685,639,174,287,358,
0,676,632,172,285,354,
0,665,624,172,283,351,
0,671,698,169,295,347,
0,718,687,167,291,344,
0,708,677,167,289,340,
0,698,668,166,287,337,
0,688,658,167,284,368,
0,679,647,166,281,364,
0,670,638,164,280,359,
0,662,631,163,277,356,
0,653,622,162,275,353,
0,643,615,161,287,350,
0,720,608,159,293,345,
0,711,600,159,290,343,
0,702,593,158,287,339,
0,691,585,156,285,335,
0,683,579,166,283,377,
0,673,572,164,280,374,
0,664,565,163,278,369,
0,655,559,162,275,366,
0,647,551,160,273,362,
0,638,559,159,295,359,
0,702,613,157,291,355,
0,691,605,156,289,352,
0,681,597,156,287,348,
0,671,589,154,284,345,
0,664,582,164,281,382,
0,655,572,163,279,377,
0,646,566,161,276,374,
0,638,559,159,274,370,
0,631,551,159,271,367,
0,622,655,157,294,364,
0,718,645,156,291,359,
0,707,636,155,287,355,
0,697,627,153,286,352,
0,688,619,152,283,384,
0,678,611,153,280,385,
0,669,600,152,278,382,
0,660,593,152,275,377,
0,652,585,151,273,374,
0,643,579,150,271,370,
0,633,679,148,285,367,
0,699,670,147,282,362,
0,688,659,146,280,359,
0,679,651,145,278,355,
0,670,641,151,275,403,
0,660,632,166,273,399,
0,652,623,164,270,395,
0,643,615,163,268,391,
0,636,607,161,266,387,
0,628,600,159,263,384,
0,659,625,159,284,380,
0,708,615,157,281,375,
0,698,608,185,280,371,
0,688,600,214,276,368,
0,679,591,211,275,385,
0,670,583,209,271,381,
0,662,575,207,269,377,
0,652,569,206,267,374,
0,644,562,204,265,369,
0,636,556,203,273,367,
0,696,646,200,272,363,
0,684,636,199,271,359,
0,675,627,197,268,355,
0,665,619,195,265,352,
0,657,611,194,263,393,
0,647,601,192,262,388,
0,639,593,191,259,385,
0,632,585,189,257,381,
0,624,579,188,255,377,
0,616,573,187,269,374,
0,704,582,184,267,369,
0,694,575,183,263,366,
0,684,568,182,263,362,
0,675,560,180,260,359,
0,665,554,179,257,355,
0,657,546,177,255,352,
0,647,540,176,254,349,
0,639,534,175,252,346,
0,632,528,174,249,343,
0,624,611,172,260,340,
0,673,632,171,257,337,
0,664,624,169,255,334,
0,655,615,167,253,331,
0,646,607,167,251,358,
0,638,599,179,249,354,
0,630,590,178,248,351,
0,622,582,176,245,347,
0,614,575,175,243,344,
0,607,568,174,241,340,
0,600,660,172,243,337,
0,673,651,170,241,334,
0,664,641,169,240,331,
0,655,632,206,238,327,
0,646,624,204,236,342,
0,638,615,203,235,337,
0,630,606,200,232,335,
0,622,598,199,231,332,
0,614,591,198,229,327,
0,606,583,196,228,326,
0,600,681,195,253,323,
0,647,671,192,250,319,
0,639,662,191,248,316,
0,631,652,189,246,313,
0,623,643,190,244,312,
0,615,635,188,242,309,
0,607,624,187,240,306,
0,600,615,185,238,304,
0,591,608,184,236,302,
0,585,600,182,239,299,
0,596,723,181,238,296,
0,644,712,179,236,295,
0,636,702,177,235,291,
0,627,692,176,232,289,
0,620,683,182,231,291,
0,611,673,180,229,289,
0,604,662,178,227,287,
0,596,653,177,225,284,
0,588,644,176,224,282,
0,582,690,175,254,280,
0,655,763,173,252,278,
0,646,751,171,249,275,
0,638,739,169,248,273,
0,628,728,167,245,273,
0,620,718,167,243,315,
0,612,707,166,241,312,
0,605,696,164,239,308,
0,598,686,163,236,305,
0,590,676,162,235,303,
0,583,732,161,258,300,
0,645,720,159,255,297,
0,633,710,159,253,295,
0,625,700,158,251,291,
0,616,689,156,248,312,
0,609,679,156,247,308,
0,601,671,155,244,305,
0,594,659,154,242,303,
0,587,651,152,240,300,
0,579,643,152,239,297,
0,574,728,151,265,295,
0,639,716,150,263,291,
0,627,704,148,260,289,
0,620,695,147,258,286,
0,611,684,147,255,327,
0,604,675,145,254,323,
0,596,666,144,252,319,
0,589,655,143,249,316,
0,582,646,142,248,313,
0,575,638,141,246,312,
0,568,702,140,255,307,
0,647,691,139,254,305,
0,637,680,139,252,302,
0,628,671,137,249,299,
0,620,662,174,248,332,
0,612,653,172,245,328,
0,604,644,171,243,326,
0,598,633,169,240,322,
0,590,625,167,239,319,
0,583,617,167,248,316,
0,584,657,165,250,313,
0,615,647,163,248,311,
0,606,639,162,246,307,
0,598,631,161,243,304,
0,591,623,159,241,339,
0,583,615,158,240,335,
0,575,607,157,238,332,
0,569,598,156,236,329,
0,563,591,155,233,326,
0,556,666,153,252,323,
0,639,736,152,250,319,
0,630,725,151,248,317,
0,620,715,150,246,313,
0,611,704,148,243,315,
0,604,694,152,241,337,
0,596,684,151,240,334,
0,588,675,150,238,331,
0,582,664,148,235,327,
0,575,655,147,233,324,
0,568,671,146,257,321,
0,628,662,145,254,319,
0,619,652,143,252,316,
0,609,643,143,249,312,
0,601,636,142,248,352,
0,594,627,156,246,347,
0,587,620,154,243,344,
0,579,611,152,241,340,
0,572,602,152,239,337,
0,566,595,151,238,334,
0,559,623,149,252,331,
0,614,614,147,249,327,
0,606,606,147,248,324,
0,596,598,156,246,321,
0,588,590,178,243,368,
0,582,583,177,241,364,
0,574,575,176,240,359,
0,568,569,175,238,355,
0,560,561,173,236,353,
0,553,555,172,243,350,
0,548,591,171,255,346,
0,630,583,168,253,343,
0,620,575,167,251,339,
0,611,568,166,248,335,
0,603,561,164,247,384,
0,595,555,163,244,379,
0,588,547,161,243,376,
0,581,542,161,240,371,
0,574,535,159,238,368,
0,568,529,158,249,364,
0,606,573,156,249,360,
0,623,566,156,247,357,
0,612,558,155,244,354,
0,605,551,166,243,350,
0,598,543,167,240,385,
0,590,537,167,239,381,
0,583,531,166,236,377,
0,575,525,164,235,374,
0,568,518,163,232,369,
0,562,551,161,255,366,
0,647,559,159,254,363,
0,636,551,159,251,359,
0,626,543,158,249,356,
0,617,537,156,247,353,
0,610,531,162,244,352,
0,603,524,160,243,349,
0,595,518,159,240,345,
0,588,512,158,239,343,
0,580,505,156,236,339,
0,574,519,155,248,337,
0,653,512,154,247,334,
0,643,505,153,244,331,
0,633,499,152,242,327,
0,624,495,151,240,379,
0,616,489,162,238,374,
0,608,485,161,236,369,
0,601,480,159,235,366,
0,593,476,158,232,361,
0,587,470,157,231,359,
0,580,586,156,242,355,
0,632,577,155,240,352,
0,623,569,153,238,348,
0,612,562,152,236,345,
0,604,555,155,234,342,
0,598,548,153,231,339,
0,590,542,152,231,335,
0,583,536,151,228,332,
0,575,527,150,227,329,
0,568,521,148,237,327,
0,563,652,147,247,324,
0,639,642,147,244,321,
0,630,633,145,243,319,
0,620,624,144,240,316,
0,611,616,159,239,325,
0,604,608,157,236,322,
0,595,600,156,235,319,
0,588,592,154,232,316,
0,582,583,153,231,313,
0,575,579,152,247,311,
0,617,660,151,244,307,
0,635,651,149,243,305,
0,626,641,148,240,303,
0,615,632,147,238,300,
0,608,624,169,236,345,
0,600,615,167,235,343,
0,593,608,166,232,339,
0,585,600,165,231,335,
0,579,591,163,229,332,
0,572,585,162,234,329,
0,718,579,161,231,327,
0,706,572,159,230,323,
0,696,564,158,228,321,
0,684,558,157,226,318,
0,675,551,156,224,314,
0,665,545,155,223,312,
0,657,539,153,221,308,
0,648,532,152,220,306,
0,639,525,152,218,304,
0,633,594,150,222,301,
0,711,585,148,220,299,
0,702,578,147,219,295,
0,691,571,147,217,294,
0,679,563,150,216,308,
0,671,556,176,214,336,
0,662,550,175,212,333,
0,654,543,173,211,329,
0,646,536,172,209,327,
0,637,528,170,207,323,
0,630,632,169,231,320,
0,687,623,167,228,318,
0,677,614,166,227,315,
0,668,606,164,224,312,
0,656,598,209,223,344,
0,647,590,211,221,339,
0,639,583,209,219,336,
0,632,575,207,217,333,
0,624,568,206,216,330,
0,615,560,204,214,327,
0,630,655,203,224,323,
0,707,646,200,222,321,
0,696,637,199,220,318,
0,687,628,198,219,315,
0,675,620,195,217,359,
0,666,611,194,216,355,
0,657,604,192,214,352,
0,649,596,191,211,348,
0,641,588,189,210,345,
0,633,587,188,216,342,
0,689,636,187,220,339,
0,696,627,185,219,335,
0,686,618,184,217,332,
0,677,610,182,216,329,
0,665,601,180,214,374,
0,656,594,179,211,368,
0,647,587,177,210,365,
0,639,579,176,208,361,
0,632,572,175,207,358,
0,624,620,174,223,355,
0,679,610,172,220,352,
0,669,601,171,219,348,
0,659,594,169,217,345,
0,651,586,167,216,342,
0,639,579,195,213,379,
0,632,572,193,211,374,
0,624,564,192,209,370,
0,616,558,190,208,366,
0,609,551,188,207,363,
0,603,587,187,231,359,
0,693,579,185,229,355,
0,683,571,184,227,352,
0,673,563,183,225,349,
0,664,556,181,224,367,
0,653,550,180,221,380,
0,644,543,179,220,376,
0,636,536,177,217,371,
0,628,531,176,216,368,
0,620,524,174,214,364,
0,614,609,173,231,360,
0,681,600,172,231,358,
0,671,591,171,228,354,
0,663,584,169,227,351,
0,654,576,167,224,391,
0,643,569,172,223,387,
0,635,563,170,221,383,
0,627,556,169,220,379,
0,619,548,167,217,375,
0,611,542,166,216,371,
0,611,535,165,231,368,
0,676,527,163,230,364,
0,667,523,163,227,360,
0,657,516,161,225,358,
0,649,511,165,224,399,
0,638,505,163,222,395,
0,630,500,162,220,391,
0,622,495,160,219,387,
0,615,489,159,217,383,
0,607,484,159,218,379,
0,657,595,157,217,376,
0,651,586,156,216,371,
0,643,579,155,214,368,
0,633,572,153,212,365,
0,625,564,155,211,387,
0,615,557,153,209,383,
0,608,551,152,207,379,
0,600,543,151,206,375,
0,593,537,150,204,371,
0,587,531,148,220,368,
0,675,528,147,217,364,
0,665,522,146,216,360,
0,656,516,145,214,358,
0,647,510,143,212,354,
0,639,504,169,211,399,
0,629,499,167,209,393,
0,621,494,166,207,390,
0,614,488,164,206,386,
0,606,483,163,204,383,
0,600,554,161,225,379,
0,624,546,160,223,376,
0,615,539,159,221,371,
0,608,532,158,219,368,
0,600,526,156,217,390,
0,593,519,157,216,395,
0,583,513,155,214,390,
0,577,508,153,211,385,
0,571,502,153,210,382,
0,564,496,152,208,377,
0,559,536,151,232,374,
0,632,527,149,230,371,
0,623,520,148,227,367,
0,615,515,147,225,364,
0,607,508,146,224,412,
0,600,502,167,222,407,
0,590,496,167,220,401,
0,583,491,164,219,397,
0,575,486,163,217,393,
0,568,480,162,216,390,
0,588,540,161,255,385,
0,639,531,159,252,382,
0,632,524,158,250,379,
0,624,518,157,248,375,
0,615,511,169,246,371,
0,606,505,167,243,368,
0,598,499,166,241,364,
0,590,494,164,240,359,
0,583,487,163,238,356,
0,575,483,161,239,353,
0,647,543,160,243,351,
0,639,536,159,240,348,
0,631,528,158,239,344,
0,623,521,156,236,342,
0,615,515,173,235,385,
0,604,510,172,232,382,
0,597,504,169,231,376,
0,590,497,167,229,373,
0,583,492,167,227,369,
0,575,491,165,239,366,
0,643,516,163,236,362,
0,635,508,163,233,359,
0,626,502,161,231,355,
0,617,496,159,230,352,
0,610,490,163,228,388,
0,600,484,161,227,384,
0,593,479,159,224,379,
0,585,475,159,223,376,
0,579,470,158,221,371,
0,572,515,156,229,368,
0,644,508,155,227,364,
0,636,500,153,224,361,
0,627,494,152,223,358,
0,619,487,152,221,396,
0,611,483,152,219,401,
0,601,477,151,217,398,
0,593,472,149,216,392,
0,587,467,147,214,388,
0,579,462,147,212,385,
0,573,622,146,248,381,
0,655,611,144,245,377,
0,647,601,143,243,374,
0,639,593,143,240,370,
0,630,585,142,239,385,
0,622,578,142,236,381,
0,611,571,140,234,376,
0,604,563,139,231,372,
0,597,557,137,231,369,
0,590,550,137,230,365,
0,622,674,135,235,361,
0,670,661,135,232,359,
0,660,652,135,231,355,
0,652,643,134,228,352,
0,643,635,163,227,407,
0,635,625,161,224,403,
0,624,617,159,223,398,
0,616,609,158,221,393,
0,609,601,156,220,389,
0,601,595,156,229,385,
0,655,646,154,233,382,
0,646,634,152,231,377,
0,636,625,152,229,375,
0,628,617,151,227,371,
0,620,609,154,225,376,
0,612,601,152,224,371,
0,603,593,152,222,368,
0,595,586,150,220,364,
0,588,579,148,218,359,
0,582,577,147,260,357,
0,679,599,146,257,353,
0,668,589,145,255,351,
0,659,582,143,252,347,
0,651,574,143,251,344,
0,643,567,142,248,342,
0,634,560,141,247,339,
0,624,553,140,244,335,
0,616,547,138,242,332,
0,608,541,137,240,329,
0,601,627,135,319,327,
0,700,616,135,316,323,
0,690,606,134,312,321,
0,680,599,133,308,318,
0,671,590,132,306,316,
0,663,583,131,304,312,
0,654,575,130,301,311,
0,643,568,129,299,307,
0,636,561,127,295,305,
0,627,555,127,294,303,
0,620,671,127,335,300,
0,713,660,126,331,297,
0,703,649,125,327,295,
0,694,639,124,324,293,
0,684,632,123,321,291,
0,675,624,122,319,288,
0,665,615,121,316,286,
0,655,608,121,313,284,
0,647,600,120,311,281,
0,639,592,120,316,280,
0,688,732,119,376,277,
0,724,719,118,371,275,
0,714,707,117,368,273,
0,704,696,116,364,271,
0,695,687,115,359,269,
0,685,678,115,358,267,
0,675,668,114,354,265,
0,665,659,113,352,263,
0,656,651,112,348,261,
0,647,642,112,376,259,
0,729,718,111,381,257,
0,718,707,110,377,255,
0,708,694,109,374,254,
0,697,684,108,369,252,
0,688,674,108,366,251,
0,679,665,108,363,248,
0,670,655,107,359,248,
0,659,647,105,356,246,
0,651,639,105,353,243,
0,643,678,104,387,242,
0,728,711,103,382,240,
0,717,700,103,378,239,
0,707,688,103,374,StartUp!
123,579,608,174,122,553,
0,574,601,173,121,548,
0,568,595,172,120,543,
0,563,590,171,120,540,
0,558,583,169,119,599,
0,553,578,182,118,591,
0,547,572,180,118,586,
0,543,568,179,117,580,
0,538,562,178,116,575,
0,534,557,177,115,570,
0,529,551,176,115,563,
0,524,598,174,115,557,
0,574,589,172,115,550,
0,567,582,171,113,542,
0,560,574,169,113,536,
0,552,567,167,112,600,
0,546,560,167,111,591,
0,540,551,167,110,583,
0,533,543,166,109,577,
0,527,537,164,108,570,
0,521,531,163,108,563,
0,515,606,162,111,556,
0,568,598,159,110,550,
0,561,590,159,109,543,
0,553,582,158,108,536,
0,547,574,158,108,542,
0,540,567,158,107,536,
0,534,559,156,105,529,
0,527,551,155,105,524,
0,521,545,154,103,518,
0,515,541,153,104,516,
0,513,600,152,121,511,
0,567,591,152,120,504,
0,559,583,151,119,499,
0,552,576,150,118,495,
0,545,569,180,117,518,
0,539,562,178,115,511,
0,532,553,176,115,505,
0,527,547,175,114,500,
0,520,540,174,113,495,
0,515,536,172,153,490,
0,572,612,171,156,485,
0,603,604,168,155,480,
0,595,596,167,153,475,
0,588,588,166,152,471,
0,580,581,199,151,521,
0,573,574,196,150,515,
1,566,564,195,148,509,
1,559,558,193,147,504,
1,551,551,192,145,497,
2,546,603,190,185,492,
2,624,620,188,183,487,
3,612,611,187,181,480,
3,604,604,185,179,476,
3,596,595,184,178,505,
3,590,588,209,176,527,
4,582,580,207,175,520,
4,575,572,205,174,515,
4,568,564,204,172,508,
4,561,558,201,171,503,
4,555,625,199,193,497,
4,623,615,199,191,492,
5,611,608,196,189,486,
5,604,600,195,188,480,
5,596,591,193,186,536,
6,589,583,203,184,529,
6,582,577,201,184,523,
5,574,568,199,182,516,
6,568,561,198,179,511,
5,561,555,196,178,505,
5,555,599,195,198,499,
5,626,590,193,195,494,
5,615,583,192,194,487,
5,608,575,190,192,483,
5,600,568,206,191,531,
6,591,560,204,189,524,
5,585,554,201,188,518,
5,577,545,199,185,512,
5,571,539,199,184,506,
5,564,533,196,184,501,
6,558,598,195,187,495,
5,609,589,193,185,489,
5,600,582,192,184,483,
6,593,574,190,182,478,
5,586,568,216,180,519,
5,579,560,212,179,513,
5,572,552,211,177,508,
4,564,544,209,176,502,
5,558,537,207,175,496,
5,551,546,206,182,491,
5,616,630,204,184,486,
5,633,621,202,183,480,
4,625,612,199,181,474,
4,617,604,199,179,469,
5,609,596,208,178,479,
4,601,589,206,177,473,
4,594,582,204,176,468,
4,587,573,203,174,463,
4,580,566,201,172,460,
4,573,647,199,188,455,
4,652,663,198,186,451,
4,639,652,196,184,448,
4,632,643,194,184,443,
4,624,635,193,182,485,
4,615,627,206,180,504,
4,608,619,204,179,499,
4,600,611,202,177,493,
4,593,601,199,176,487,
4,586,593,199,174,483,
3,579,633,197,193,478,
4,642,624,195,191,472,
4,631,615,194,189,467,
4,623,608,192,188,461,
4,615,600,191,186,525,
4,607,591,197,184,518,
4,600,584,195,183,512,
4,591,577,193,182,505,
3,584,568,192,179,500,
4,577,562,191,179,495,
3,571,628,189,198,489,
4,647,620,188,195,484,
3,636,611,186,194,480,
4,627,603,184,193,472,
3,620,595,184,192,524,
3,611,588,183,190,519,
3,604,579,182,188,512,
3,596,571,179,187,507,
3,589,563,179,184,500,
4,582,557,177,185,496,
3,575,617,176,185,489,
3,625,608,175,184,484,
3,615,600,173,183,480,
3,608,593,172,181,473,
3,600,585,199,179,525,
3,591,577,199,178,519,
3,584,571,196,177,512,
3,577,561,195,176,507,
3,571,555,193,174,502,
3,564,563,192,190,496,
3,626,639,190,190,490,
3,638,632,188,188,485,
3,627,623,187,187,480,
3,620,615,185,184,473,
2,611,607,198,184,526,
3,604,599,196,182,519,
3,596,591,195,180,513,
3,589,582,193,179,508,
2,582,575,192,177,502,
2,575,684,190,185,497,
2,637,696,188,184,492,
2,628,686,187,182,486,
2,617,676,185,180,481,
2,609,667,184,179,528,
2,601,658,204,177,522,
2,594,649,201,176,516,
2,587,639,199,175,510,
2,579,630,198,173,504,
1,573,622,196,172,499,
1,567,707,195,174,493,
1,631,696,193,172,487,
1,622,685,192,172,483,
1,611,675,190,170,478,
1,604,666,191,169,531,
1,595,657,201,167,525,
1,588,648,199,167,519,
1,582,639,198,165,513,
1,575,630,196,163,507,
1,568,622,195,163,502,
1,561,614,193,191,496,
1,605,606,192,189,491,
1,597,599,190,187,486,
1,588,591,188,185,480,
1,580,583,196,184,530,
1,573,577,194,183,524,
1,566,571,192,181,518,
1,560,563,191,179,511,
0,552,556,189,178,505,
1,547,550,188,177,500,
1,563,655,186,175,495,
1,615,644,184,174,489,
1,607,636,184,172,484,
0,598,627,182,172,479,
1,590,620,185,170,532,
0,583,611,184,168,526,
0,575,604,182,167,519,
0,568,595,180,167,513,
0,561,586,179,165,508,
1,555,620,177,164,503,
0,627,678,176,163,496,
0,619,668,175,162,492,
0,611,659,174,161,487,
0,600,649,172,159,481,
0,593,639,185,159,539,
0,585,632,184,158,532,
0,579,624,182,156,526,
0,572,615,180,155,519,
0,564,606,179,153,514,
0,559,708,177,192,508,
0,639,732,176,190,503,
0,631,721,175,188,497,
0,622,711,173,187,492,
0,611,700,172,185,487,
0,604,691,184,184,547,
0,596,681,182,182,540,
0,589,671,180,180,534,
0,582,664,179,179,527,
0,575,652,177,177,521,
0,568,688,176,176,515,
0,615,678,175,175,510,
0,607,668,173,173,504,
0,599,659,172,172,499,
0,590,650,174,171,532,
0,582,641,175,169,540,
0,575,633,173,167,534,
0,568,625,172,167,527,
0,561,617,171,166,521,
0,555,608,169,164,516,
0,548,664,167,166,510,
0,624,654,167,164,504,
0,615,644,166,163,499,
0,607,636,163,162,493,
0,598,627,181,160,545,
0,590,619,179,159,536,
0,583,611,177,158,530,
0,575,604,176,157,524,
0,568,595,174,156,518,
0,562,587,172,158,512,
0,583,580,171,157,507,
0,627,574,169,156,500,
0,618,567,168,155,496,
0,610,560,167,153,490,
0,600,554,169,152,551,
0,593,547,167,152,545,
0,585,541,167,150,539,
0,579,536,166,149,532,
0,572,529,164,148,527,
0,564,566,163,147,520,
0,621,596,161,147,515,
0,612,588,160,145,508,
0,604,580,159,144,504,
0,596,573,158,143,498,
0,587,566,178,143,566,
0,579,559,176,142,559,
0,572,551,175,140,552,
0,566,545,173,140,545,
0,559,539,172,139,540,
0,552,627,171,145,534,
0,624,616,169,144,527,
0,615,608,167,143,521,
0,607,600,167,142,515,
0,600,592,165,141,517,
0,590,584,184,140,571,
0,583,577,182,139,563,
0,575,571,179,137,557,
0,568,563,179,137,551,
0,562,556,177,135,543,
0,556,627,176,156,537,
0,626,617,174,154,531,
0,617,609,172,152,526,
0,609,600,172,152,519,
0,601,593,169,151,574,
0,591,585,177,149,569,
0,584,578,176,148,563,
0,577,571,175,147,556,
0,571,564,173,145,550,
0,563,557,172,144,543,
0,558,615,171,156,537,
0,617,607,169,154,531,
0,609,599,167,152,525,
0,602,591,167,152,519,
0,594,583,177,151,587,
0,584,575,180,149,575,
0,577,568,179,147,569,
0,571,561,177,147,563,
0,563,555,176,145,556,
0,557,548,175,145,550,
0,580,612,173,156,543,
0,615,604,172,155,537,
0,607,596,170,153,531,
0,600,588,168,152,525,
0,590,582,189,151,590,
0,583,574,187,150,580,
0,575,567,185,149,573,
0,568,560,184,147,567,
0,561,552,182,147,560,
0,555,546,180,152,553,
0,618,623,179,154,547,
0,608,614,177,153,540,
0,601,606,176,152,535,
0,593,598,175,151,528,
0,583,590,181,150,583,
0,576,582,179,148,575,
0,569,575,177,147,568,
0,563,568,176,146,561,
0,556,560,175,145,555,
0,550,606,173,145,548,
0,624,684,172,143,542,
0,615,675,170,143,536,
0,608,665,169,142,530,
0,600,655,167,141,524,
0,591,647,167,140,523,
0,583,638,167,139,516,
0,575,630,165,138,511,
0,569,622,163,136,505,
0,563,614,163,135,499,
0,556,661,161,162,495,
0,621,648,159,159,489,
0,612,639,159,158,484,
0,604,632,158,157,480,
0,596,623,156,156,534,
0,587,615,166,154,527,
0,580,607,164,153,519,
0,573,599,163,152,512,
0,566,591,161,151,507,
0,559,584,160,150,502,
0,553,659,159,152,496,
0,603,647,158,150,490,
0,595,638,156,148,485,
0,588,629,156,147,480,
0,580,621,164,146,546,
0,571,612,163,145,539,
0,564,604,162,143,531,
0,558,596,161,143,524,
0,551,590,159,142,519,
0,544,582,158,145,513,
0,570,639,156,161,507,
0,595,632,156,159,502,
0,588,623,154,158,496,
0,580,615,153,156,491,
0,573,607,169,156,557,
0,564,599,167,154,550,
0,558,591,166,153,542,
0,551,583,164,152,536,
0,544,576,163,151,529,
0,538,569,161,164,524,
0,622,663,160,168,518,
0,612,653,159,167,512,
0,605,643,158,166,507,
0,597,635,156,164,501,
0,590,627,175,163,560,
0,580,618,174,161,553,
0,573,611,172,159,545,
0,567,603,170,159,539,
0,560,595,168,158,533,
0,553,632,167,173,527,
0,598,643,166,171,521,
0,589,634,164,169,515,
0,582,625,163,167,509,
0,574,617,162,167,527,
0,568,609,176,165,558,
0,559,601,175,163,551,
0,551,593,173,163,543,
0,545,586,172,161,536,
0,540,579,170,159,530,
0,534,572,169,164,524,
0,600,563,167,163,519,
0,592,557,167,161,513,
0,585,551,164,160,508,
0,577,544,163,159,558,
0,570,538,163,158,551,
0,561,531,161,157,543,
0,555,526,160,156,536,
0,548,520,159,155,529,
0,542,515,158,153,524,
0,540,624,156,165,518,
0,608,612,156,163,512,
0,600,604,154,161,506,
0,593,595,153,160,501,
0,585,588,166,159,547,
0,578,580,164,158,540,
0,569,574,162,156,533,
0,562,567,161,156,526,
0,556,560,159,154,519,
0,549,552,159,153,513,
0,584,633,157,157,508,
0,600,622,156,155,503,
0,591,614,155,153,497,
0,584,606,153,152,492,
0,577,598,158,152,551,
0,570,590,156,150,543,
0,561,583,155,149,537,
0,555,575,153,147,529,
0,548,568,152,147,524,
0,542,611,151,153,518,
0,620,719,150,158,512,
0,611,705,148,156,506,
0,603,696,147,155,500,
0,595,685,147,153,496,
0,588,675,157,152,556,
0,580,666,156,152,548,
0,572,657,154,150,542,
0,564,648,153,148,534,
0,558,639,152,147,527,
0,551,641,151,163,522,
0,611,632,149,161,516,
0,603,622,148,159,511,
0,595,614,147,159,504,
0,587,606,146,158,518,
0,579,599,172,156,543,
0,572,591,170,155,536,
0,564,583,167,153,529,
0,557,577,167,152,521,
0,551,570,166,152,516,
0,543,602,164,179,510,
0,595,593,163,177,504,
0,587,583,161,175,499,
0,579,575,160,174,494,
0,572,569,159,172,536,
0,565,562,166,171,528,
0,558,556,164,169,523,
0,550,550,163,167,516,
0,543,543,161,167,509,
0,536,537,159,166,504,
0,548,586,159,171,497,
0,613,577,158,168,492,
0,605,568,156,167,487,
0,598,561,155,166,482,
0,590,555,181,165,543,
0,583,547,180,163,537,
0,575,540,179,162,531,
0,567,534,177,161,524,
0,560,527,176,159,517,
0,553,523,175,162,511,
0,600,615,173,167,505,
0,604,606,171,166,499,
0,595,595,169,164,495,
0,588,588,167,163,489,
0,581,580,172,161,526,
0,574,573,170,160,519,
0,567,566,168,159,513,
0,558,560,167,158,506,
0,551,552,166,156,500,
0,545,553,164,163,496,
0,597,608,163,161,489,
0,589,600,161,160,484,
0,582,590,160,159,480,
0,574,582,159,158,475,
0,568,575,195,156,527,
0,560,568,193,155,520,
0,553,560,192,154,515,
0,545,553,190,153,508,
0,539,547,188,152,502,
0,533,591,186,155,496,
0,588,583,184,153,491,
0,579,575,184,152,486,
0,572,566,182,151,480,
0,566,559,180,150,518,
0,559,551,179,148,536,
0,551,545,177,147,529,
0,545,539,176,146,524,
0,536,532,175,145,515,
0,531,526,173,144,510,
0,525,608,172,163,504,
0,599,600,170,162,499,
0,591,591,169,161,493,
0,583,582,167,159,487,
0,575,575,167,158,540,
0,568,568,174,156,534,
0,561,560,173,156,527,
0,555,553,172,154,521,
0,547,547,169,153,513,
0,540,540,167,152,508,
0,550,615,167,169,502,
0,601,606,166,167,496,
0,593,598,164,167,492,
0,585,588,163,164,486,
0,578,580,188,163,543,
0,571,573,185,161,537,
0,564,566,184,160,531,
0,557,559,183,159,524,
0,548,551,180,158,516,
0,543,555,179,163,511,
0,608,729,177,167,505,
0,600,718,176,165,499,
0,592,707,175,163,495,
0,584,695,174,162,489,
0,577,685,176,161,547,
0,570,675,174,159,540,
0,563,667,172,158,534,
0,555,657,171,157,527,
0,548,648,169,156,519,
0,542,639,167,174,515,
0,609,632,167,172,508,
0,600,624,165,171,503,
0,593,616,164,169,497,
0,585,607,163,167,492,
0,578,600,172,166,552,
0,571,591,171,164,546,
0,563,585,169,163,540,
0,556,578,167,162,533,
0,548,571,166,161,526,
0,543,568,165,172,519,
0,598,561,163,171,513,
0,590,555,162,169,508,
0,582,548,160,167,503,
0,575,541,159,167,556,
0,568,535,163,165,566,
0,560,529,161,163,558,
0,553,523,160,163,551,
0,545,518,159,161,545,
0,539,512,158,159,537,
0,534,608,156,175,531,
0,612,599,155,173,526,
0,604,591,154,172,519,
0,596,583,153,170,513,
0,589,574,160,167,569,
0,582,567,170,167,561,
0,575,560,167,166,555,
0,568,553,167,164,548,
0,559,546,166,163,542,
0,551,540,163,162,535,
0,566,693,162,164,527,
0,604,681,161,163,522,
0,596,671,159,161,516,
0,589,663,159,160,511,
0,582,652,161,159,557,
0,574,643,159,158,550,
0,568,634,158,156,543,
0,560,625,157,155,537,
0,551,617,156,154,531,
0,545,610,154,159,524,
0,622,667,153,167,518,
0,613,657,152,164,512,
0,605,648,151,163,506,
0,597,638,150,162,500,
0,590,629,159,160,540,
0,583,620,158,159,534,
0,575,612,156,158,527,
0,568,604,156,157,520,
0,560,598,153,156,515,
0,553,590,152,182,508,
0,624,583,152,180,502,
0,615,575,150,179,497,
0,608,569,149,177,492,
0,600,560,147,176,494,
0,591,554,156,174,544,
0,584,547,154,172,537,
0,577,541,153,171,531,
0,571,536,152,169,525,
0,562,529,151,168,519,
0,556,595,149,195,512,
0,632,586,147,192,507,
0,624,579,146,191,501,
0,615,571,145,190,496,
0,608,562,144,188,513,
0,600,555,161,185,507,
0,592,548,159,184,501,
0,585,542,158,183,496,
0,578,535,157,182,489,
0,569,528,156,180,485,
0,563,578,153,192,479,
0,638,569,152,189,473,
0,630,563,152,188,469,
0,621,556,150,186,463,
0,613,547,159,185,492,
0,606,540,163,183,486,
0,598,534,161,182,480,
0,590,527,159,180,475,
0,583,521,158,179,470,
0,575,515,156,185,465,
0,611,534,155,207,459,
0,636,527,153,205,455,
0,628,519,152,204,450,
0,620,514,152,201,446,
0,611,507,152,199,487,
0,604,502,152,198,482,
0,596,496,150,196,476,
0,589,491,149,195,472,
0,582,486,147,193,466,
0,574,481,147,195,461,
0,664,543,145,196,455,
0,653,536,144,195,450,
0,644,529,143,193,446,
0,636,523,142,192,441,
0,628,515,159,190,482,
0,620,509,158,188,476,
0,611,503,156,187,472,
0,604,497,156,185,466,
0,596,492,154,184,461,
0,588,563,152,199,455,
0,654,600,152,196,450,
0,644,591,150,195,445,
0,636,584,148,193,440,
0,627,576,147,192,438,
0,620,568,156,190,470,
0,611,561,153,188,463,
0,604,554,152,187,459,
0,596,547,152,185,454,
0,589,540,150,184,449,
0,580,599,148,201,445,
0,638,590,147,199,439,
0,629,582,146,198,435,
0,621,574,145,196,431,
0,612,567,143,195,463,
0,605,558,165,192,457,
0,598,551,163,192,452,
0,590,544,162,190,448,
0,583,537,160,188,443,
0,575,531,159,187,438,
0,568,551,158,193,433,
0,639,543,156,192,428,
0,632,537,155,190,423,
0,624,531,153,188,420,
0,615,524,167,187,480,
0,608,517,167,185,473,
0,600,511,165,184,468,
0,592,505,163,183,463,
0,585,500,162,180,457,
0,578,495,161,187,454,
0,624,523,159,206,448,
0,638,515,158,204,443,
0,628,510,157,202,438,
0,620,504,156,199,433,
0,612,497,167,199,465,
0,605,491,165,197,460,
0,598,485,163,195,455,
0,590,480,162,193,449,
0,583,476,161,192,445,
0,575,471,159,222,440,
0,658,540,158,220,435,
0,647,534,157,219,430,
0,639,527,156,216,426,
0,632,519,155,215,422,
0,624,514,160,213,463,
0,615,506,159,211,456,
0,608,500,158,209,452,
0,600,495,156,207,447,
0,592,489,155,206,442,
0,585,557,154,224,438,
0,641,621,152,222,432,
0,632,612,152,220,428,
0,624,604,177,218,423,
0,615,595,176,216,446,
0,608,588,174,215,459,
0,600,579,173,212,454,
0,593,572,171,211,449,
0,585,564,169,209,444,
0,579,558,168,207,440,
0,572,630,167,216,435,
0,635,620,166,215,429,
0,625,611,163,212,425,
0,617,604,163,211,420,
0,609,595,161,209,443,
0,601,588,175,207,438,
0,594,578,172,206,432,
0,587,571,171,204,428,
0,579,564,169,202,423,
0,573,558,167,201,419,
0,567,589,167,227,415,
0,619,580,165,225,411,
0,611,573,164,224,408,
0,603,566,163,222,403,
0,595,559,163,220,451,
0,588,551,162,217,446,
0,580,543,160,216,441,
0,574,537,159,214,436,
0,567,531,158,212,432,
0,560,526,157,222,428,
0,563,646,156,234,423,
0,631,636,153,231,417,
0,622,627,152,230,413,
0,614,620,152,227,409,
0,607,611,161,226,462,
0,599,603,159,224,455,
0,591,593,158,222,451,
0,583,586,157,220,447,
0,577,579,156,219,441,
0,570,572,154,224,437,
0,625,637,153,225,432,
0,635,627,152,224,427,
0,627,620,152,222,423,
0,618,611,151,220,419,
0,611,603,155,217,460,
0,603,595,153,216,455,
0,595,585,152,214,450,
0,588,579,151,212,445,
0,580,572,150,211,440,
0,574,627,148,238,436,
0,620,632,147,235,432,
0,612,624,146,233,426,
0,604,615,150,231,422,
0,596,608,147,229,447,
0,589,600,162,227,449,
0,582,591,161,225,444,
0,575,583,159,223,440,
0,568,575,158,221,435,
0,561,568,157,220,430,
0,555,601,156,222,425,
0,619,592,154,220,421,
0,611,584,152,217,415,
0,603,577,152,216,412,
0,595,569,151,215,446,
0,588,563,159,212,440,
0,580,556,159,211,435,
0,574,547,157,209,431,
0,567,541,156,207,427,
0,560,535,155,206,422,
0,553,595,153,225,418,
0,622,585,152,224,414,
0,614,577,151,222,408,
0,606,571,150,220,404,
0,598,563,166,218,444,
0,590,556,164,216,440,
0,583,550,163,215,434,
0,575,541,161,212,430,
0,568,535,159,211,424,
0,562,528,159,211,420,
0,568,568,158,214,416,
0,625,560,156,212,412,
0,617,553,155,211,408,
0,608,546,153,209,403,
0,601,540,159,207,454,
0,593,533,157,206,448,
0,586,527,156,204,444,
0,579,519,155,202,439,
0,572,513,153,200,434,
0,566,551,152,221,430,
0,632,659,151,219,424,
0,647,649,149,217,420,
0,639,639,152,216,415,
0,630,632,152,214,412,
0,622,623,152,211,449,
0,614,615,151,210,444,
0,607,605,149,208,440,
0,600,598,147,206,435,
0,591,590,147,204,431,
0,584,663,145,206,427,
0,611,659,144,204,422,
0,600,650,143,202,417,
0,592,641,147,200,412,
0,585,632,145,199,454,
0,577,624,158,198,449,
0,571,615,156,196,444,
0,564,606,155,195,440,
0,558,599,153,193,435,
0,551,591,152,192,430,
0,545,648,152,206,425,
0,625,639,150,204,420,
0,615,631,149,203,417,
0,607,622,147,201,412,
0,600,614,153,199,462,
0,591,606,172,198,455,
0,584,598,171,196,451,
0,577,588,169,195,446,
0,570,581,167,193,440,
0,563,574,167,192,436,
0,557,590,165,222,432,
0,639,581,163,219,427,
0,627,574,162,217,423,
0,620,567,161,216,417,
0,611,560,161,214,466,
0,604,553,160,211,460,
0,596,547,159,210,455,
0,589,539,158,208,451,
0,582,533,156,207,446,
0,575,527,156,206,441,
0,569,603,154,211,436,
0,615,595,152,209,432,
0,605,587,162,207,428,
0,598,579,160,206,422,
0,591,572,176,204,467,
0,583,564,175,203,461,
0,575,558,173,201,455,
0,568,549,172,199,451,
0,561,543,171,198,447,
0,556,560,169,217,441,
0,630,595,167,216,436,
0,624,587,167,214,432,
0,614,579,166,212,428,
0,606,572,164,211,428,
0,598,564,163,209,467,
0,590,558,162,207,462,
0,583,551,161,206,455,
0,575,542,159,204,451,
0,568,536,158,202,447,
0,563,566,157,205,442,
0,632,558,156,203,438,
0,623,550,155,201,432,
0,613,543,156,199,428,
0,605,536,154,199,467,
0,598,530,160,197,461,
0,590,524,159,195,455,
0,583,518,158,194,451,
0,575,511,156,193,446,
0,568,505,155,191,441,
0,563,609,153,208,436,
0,636,600,152,207,432,
0,627,592,152,205,428,
0,615,584,158,204,423,
0,608,577,158,202,460,
0,600,569,157,199,454,
0,593,563,156,199,449,
0,585,556,155,197,444,
0,579,547,153,195,440,
0,572,541,152,195,435,
0,565,650,151,223,431,
0,654,639,150,220,425,
0,644,632,148,219,422,
0,634,623,147,216,417,
0,625,614,163,215,460,
0,617,606,162,213,455,
0,610,599,161,211,449,
0,603,591,159,210,445,
0,595,582,158,207,440,
0,588,575,156,218,435,
0,591,651,156,227,431,
0,634,641,154,225,427,
0,625,633,155,223,422,
0,615,624,153,221,418,
0,608,615,158,220,473,
0,600,608,157,217,468,
0,592,600,156,216,463,
0,585,591,155,214,457,
0,578,583,153,212,452,
0,572,636,152,223,448,
0,647,665,151,220,444,
0,638,655,150,219,439,
0,629,647,149,216,434,
0,619,638,147,215,439,
0,611,630,152,214,463,
0,603,621,152,211,459,
0,595,613,150,210,454,
0,588,605,148,207,448,
0,581,595,147,206,444,
0,574,589,146,219,440,
0,623,582,145,216,435,
0,614,574,144,215,430,
0,606,568,145,213,426,
0,596,560,143,211,456,
0,588,554,152,209,451,
0,582,547,151,207,446,
0,575,541,149,206,441,
0,568,536,147,204,436,
0,561,527,147,203,432,
0,555,590,145,222,428,
0,625,582,144,220,423,
0,615,574,143,219,419,
0,608,567,143,216,415,
0,599,560,150,215,444,
0,591,552,153,213,440,
0,583,545,152,211,435,
0,577,539,151,209,430,
0,569,533,149,207,425,
0,563,525,147,207,422,
0,556,627,147,217,416,
0,636,617,145,216,412,
0,627,609,144,214,408,
0,620,600,145,212,404,
0,610,593,155,211,454,
0,602,585,153,209,448,
0,595,577,152,207,443,
0,587,571,151,206,438,
0,580,563,150,204,433,
0,573,606,148,233,429,
0,615,655,147,238,424,
0,646,646,145,236,420,
0,636,637,145,233,415,
0,628,628,143,231,412,
0,619,620,154,230,443,
0,611,611,152,227,438,
0,603,604,152,226,433,
0,595,596,151,224,428,
0,588,589,149,223,423,
0,582,699,147,228,420,
0,667,789,147,226,415,
0,656,775,145,224,412,
0,647,764,144,222,408,
0,639,752,143,220,403,
0,628,742,167,219,444,
0,620,731,167,217,439,
0,612,720,166,216,433,
0,605,711,164,214,430,
0,598,700,163,212,425,
0,591,689,161,227,420,
0,629,679,159,225,415,
0,620,671,159,224,412,
0,612,662,158,222,408,
0,603,654,156,220,403,
0,595,646,155,218,406,
0,588,637,153,216,402,
0,580,630,152,215,399,
0,574,622,151,214,395,
0,568,614,150,211,391,
0,561,605,148,228,388,
0,651,598,147,226,385,
0,641,591,146,224,382,
0,633,583,145,223,379,
0,623,577,144,220,415,
0,615,570,143,219,408,
0,607,563,143,217,403,
0,600,558,141,216,399,
0,591,551,140,214,396,
0,584,545,139,211,391,
0,579,643,138,230,387,
0,645,633,137,228,384,
0,636,624,135,226,380,
0,627,615,135,224,377,
0,617,608,141,223,390,
0,609,600,141,220,385,
0,602,592,140,219,381,
0,595,584,139,217,377,
0,587,577,137,216,374,
0,580,571,136,215,371,
0,627,655,135,229,368,
0,645,646,135,227,365,
0,636,636,134,225,362,
0,627,627,132,223,359,
0,617,620,136,222,407,
0,609,611,135,220,401,
0,603,604,134,218,397,
0,595,595,133,216,393,
0,588,588,132,215,389,
0,580,582,131,243,385,
0,625,595,130,241,382,
0,617,588,129,240,377,
0,608,579,129,238,374,
0,600,572,129,236,371,
0,591,566,137,233,411,
0,583,559,135,231,406,
0,577,551,135,230,401,
0,570,546,134,228,397,
0,563,540,132,226,393,
0,557,625,131,233,390,
0,638,615,130,231,385,
0,629,608,129,228,382,
0,620,600,131,227,377,
0,612,591,130,225,389,
0,603,583,142,223,414,
0,595,575,140,221,408,
0,588,569,140,220,403,
0,580,562,138,218,399,
0,574,555,137,216,396,
0,568,687,135,224,391,
0,627,675,135,222,387,
0,619,666,134,220,384,
0,611,656,139,217,380,
0,602,647,137,216,414,
0,593,639,140,215,408,
0,585,631,139,213,403,
0,579,623,137,211,399,
0,572,615,135,209,395,
0,565,607,135,207,391,
0,560,649,134,228,387,
0,625,639,133,225,384,
0,616,632,131,224,380,
0,609,623,131,222,376,
0,600,615,151,220,419,
0,591,607,150,218,414,
0,583,600,148,216,408,
0,577,591,147,215,404,
0,569,583,145,212,399,
0,563,577,144,216,396,
0,631,666,143,233,391,
0,642,656,142,231,388,
0,633,647,141,229,384,
0,625,638,140,227,380,
0,617,630,143,225,423,
0,608,622,142,224,419,
0,600,614,141,222,413,
0,592,606,140,220,408,
0,585,598,139,219,404,
0,578,591,137,230,400,
0,649,636,136,228,396,
0,639,627,135,225,391,
0,632,618,135,224,388,
0,624,609,134,222,385,
0,615,601,143,220,421,
0,606,594,142,219,416,
0,598,587,141,216,411,
0,591,579,140,215,407,
0,583,572,139,213,403,
0,577,611,137,237,399,
0,632,606,135,234,395,
0,624,598,135,231,391,
0,615,591,136,230,387,
0,608,583,135,228,408,
0,600,575,143,226,421,
0,591,568,142,224,416,
0,583,561,140,223,411,
0,575,555,140,220,407,
0,569,548,139,219,403,
0,563,625,137,230,399,
0,646,614,135,227,395,
0,637,605,135,225,391,
0,628,598,135,224,387,
0,620,590,135,222,431,
0,612,582,146,220,425,
0,603,575,144,218,420,
0,595,568,143,216,415,
0,588,560,142,215,411,
0,580,553,141,214,408,
0,575,731,140,224,403,
0,625,716,139,221,399,
0,616,705,138,219,395,
0,608,695,137,217,391,
0,600,686,151,216,398,
0,593,675,149,214,394,
0,583,667,147,212,390,
0,577,657,146,211,385,
0,570,648,145,209,382,
0,563,639,143,216,378,
0,626,674,143,224,375,
0,623,662,141,222,371,
0,615,652,140,220,368,
0,607,643,139,217,364,
0,600,636,140,216,404,
0,591,627,139,214,400,
0,582,619,137,212,396,
0,575,611,135,211,391,
0,568,604,135,209,387,
0,561,629,134,215,384,
0,635,699,133,213,380,
0,625,686,132,211,376,
0,617,676,131,209,372,
0,609,667,130,207,369,
0,601,657,137,206,409,
0,594,648,135,204,406,
0,585,639,135,203,399,
0,578,632,133,201,396,
0,571,624,132,199,391,
0,564,667,131,235,388,
0,632,657,130,231,384,
0,624,646,129,230,380,
0,615,636,127,227,377,
0,608,627,127,225,398,
0,600,620,138,224,409,
0,592,611,137,222,404,
0,583,604,135,220,399,
0,575,596,135,218,396,
0,569,589,134,216,391,
0,563,667,132,217,387,
0,625,656,131,216,384,
0,616,646,130,214,380,
0,609,636,129,212,376,
0,600,628,128,210,414,
0,593,620,127,209,408,
0,585,611,127,207,404,
0,577,604,126,206,399,
0,570,596,124,204,395,
0,563,588,124,203,391,
0,588,760,123,225,387,
0,638,746,122,223,384,
0,629,732,121,220,380,
0,621,721,121,219,376,
0,613,711,158,216,398,
0,605,701,155,216,393,
0,598,691,153,214,390,
0,588,681,152,211,384,
0,581,673,151,210,380,
0,574,664,150,221,377,
0,641,725,148,231,374,
0,633,713,147,229,369,
0,625,701,146,227,367,
0,616,691,145,225,363,
0,609,681,161,223,385,
0,601,671,159,222,381,
0,593,664,158,220,377,
0,584,655,156,217,372,
0,577,646,155,216,369,
0,571,639,153,221,366,
0,633,664,152,220,361,
0,624,654,152,217,359,
0,616,643,151,216,356,
0,608,635,149,214,353,
0,600,626,150,212,395,
0,593,618,148,210,390,
0,585,611,147,208,386,
0,576,603,145,207,381,
0,569,595,144,205,377,
0,563,719,143,235,374,
0,649,739,142,231,369,
0,639,728,141,231,366,
0,632,714,140,227,363,
0,623,704,140,227,406,
0,615,694,155,224,409,
0,608,684,153,222,404,
0,598,675,152,221,400,
0,591,665,151,219,396,
0,583,657,150,217,391,
0,576,684,148,224,387,
0,647,673,147,222,384,
0,638,664,146,220,380,
0,629,652,145,218,376,
0,620,644,145,216,419,
0,613,636,147,215,415,
0,605,627,146,212,411,
0,595,620,145,211,406,
0,588,611,143,209,400,
0,582,604,143,207,397,
0,591,729,141,212,392,
0,629,717,140,211,388,
0,621,707,139,209,385,
0,612,694,138,207,382,
0,605,684,155,205,425,
0,598,674,153,204,419,
0,590,665,152,203,415,
0,581,656,150,200,412,
0,574,647,148,199,406,
0,568,660,147,199,403,
0,662,781,146,204,398,
0,651,768,145,203,393,
0,643,754,143,201,391,
0,633,743,143,199,386,
0,625,732,165,198,388,
0,617,721,163,195,384,
0,609,711,162,195,381,
0,600,701,160,193,377,
0,592,691,159,192,373,
0,585,683,158,203,369,
0,632,673,156,201,366,
0,624,664,155,199,363,
0,615,655,153,198,359,
0,608,646,152,196,371,
0,600,637,158,195,417,
0,591,630,157,193,413,
0,584,622,156,192,408,
0,575,614,154,190,404,
0,569,607,152,188,399,
0,563,631,152,220,395,
0,624,621,150,217,391,
0,615,612,148,216,387,
0,608,603,147,214,384,
0,600,595,147,211,440,
0,592,588,155,209,435,
0,585,581,153,207,430,
0,578,575,152,206,425,
0,569,568,151,204,421,
0,563,561,149,203,415,
0,556,667,147,209,412,
0,627,656,147,207,408,
0,619,647,145,206,403,
0,611,636,144,204,399,
0,603,628,145,201,453,
0,595,620,145,199,448,
0,588,611,144,199,442,
0,581,604,143,197,438,
0,572,595,142,195,433,
0,566,588,140,195,428,
0,600,628,140,195,423,
0,622,620,139,193,419,
0,614,611,137,192,415,
0,606,600,137,191,411,
0,598,593,147,189,449,
0,590,585,146,188,444,
0,583,578,145,186,440,
0,575,571,143,184,435,
0,567,564,143,184,430,
0,560,558,141,187,424,
0,636,557,140,187,420,
0,627,550,139,185,415,
0,619,543,141,184,412,
0,610,536,140,183,408,
0,603,531,155,180,406,
0,595,525,153,179,401,
0,588,519,152,178,398,
0,580,514,151,177,394,
0,572,508,149,176,390,
0,565,526,148,194,385,
0,635,527,147,192,382,
0,626,519,145,191,379,
0,618,513,145,189,376,
0,610,505,143,188,398,
0,602,500,156,185,432,
0,595,496,155,184,427,
0,588,491,153,183,423,
0,580,486,152,181,418,
0,572,480,151,179,414,
0,565,591,150,199,408,
0,628,583,148,198,404,
0,620,575,147,196,400,
0,612,568,146,195,396,
0,604,558,144,193,449,
0,596,551,152,191,443,
0,589,545,151,190,439,
0,582,538,148,188,433,
0,575,531,147,186,429,
0,566,526,146,185,424,
0,560,603,145,196,419,
0,614,594,143,195,415,
0,606,585,149,193,411,
0,598,579,150,192,407,
0,590,569,154,190,460,
0,583,562,152,188,455,
0,575,556,152,187,450,
0,568,548,150,184,446,
0,562,542,148,184,440,
0,553,536,147,184,436,
0,606,596,146,201,430,
0,615,588,145,199,425,
0,608,580,154,198,422,
0,600,572,154,196,417,
0,591,563,166,195,455,
0,585,556,163,193,450,
0,577,550,162,192,445,
0,571,543,160,190,440,
0,564,536,159,188,435,
0,556,547,158,192,432,
0,624,644,156,191,425,
0,615,635,155,189,422,
0,608,626,164,188,417,
0,600,617,163,186,413,
0,592,608,167,184,457,
0,584,600,165,183,452,
0,577,591,163,182,448,
0,571,584,162,180,443,
0,563,577,160,179,438,
0,556,630,159,195,433,
0,621,648,158,193,428,
0,612,639,156,192,423,
0,604,631,166,190,419,
0,596,622,164,188,446,
0,589,611,171,187,457,
0,582,604,169,185,452,
0,575,596,167,184,448,
0,568,588,166,183,443,
0,561,582,164,181,438,
0,553,592,163,194,433,
0,615,583,161,192,428,
0,608,575,160,191,423,
0,600,569,159,189,419,
0,591,563,158,188,455,
0,583,555,163,185,450,
0,577,547,161,184,445,
0,570,542,159,183,440,
0,563,536,159,181,435,
0,556,529,158,179,432,
0,557,696,156,198,425,
0,620,684,155,195,422,
0,611,674,153,194,417,
0,604,664,152,192,413,
0,596,655,154,191,462,
0,588,644,152,189,456,
0,581,636,152,188,451,
0,574,627,150,186,447,
0,568,620,150,184,441,
0,560,611,148,184,438,
0,610,655,147,194,432,
0,615,646,145,192,427,
0,608,636,145,191,423,
0,600,627,143,189,419,
0,591,620,149,188,464,
0,584,609,147,185,459,
0,577,601,146,184,454,
0,570,594,145,183,449,
0,563,587,143,181,444,
0,556,580,143,184,440,
0,624,583,142,184,433,
0,615,577,140,183,429,
0,608,570,140,181,425,
0,600,563,139,179,420,
0,593,557,150,178,472,
0,585,548,148,176,466,
0,577,543,147,175,460,
0,571,536,145,174,455,
0,564,530,144,172,451,
0,558,585,143,191,447,
0,626,585,142,189,440,
0,617,577,141,187,436,
0,609,571,140,185,432,
0,601,563,139,184,455,
0,594,556,140,183,474,
0,586,547,139,181,468,
0,579,541,137,179,463,
0,572,535,136,178,459,
0,566,527,135,176,454,
0,559,690,135,195,449,
0,647,678,134,192,443,
0,639,668,132,191,438,
0,631,659,132,190,433,
0,622,649,135,188,475,
0,615,641,161,186,468,
0,607,631,159,184,463,
0,600,622,159,183,459,
0,591,614,158,182,454,
0,584,606,156,180,449,
0,579,628,155,198,444,
0,623,620,153,195,439,
0,615,611,152,194,434,
0,607,603,151,192,430,
0,599,595,156,191,461,
0,591,588,155,189,455,
0,583,579,153,188,451,
0,577,572,152,186,446,
0,569,566,151,184,441,
0,563,559,150,195,436,
0,622,595,148,201,432,
0,614,586,147,199,427,
0,606,579,145,198,423,
0,598,571,144,196,418,
0,590,564,153,195,448,
0,583,557,152,193,444,
0,575,548,151,191,439,
0,568,543,150,190,434,
0,561,536,148,188,430,
0,555,548,147,198,425,
0,639,595,145,196,420,
0,631,587,143,195,415,
0,623,579,147,193,412,
0,615,572,145,192,408,
0,607,564,158,190,448,
0,599,558,157,188,443,
0,591,548,156,187,438,
0,583,542,154,185,433,
0,577,536,152,184,428,
0,570,606,152,201,424,
0,622,606,150,199,420,
0,614,598,148,198,415,
0,606,590,150,196,411,
0,598,583,147,195,450,
0,590,575,148,193,451,
0,583,568,147,192,446,
0,575,559,146,190,440,
0,568,551,145,188,436,
0,562,545,143,187,432,
0,556,588,143,190,427,
0,608,580,142,188,423,
0,600,572,140,186,417,
0,591,565,142,184,414,
0,583,558,143,184,457,
0,577,551,148,182,451,
0,570,543,147,180,447,
0,563,536,146,179,441,
0,556,530,145,177,437,
0,550,524,143,176,433,
0,543,622,143,193,428,
0,619,612,141,192,423,
0,610,604,140,190,419,
0,603,596,139,188,414,
0,595,588,163,187,462,
0,588,580,161,185,456,
0,580,572,159,184,451,
0,573,564,158,182,447,
0,566,558,156,180,441,
0,559,551,156,199,438,
0,558,671,154,204,432,
0,590,663,153,203,428,
0,583,653,152,201,423,
0,575,644,150,199,419,
0,568,636,155,198,463,
0,561,627,153,196,457,
0,554,617,152,195,452,
0,547,609,151,192,448,
0,542,601,150,191,443,
0,536,606,148,190,438,
0,613,628,147,189,433,
0,602,620,146,188,429,
0,594,611,144,185,423,
0,587,604,143,184,419,
0,579,595,157,184,465,
0,572,588,156,182,460,
0,566,579,153,180,455,
0,559,572,152,179,449,
0,551,565,152,177,445,
0,545,642,150,184,440,
0,625,632,149,182,435,
0,615,624,147,180,431,
0,606,615,146,179,425,
0,598,607,145,177,470,
0,591,599,149,176,467,
0,583,591,147,175,462,
0,575,582,147,173,455,
0,569,575,145,172,451,
0,563,568,144,170,448,
0,556,637,143,172,442,
0,606,627,142,170,438,
0,596,619,140,169,433,
0,588,611,141,167,428,
0,581,603,143,167,483,
0,574,595,148,166,477,
0,567,588,147,164,472,
0,560,578,146,163,467,
0,553,571,145,162,462,
0,547,564,143,161,457,
0,540,625,143,163,451,
0,609,615,142,161,447,
0,599,608,140,159,443,
0,591,600,140,159,436,
0,583,591,148,158,488,
0,575,583,147,157,483,
0,569,576,145,156,478,
0,563,568,144,155,472,
0,556,561,143,153,467,
0,549,555,142,166,462,
0,583,619,141,166,457,
0,620,610,140,164,452,
0,609,602,145,163,448,
0,601,594,143,161,441,
0,594,587,153,160,455,
0,587,579,152,159,451,
0,579,572,151,158,446,
0,572,563,150,156,441,
0,566,556,148,156,436,
0,559,591,147,173,432,
0,630,639,145,171,428,
0,620,630,144,169,423,
0,609,621,143,167,419,
0,601,612,142,167,432,
0,594,604,161,165,467,
0,587,597,159,163,462,
0,579,589,158,163,456,
0,572,580,157,161,451,
0,566,573,156,159,448,
0,559,614,154,172,443,
0,622,604,153,171,438,
0,612,596,152,168,433,
0,603,588,151,167,429,
0,595,580,149,166,476,
0,588,573,156,165,470,
0,580,567,155,163,465,
0,573,560,153,162,460,
0,566,551,152,160,455,
0,560,544,151,159,450,
0,553,600,150,163,445,
0,624,591,148,161,440,
0,615,583,147,160,436,
0,606,575,147,159,432,
0,598,568,157,158,481,
0,591,561,159,156,475,
0,583,554,158,156,470,
0,575,547,156,154,464,
0,569,540,156,152,459,
0,562,534,154,159,455,
0,556,641,152,173,449,
0,626,632,152,171,445,
0,617,623,150,169,440,
0,608,615,149,168,435,
0,600,607,164,167,489,
0,591,599,162,166,483,
0,584,591,161,164,478,
0,577,583,159,163,472,
0,571,574,158,161,467,
0,563,605,157,162,463,
0,605,718,156,161,457,
0,625,707,155,159,452,
0,617,697,153,158,448,
0,607,687,152,157,442,
0,600,678,169,156,486,
0,591,668,167,155,480,
0,584,659,166,153,475,
0,577,651,164,152,469,
0,571,639,163,151,463,
0,563,671,162,174,460,
0,636,670,160,172,454,
0,627,660,159,171,449,
0,618,652,158,169,445,
0,608,643,157,167,462,
0,600,634,164,166,487,
0,592,626,163,164,482,
0,585,618,161,163,476,
0,578,610,159,162,472,
0,571,601,159,161,466,
0,564,594,157,172,462,
0,611,587,156,171,456,
0,603,579,155,169,451,
0,595,573,153,167,448,
0,585,566,152,167,502,
0,578,560,165,165,495,
0,571,553,163,163,489,
0,563,547,162,163,483,
0,557,540,160,161,479,
0,551,534,159,159,473,
0,544,588,158,171,468,
0,598,579,157,169,463,
0,590,572,156,167,459,
0,583,564,154,167,454,
0,573,558,160,166,497,
0,566,551,159,163,492,
0,559,543,158,163,486,
0,552,537,156,161,481,
0,545,531,155,159,476,
0,540,524,153,161,471,
0,536,584,152,167,465,
0,612,575,152,167,460,
0,604,568,150,165,455,
0,595,561,149,163,451,
0,588,555,153,163,499,
0,579,547,152,161,493,
0,572,540,151,159,487,
0,566,535,149,159,482,
0,559,527,147,158,477,
0,552,521,147,179,472,
0,588,581,145,179,467,
0,609,573,144,178,462,
0,601,566,143,177,457,
0,591,559,143,175,452,
0,584,551,167,174,492,
0,577,544,167,172,487,
0,569,538,165,171,481,
0,563,531,164,169,476,
0,556,526,163,167,471,
0,550,577,161,189,465,
0,621,577,159,188,460,
0,612,569,158,185,455,
0,604,562,157,184,451,
0,594,555,156,183,447,
0,587,548,175,181,492,
0,579,542,172,179,487,
0,572,536,172,178,481,
0,566,528,169,177,476,
0,559,523,167,176,471,
0,553,587,167,186,466,
0,624,578,166,184,461,
0,615,570,164,183,455,
0,607,563,163,181,451,
0,598,556,161,179,463,
0,590,549,163,178,486,
0,583,542,162,177,480,
0,575,536,160,176,475,
0,568,529,159,174,470,
0,561,523,158,173,465,
0,555,616,157,186,460,
0,614,607,156,184,455,
0,606,599,155,183,450,
0,598,591,153,181,446,
0,588,583,152,179,467,
0,581,575,155,178,461,
0,574,569,153,177,455,
0,567,561,152,176,451,
0,560,555,152,174,446,
0,553,547,150,173,441,
0,553,671,148,192,437,
0,622,660,147,190,432,
0,614,651,147,189,428,
0,606,642,145,188,423,
0,596,633,153,185,465,
0,588,625,152,184,459,
0,582,617,151,183,454,
0,574,609,150,182,449,
0,568,601,148,179,444,
0,561,594,147,180,440,
0,609,636,145,183,435,
0,612,627,144,182,430,
0,605,619,144,179,426,
0,597,610,143,178,422,
0,588,603,153,177,434,
0,580,595,152,176,428,
0,573,587,150,174,423,
0,566,580,149,173,419,
0,559,573,147,172,415,
0,553,598,147,191,412,
0,614,589,145,189,408,
0,605,582,144,188,403,
0,597,574,143,185,399,
0,590,567,142,184,396,
0,580,560,146,183,440,
0,573,553,144,182,434,
0,566,547,143,180,430,
0,560,540,142,179,424,
0,552,535,141,177,420,
0,547,615,140,198,416,
0,620,605,139,195,412,
0,611,596,137,193,408,
0,604,589,136,192,404,
0,595,581,135,191,437,
0,587,574,154,188,455,
0,579,567,152,187,449,
0,572,560,152,185,444,
0,565,553,150,184,440,
0,558,546,148,183,435,
0,551,585,147,190,430,
0,620,577,147,187,425,
0,611,570,145,185,422,
0,604,563,144,184,417,
0,596,556,143,183,471,
0,587,549,158,181,464,
0,579,542,156,179,458,
0,572,536,155,179,453,
0,566,529,153,177,448,
0,559,524,152,176,444,
0,582,632,151,184,440,
0,639,623,150,184,435,
0,632,615,148,182,430,
0,623,606,147,180,425,
0,615,599,152,179,472,
0,605,591,150,177,467,
0,598,583,149,176,460,
0,590,575,147,175,455,
0,583,569,146,174,451,
0,575,562,145,178,446,
0,643,785,143,181,441,
0,636,772,143,179,436,
0,627,760,158,177,432,
0,619,749,156,176,428,
0,611,738,157,175,475,
0,601,728,155,173,470,
0,593,717,153,172,463,
0,587,707,152,171,457,
0,579,697,152,169,453,
0,572,688,151,195,448,
0,652,714,149,193,444,
0,643,704,147,192,439,
0,634,693,147,190,435,
0,625,684,145,188,430,
0,618,674,156,187,487,
0,608,665,153,185,481,
0,600,657,152,184,475,
0,593,648,151,183,470,
0,585,639,150,181,464,
0,579,699,148,192,460,
0,632,685,147,189,455,
0,623,675,146,188,450,
0,615,666,145,186,445,
0,607,656,143,184,484,
0,600,647,146,183,497,
0,590,639,145,182,491,
0,583,632,143,180,483,
0,575,624,142,179,479,
0,568,615,141,177,473,
0,563,608,140,195,468,
0,616,599,139,193,463,
0,608,591,138,192,459,
0,600,585,137,190,454,
0,593,578,138,188,500,
0,585,572,146,187,495,
0,576,565,144,185,487,
0,569,559,143,184,482,
0,563,551,142,183,477,
0,556,546,141,182,472,
0,578,614,140,197,467,
0,617,603,139,195,462,
0,608,595,137,193,457,
0,601,587,137,191,452,
0,593,579,147,190,485,
0,585,572,145,188,480,
0,576,564,144,187,472,
0,569,558,143,185,467,
0,563,551,142,184,463,
0,556,544,140,185,457,
0,624,587,139,192,452,
0,615,577,138,190,448,
0,607,569,137,188,444,
0,600,563,135,187,440,
0,591,556,156,185,483,
0,583,548,154,184,477,
0,575,542,152,183,470,
0,568,536,151,181,465,
0,561,530,150,179,460,
0,555,560,148,206,455,
0,628,620,147,203,451,
0,619,609,145,201,446,
0,611,600,147,199,441,
0,603,592,146,198,440,
0,595,585,159,196,487,
0,588,578,159,195,481,
0,579,571,157,193,475,
0,572,563,156,192,470,
0,565,556,154,190,464,
0,559,628,153,214,460,
0,647,620,152,211,455,
0,638,608,151,209,450,
0,630,600,151,207,445,
0,621,592,150,205,498,
0,613,584,150,204,494,
0,605,577,148,201,487,
0,595,571,147,199,481,
0,588,563,145,199,476,
0,582,556,144,197,472,
0,575,595,143,201,465,
0,636,586,142,199,460,
0,627,576,141,198,455,
0,620,569,140,196,451,
0,611,562,151,194,447,
0,604,555,158,193,442,
0,595,548,156,192,438,
0,587,542,155,190,432,
0,579,536,153,188,428,
0,572,529,152,188,423,
0,601,635,151,201,419,
0,632,625,150,199,415,
0,624,615,148,198,412,
0,615,606,147,196,408,
0,608,599,166,195,467,
0,600,591,163,193,462,
0,591,583,162,192,456,
0,583,575,160,190,451,
0,576,569,159,188,446,
0,569,568,158,204,441,
0,636,704,156,205,436,
0,627,692,155,203,432,
0,619,679,154,201,428,
0,611,671,152,199,423,
0,603,662,156,198,487,
0,595,652,156,196,481,
0,585,643,154,195,476,
0,579,636,152,193,470,
0,572,627,152,192,463,
0,566,644,150,207,460,
0,628,664,148,205,455,
0,620,654,147,203,449,
0,611,643,148,201,445,
0,603,634,147,199,453,
0,595,625,147,198,494,
0,588,617,145,196,487,
0,579,609,144,195,483,
0,572,601,143,193,476,
0,565,595,142,192,472,
0,559,639,140,204,466,
0,624,631,140,201,461,
0,615,622,138,199,455,
0,608,611,137,198,451,
0,600,604,137,196,492,
0,591,595,161,194,486,
0,584,588,159,192,480,
0,575,580,159,191,475,
0,568,574,157,190,468,
0,561,568,156,188,463,
0,556,644,155,198,458,
0,618,635,153,196,454,
0,609,625,152,195,448,
0,601,615,151,193,444,
0,594,608,163,191,478,
0,587,599,162,190,472,
0,579,591,161,188,467,
0,571,583,159,187,462,
0,563,576,158,185,455,
0,557,569,156,184,451,
0,615,721,155,195,447,
0,641,710,153,193,441,
0,632,696,159,192,438,
0,624,687,158,190,433,
0,616,677,159,188,473,
0,608,668,158,187,468,
0,600,659,156,185,463,
0,591,650,156,184,458,
0,583,641,153,182,451,
0,577,636,152,188,448,
0,643,781,152,186,443,
0,633,768,150,184,438,
0,625,753,152,184,433,
0,617,743,150,181,429,
0,609,732,172,179,467,
0,601,721,171,179,462,
0,594,711,169,177,456,
0,585,701,167,176,451,
0,578,691,166,175,446,
0,572,685,164,204,441,
0,639,675,163,201,436,
0,630,667,161,199,432,
0,622,655,161,198,428,
0,614,647,159,196,425,
0,606,639,160,195,444,
0,598,632,159,193,439,
0,591,623,158,192,433,
0,582,615,156,190,430,
0,575,608,155,188,423,
0,568,622,153,193,419,
0,623,612,152,192,415,
0,615,604,152,190,412,
0,607,595,153,188,408,
0,599,588,152,187,452,
0,591,582,159,185,447,
0,583,575,158,184,441,
0,577,568,157,183,436,
0,568,561,155,181,432,
0,561,555,153,179,427,
0,558,620,152,187,422,
0,622,611,152,185,417,
0,614,603,150,184,414,
0,606,593,148,182,409,
0,598,585,166,180,415,
0,591,577,164,179,409,
0,583,571,163,177,406,
0,575,563,161,176,401,
0,568,557,159,175,398,
0,560,550,159,184,393,
0,619,636,157,199,390,
0,630,626,156,199,387,
0,621,617,155,197,384,
0,613,607,153,195,380,
0,606,600,155,193,443,
0,598,591,153,192,437,
0,590,583,152,190,432,
0,583,575,151,188,428,
0,574,569,149,187,423,
0,568,566,148,195,418,
0,636,652,147,199,414,
0,626,642,145,199,409,
0,618,633,144,197,406,
0,610,623,143,195,401,
0,603,614,155,193,451,
0,595,607,153,192,446,
0,588,599,152,190,440,
0,580,591,151,189,435,
0,571,583,148,187,432,
0,564,644,147,199,425,
0,639,656,147,198,422,
0,630,647,145,196,417,
0,622,639,144,195,413,
0,614,627,143,193,433,
0,606,619,159,192,455,
0,598,611,158,190,451,
0,591,603,156,188,446,
0,583,595,155,187,441,
0,575,588,153,185,436,
0,568,659,152,196,431,
0,620,648,151,194,427,
0,611,639,150,193,423,
0,604,631,148,192,419,
0,596,620,147,189,463,
0,588,612,152,188,457,
0,581,604,152,187,452,
0,574,596,150,184,448,
0,568,588,148,184,443,
0,559,582,147,182,439,
0,571,647,146,199,432,
0,625,638,145,198,428,
0,617,630,143,196,423,
0,609,620,143,194,419,
0,601,611,175,192,468,
0,593,603,173,191,463,
0,586,595,171,190,457,
0,579,588,169,188,452,
0,572,579,167,187,448,
0,563,573,167,187,444,
0,622,639,166,198,438,
0,624,631,163,195,433,
0,615,622,163,194,428,
0,608,614,161,192,423,
0,600,604,159,190,472,
0,593,595,159,188,467,
0,585,588,158,188,462,
0,578,580,156,185,457,
0,571,574,155,184,452,
0,563,573,153,193,446,
0,633,637,152,192,441,
0,624,627,152,190,436,
0,615,620,154,189,432,
0,608,611,152,187,428,
0,600,601,152,185,473,
0,593,593,151,184,468,
0,585,585,150,182,463,
0,579,578,148,181,458,
0,572,571,147,179,453,
0,563,647,146,184,447,
0,628,681,144,182,442,
0,620,671,143,180,438,
0,612,662,143,179,433,
0,604,652,142,177,463,
0,596,642,152,176,467,
0,589,633,151,175,463,
0,582,625,150,173,457,
0,575,616,148,172,452,
0,568,609,147,171,448,
0,559,632,145,182,441,
0,625,623,144,180,437,
0,616,615,143,179,432,
0,609,607,142,177,428,
0,601,599,143,176,486,
0,593,590,158,174,480,
0,586,582,156,172,473,
0,579,575,155,172,468,
0,572,568,153,169,463,
0,565,561,152,169,459,
0,580,595,151,177,452,
0,620,587,149,175,448,
0,611,579,148,174,444,
0,604,572,147,172,439,
0,595,564,156,171,499,
0,588,556,154,169,494,
0,580,550,152,167,487,
0,574,543,152,167,483,
0,568,536,150,166,477,
0,560,536,148,167,472,
0,637,671,147,172,465,
0,627,660,146,171,461,
0,619,652,149,169,455,
0,611,643,147,167,451,
0,604,634,156,167,492,
0,595,624,155,165,487,
0,588,615,153,164,481,
0,580,608,152,163,476,
0,574,600,152,161,472,
0,566,591,150,171,466,
0,643,587,148,169,460,
0,633,579,147,167,455,
0,625,572,150,167,450,
0,617,566,148,166,446,
0,609,559,150,163,496,
0,601,551,149,162,491,
0,593,544,147,161,486,
0,587,538,146,159,480,
0,579,532,145,159,475,
0,571,639,143,180,470,
0,639,627,143,179,463,
0,632,619,142,177,459,
0,623,611,140,176,454,
0,615,603,140,174,502,
0,607,595,176,172,502,
0,600,584,174,171,496,
0,591,577,172,169,489,
0,584,571,171,167,484,
0,577,563,169,167,480,
0,568,639,167,177,474,
0,636,630,166,175,467,
0,627,621,164,174,463,
0,619,613,163,172,458,
0,611,605,163,171,459,
0,603,596,163,169,455,
0,595,588,161,167,449,
0,588,580,159,167,445,
0,581,573,159,166,440,
0,574,566,157,164,436,
0,591,643,156,172,432,
0,625,633,155,171,427,
0,616,624,153,169,423,
0,608,615,152,167,419,
0,600,608,153,167,465,
0,593,600,152,166,460,
0,585,590,151,164,455,
0,579,583,150,163,449,
0,572,575,148,161,444,
0,564,568,147,169,440,
0,607,564,146,172,435,
0,598,557,145,171,430,
0,590,551,143,169,425,
0,583,543,143,167,422,
0,575,539,152,167,473,
0,568,530,150,166,468,
0,561,524,148,163,463,
0,555,519,147,163,459,
0,548,513,146,161,453,
0,542,536,145,185,449,
0,620,558,143,183,444,
0,611,551,143,182,438,
0,604,543,142,179,433,
0,596,536,140,179,431,
0,589,531,142,177,472,
0,582,522,141,176,467,
0,574,516,140,174,462,
0,568,511,139,172,457,
0,560,504,137,171,452,
0,554,598,136,176,448,
0,622,598,135,175,443,
0,612,589,134,173,437,
0,605,582,135,172,432,
0,597,574,134,171,492,
0,590,567,142,169,486,
0,582,558,141,167,480,
0,575,551,140,167,475,
0,568,543,139,165,470,
0,561,538,137,163,464,
0,555,609,136,180,460,
0,619,600,135,179,455,
0,611,591,134,177,448,
0,603,583,133,176,444,
0,595,576,138,175,491,
0,588,569,140,173,484,
0,580,560,138,172,479,
0,573,553,137,170,473,
0,567,547,135,168,468,
0,560,540,135,167,463,
0,553,672,134,176,459,
0,627,662,132,175,454,
0,618,653,132,173,448,
0,610,643,131,172,443,
0,603,635,140,171,487,
0,595,627,139,169,481,
0,588,616,137,167,476,
0,580,608,136,166,471,
0,573,600,135,165,465,
0,566,604,135,183,460,
0,588,726,134,192,455,
0,627,714,132,190,451,
0,619,704,133,188,445,
0,611,694,132,187,440,
0,604,684,142,185,489,
0,595,674,140,184,483,
0,588,664,140,182,478,
0,580,654,138,180,473,
0,574,646,137,179,467,
0,567,673,135,188,463,
0,636,685,135,185,457,
0,624,675,134,184,453,
0,616,666,156,183,448,
0,608,657,155,181,463,
0,600,647,157,179,492,
0,593,639,156,178,486,
0,585,629,155,177,480,
0,579,621,153,175,475,
0,572,613,152,174,470,
0,565,665,151,199,465,
0,639,655,150,196,460,
0,628,646,147,194,455,
0,620,637,147,193,449,
0,612,628,146,192,487,
0,604,620,167,190,481,
0,596,611,166,188,476,
0,590,602,165,186,471,
0,582,595,163,185,465,
0,575,588,162,184,460,
0,568,634,160,195,455,
0,639,624,159,193,451,
0,627,615,158,192,446,
0,620,608,156,191,440,
0,611,600,159,189,501,
0,604,591,158,188,495,
0,596,584,156,185,489,
0,589,575,156,184,483,
0,582,569,153,183,478,
0,575,563,152,182,473,
0,568,616,152,188,468,
0,634,608,151,187,463,
0,624,600,149,185,458,
0,615,591,147,184,452,
0,608,583,163,182,496,
0,600,575,161,180,491,
0,591,569,159,179,484,
0,585,560,159,178,480,
0,577,554,157,176,474,
0,571,555,156,187,470,
0,606,643,155,185,463,
0,630,633,153,184,459,
0,620,625,152,182,455,
0,611,616,151,181,449,
0,604,608,153,179,496,
0,596,600,152,177,491,
0,589,593,151,176,485,
0,582,583,150,175,480,
0,574,575,148,174,474,
0,568,569,147,186,470,
0,639,563,146,184,464,
0,632,556,145,183,459,
0,620,550,143,181,454,
0,612,543,143,179,477,
0,604,536,172,179,503,
0,597,531,171,177,496,
0,590,525,168,176,491,
0,583,518,167,174,486,
0,575,512,166,172,480,
0,568,591,164,183,476,
0,623,582,163,181,470,
0,615,574,162,179,465,
0,605,567,159,178,459,
0,597,560,159,176,523,
0,590,551,159,175,515,
0,583,545,159,174,510,
0,575,539,157,172,504,
0,568,531,156,171,498,
0,561,525,155,169,493,
0,556,646,153,185,487,
0,630,636,152,184,482,
0,622,627,151,182,477,
0,611,619,150,180,471,
0,603,610,157,179,515,
0,595,603,159,177,510,
0,588,595,158,176,504,
0,581,587,156,175,498,
0,574,577,155,173,492,
0,568,571,154,175,487,
0,562,653,152,180,482,
0,614,643,152,179,476,
0,605,635,150,177,472,
0,595,626,148,176,465,
0,588,618,160,175,518,
0,580,609,159,173,511,
0,574,601,157,172,505,
0,567,593,156,171,499,
0,560,584,155,169,494,
0,553,577,153,191,488,
0,604,572,152,189,483,
0,620,564,151,188,479,
0,612,558,150,186,473,
0,602,551,148,184,467,
0,595,545,163,183,480,
0,587,538,161,182,475,
0,580,532,160,179,470,
0,573,526,159,178,464,
0,566,519,158,177,460,
0,560,588,156,182,455,
0,625,609,155,179,451,
0,615,600,153,178,446,
0,606,592,153,177,441,
0,598,584,152,175,472,
0,591,577,154,174,487,
0,583,569,152,172,481,
0,575,563,152,172,476,
0,568,556,150,170,471,
0,562,547,149,167,465,
0,556,655,147,182,460,
0,625,645,146,179,455,
0,616,636,145,178,451,
0,607,627,144,177,447,
0,599,619,143,176,499,
0,591,611,146,174,492,
0,583,603,145,172,487,
0,576,595,143,171,481,
0,569,588,143,169,476,
0,563,578,142,168,472,
0,556,664,141,174,466,
0,615,654,140,172,461,
0,607,644,138,171,455,
0,597,636,147,169,451,
0,589,627,156,167,496,
0,582,619,154,167,490,
0,575,611,152,166,484,
0,568,603,152,164,480,
0,561,595,151,163,473,
0,555,586,149,167,469,
0,560,665,147,173,463,
0,617,655,147,171,459,
0,608,647,151,169,454,
0,599,638,151,168,449,
0,591,630,171,167,461,
0,583,621,169,166,455,
0,577,613,167,164,451,
0,569,605,167,163,446,
0,563,598,164,162,441,
0,556,679,163,177,438,
0,628,742,162,177,433,
0,632,729,160,175,428,
0,623,719,159,174,424,
0,612,708,158,172,420,
0,604,699,158,171,467,
0,597,688,157,169,463,
0,590,679,156,167,457,
0,583,670,155,167,452,
0,575,659,153,166,448,
0,568,728,152,179,443,
0,635,716,151,178,438,
0,625,704,150,176,433,
0,617,695,148,175,429,
0,607,684,147,174,425,
0,600,675,163,172,459,
0,591,666,161,171,454,
0,584,657,159,169,448,
0,577,648,158,167,444,
0,570,638,157,167,439,
0,564,732,156,174,435,
0,620,720,155,172,430,
0,611,710,153,171,425,
0,604,700,152,169,422,
0,594,689,151,167,462,
0,587,679,153,167,477,
0,579,671,152,166,472,
0,572,662,151,164,467,
0,566,652,150,163,461,
0,559,642,148,161,456,
0,552,719,147,184,451,
0,625,707,146,183,448,
0,616,696,145,181,443,
0,609,687,146,179,438,
0,600,678,145,178,491,
0,591,668,156,176,483,
0,583,659,154,175,478,
0,577,650,152,174,472,
0,569,641,152,172,467,
0,563,632,150,171,462,
0,566,668,149,177,456,
0,611,657,147,176,452,
0,604,648,147,174,448,
0,595,639,146,172,443,
0,587,632,159,171,467,
0,579,623,159,169,460,
0,572,615,156,167,455,
0,565,608,156,167,450,
0,558,600,154,166,445,
0,551,598,153,172,440,
0,611,620,152,183,436,
0,604,611,151,181,432,
0,596,604,150,179,428,
0,588,595,148,178,423,
0,579,588,167,177,484,
0,572,581,167,175,477,
0,564,574,165,174,472,
0,558,568,163,172,467,
0,551,561,162,172,462,
0,545,627,161,183,457,
0,623,617,159,180,451,
0,615,609,158,179,448,
0,607,601,159,178,443,
0,599,593,158,176,438,
0,589,585,167,175,481,
0,582,578,167,174,475,
0,575,571,166,172,470,
0,568,563,163,171,464,
0,561,557,163,169,460,
0,555,611,161,184,455,
0,621,602,159,183,449,
0,612,594,159,181,445,
0,604,586,167,179,440,
0,596,579,166,178,476,
0,587,571,175,176,470,
0,579,563,174,175,463,
0,572,557,172,174,458,
0,566,550,171,172,454,
0,559,543,169,171,449,
0,552,659,167,182,444,
0,638,649,167,180,439,
0,629,639,166,179,435,
0,621,632,166,177,431,
0,612,624,173,176,477,
0,603,615,184,174,472,
0,595,607,183,173,464,
0,588,599,181,172,460,
0,580,591,179,169,455,
0,574,583,177,169,449,
0,575,688,176,179,444,
0,623,678,175,178,440,
0,615,668,174,177,435,
0,607,659,174,176,431,
0,599,650,178,174,480,
0,589,641,176,172,473,
0,582,632,175,171,467,
0,575,624,173,169,462,
0,568,616,172,168,457,
0,561,608,171,177,452,
0,625,647,169,183,448,
0,615,638,167,181,443,
0,608,628,167,179,439,
0,600,620,166,177,433,
0,591,612,181,176,483,
0,583,604,179,175,476,
0,575,596,177,174,471,
0,568,589,176,172,465,
0,561,582,175,171,460,
0,556,583,173,188,455,
0,623,600,172,184,451,
0,614,591,171,184,446,
0,606,583,169,182,441,
0,598,575,167,180,449,
0,591,569,175,179,487,
0,581,562,173,177,481,
0,574,556,171,176,476,
0,568,550,169,175,471,
0,560,543,168,173,465,
0,554,601,167,184,460,
0,638,590,166,180,455,
0,628,582,164,179,451,
0,620,575,167,178,446,
0,612,568,166,176,443,
0,604,560,180,175,439,
0,595,553,178,174,432,
0,588,547,176,172,428,
0,580,540,175,171,424,
0,574,534,174,169,420,
0,567,605,172,179,415,
0,620,594,171,176,412,
0,612,586,169,175,408,
0,604,579,172,174,404,
0,596,571,174,172,401,
0,590,564,173,171,398,
0,579,556,171,169,393,
0,572,550,169,167,390,
0,566,543,168,167,386,
0,560,536,167,166,384,
0,591,604,166,182,380,
0,610,593,164,179,376,
0,602,585,167,178,372,
0,595,577,166,177,369,
0,587,570,167,175,423,
0,579,563,166,174,418,
0,571,556,163,172,412,
0,563,550,163,171,408,
0,557,543,161,169,404,
0,551,536,160,177,400,
0,615,616,159,179,396,
0,606,606,158,177,391,
0,598,598,158,176,388,
0,590,590,156,174,385,
0,583,583,160,173,435,
0,575,575,159,172,431,
0,567,568,158,169,423,
0,560,561,156,168,420,
0,553,555,156,167,415,
0,547,591,153,172,412,
0,615,627,153,169,408,
0,607,615,152,167,403,
0,599,608,159,167,399,
0,591,600,158,166,419,
0,583,591,178,164,446,
0,575,583,176,163,440,
0,568,576,175,161,435,
0,560,569,173,160,431,
0,554,563,172,159,425,
0,547,632,170,179,422,
0,630,623,167,177,417,
0,621,611,167,175,413,
0,612,604,166,174,408,
0,604,595,164,172,455,
0,597,588,166,171,449,
0,588,580,164,169,444,
0,580,573,163,167,438,
0,574,566,161,167,433,
0,567,560,160,166,429,
0,560,649,159,176,423,
0,623,639,158,174,420,
0,614,628,156,172,415,
0,606,620,156,171,412,
0,599,612,175,169,457,
0,591,604,172,167,452,
0,582,595,171,167,448,
0,575,588,169,166,441,
0,568,581,167,164,436,
0,561,574,167,163,432,
0,618,644,164,174,428,
0,635,635,163,172,423,
0,626,624,163,171,419,
0,617,615,161,169,415,
0,610,608,178,167,467,
0,601,600,176,167,462,
0,592,591,175,166,456,
0,585,584,173,164,451,
0,578,577,172,163,446,
0,571,574,170,169,441,
0,630,661,168,171,436,
0,621,652,167,169,432,
0,613,639,167,167,428,
0,604,632,167,166,423,
0,598,623,167,165,467,
0,590,615,166,163,462,
0,580,607,164,162,455,
0,574,600,163,161,450,
0,567,591,162,159,446,
0,560,601,160,193,440,
0,627,592,159,192,435,
0,619,583,158,190,432,
0,610,575,157,188,428,
0,603,568,156,187,450,
0,595,561,172,185,465,
0,588,556,171,184,460,
0,578,548,169,182,455,
0,571,543,167,180,449,
0,564,536,166,179,444,
0,558,564,165,187,440,
0,625,556,163,185,435,
0,616,547,162,184,431,
0,608,541,161,182,425,
0,600,535,159,180,472,
0,592,527,164,179,466,
0,585,522,163,177,461,
0,575,516,161,176,455,
0,569,511,159,175,449,
0,563,505,158,173,445,
0,566,632,157,199,440,
0,630,623,156,198,435,
0,622,611,155,196,432,
0,614,604,153,194,427,
0,606,596,158,192,476,
0,598,588,156,191,471,
0,591,580,155,190,465,
0,582,574,153,188,460,
0,574,567,152,186,454,
0,568,560,152,185,449,
0,627,624,150,188,444,
0,630,615,148,187,440,
0,621,604,147,185,435,
0,613,596,147,184,431,
0,606,588,152,182,476,
0,598,581,151,181,470,
0,590,574,149,179,465,
0,581,567,147,178,460,
0,574,560,146,176,454,
0,568,553,145,188,449,
0,622,604,143,187,444,
0,613,596,143,185,440,
0,605,587,143,184,435,
0,598,579,142,182,431,
0,590,572,153,180,484,
0,583,564,152,179,479,
0,575,558,151,177,473,
0,567,551,149,176,468,
0,560,544,148,175,462,
0,553,603,147,188,457,
0,636,603,145,187,451,
0,627,594,144,185,448,
0,619,584,143,184,443,
0,610,577,143,182,476,
0,603,569,159,180,499,
0,595,563,158,179,494,
0,588,556,156,177,487,
0,579,549,155,176,483,
0,572,542,153,175,476,
0,566,651,152,193,472,
0,630,639,151,191,466,
0,622,632,150,190,462,
0,614,620,148,188,456,
0,606,612,147,185,455,
0,598,604,151,184,451,
0,590,596,150,183,446,
0,583,588,148,181,441,
0,574,581,147,179,437,
0,568,574,146,179,432,
0,568,637,145,187,427,
0,623,627,143,185,423,
0,615,619,142,184,419,
0,607,608,142,182,415,
0,600,600,167,180,473,
0,591,592,166,179,467,
0,583,585,164,177,462,
0,577,577,163,176,457,
0,568,571,161,175,452,
0,561,563,159,177,446,
0,620,572,159,184,441,
0,620,564,158,182,437,
0,612,558,156,180,432,
0,604,550,155,179,428,
0,596,543,165,177,440,
0,589,536,163,176,435,
0,582,531,163,174,430,
0,575,524,161,172,425,
0,566,519,159,172,422,
0,560,532,158,178,416,
0,624,588,156,176,412,
0,615,579,156,175,408,
0,608,572,154,174,404,
0,600,563,153,172,400,
0,591,556,172,171,451,
0,583,549,170,169,447,
0,577,543,168,167,441,
0,569,536,167,167,437,
0,561,529,166,166,432,
0,556,593,164,173,427,
0,636,592,163,172,423,
0,627,583,161,169,418,
0,620,576,159,168,414,
0,611,568,159,167,455,
0,603,560,184,166,463,
0,595,553,183,164,458,
0,588,547,181,163,453,
0,581,540,179,161,448,
0,572,534,177,160,443,
0,566,527,176,168,438,
0,643,521,175,167,433,
0,634,515,173,166,429,
0,626,510,172,164,424,
0,618,504,171,163,487,
0,610,497,172,162,480,
0,602,493,172,160,475,
0,595,487,170,159,470,
0,588,483,168,158,464,
0,579,478,167,157,459,
0,573,580,166,163,454,
0,606,572,164,162,448,
0,599,564,164,161,444,
0,591,558,164,159,440,
0,583,549,167,158,502,
0,575,542,166,157,495,
0,568,536,164,156,489,
0,562,529,163,155,484,
0,556,523,161,153,479,
0,547,517,159,158,472,
0,615,561,159,161,467,
0,606,553,158,160,462,
0,598,547,157,159,457,
0,590,540,156,158,452,
0,583,531,175,156,517,
0,575,525,174,155,511,
0,568,519,172,153,504,
0,561,513,170,152,499,
0,555,508,169,152,494,
0,547,531,167,156,487,
0,613,572,166,155,482,
0,604,564,164,153,476,
0,596,558,163,152,472,
0,589,550,161,152,469,
0,582,542,163,150,523,
0,574,536,161,149,517,
0,568,529,160,147,511,
0,560,523,159,147,505,
0,553,516,158,146,499,
0,545,568,156,163,493,
0,615,560,155,161,487,
0,607,553,154,159,483,
0,600,546,153,158,478,
0,591,540,152,157,524,
0,583,531,156,156,523,
0,576,524,155,155,516,
0,569,519,153,153,511,
0,563,512,152,152,505,
0,555,507,151,151,499,
0,548,628,150,169,492,
0,630,619,148,167,487,
0,622,610,147,166,483,
0,614,601,147,164,478,
0,606,594,155,163,531,
0,598,584,172,161,524,
0,590,577,169,160,518,
0,583,570,167,159,512,
0,575,563,167,158,507,
0,568,556,166,157,501,
0,568,657,163,166,494,
0,595,647,162,164,488,
0,588,638,161,163,483,
0,579,630,159,162,478,
0,572,620,159,161,521,
0,566,611,158,159,515,
0,559,603,157,158,510,
0,551,595,156,156,504,
0,545,588,155,156,498,
0,537,580,153,164,492,
0,611,601,152,163,487,
0,603,593,151,162,481,
0,595,585,150,161,476,
0,587,578,148,159,471,
0,580,571,165,158,525,
0,572,562,163,156,519,
0,566,556,162,155,512,
0,559,549,159,154,507,
0,551,543,159,152,502,
0,543,579,158,163,496,
0,627,625,156,162,489,
0,619,615,155,161,484,
0,610,608,153,159,479,
0,603,600,152,158,484,
0,595,591,161,157,526,
0,588,583,159,156,519,
0,580,575,158,155,513,
0,573,568,156,153,508,
0,566,561,156,152,502,
0,558,609,154,166,496,
0,608,600,152,163,489,
0,600,591,152,163,484,
0,591,584,150,161,480,
0,584,577,149,159,536,
0,577,568,175,159,527,
0,570,561,173,157,521,
0,563,554,171,156,515,
0,556,547,169,154,510,
0,550,541,167,153,504,
0,542,569,167,168,499,
0,600,562,166,167,492,
0,591,555,164,166,487,
0,583,547,163,164,481,
0,575,541,162,163,529,
0,569,533,160,161,523,
0,561,527,159,160,516,
0,555,521,158,159,511,
0,548,515,157,158,504,
0,542,510,156,158,499,
0,591,584,154,181,494,
0,611,576,152,179,487,
0,604,568,152,178,482,
0,595,561,151,176,477,
0,588,555,168,175,521,
0,580,546,167,174,515,
0,574,539,166,172,510,
0,567,532,164,171,504,
0,560,527,163,169,498,
0,553,520,161,172,493,
0,602,615,159,172,487,
0,593,607,159,170,481,
0,585,599,157,169,476,
0,579,591,156,167,472,
0,572,583,156,167,511,
0,564,574,155,165,504,
0,558,568,153,163,499,
0,551,560,152,163,494,
0,544,553,151,161,487,
0,538,595,150,164,483,
0,615,632,148,163,478,
0,607,624,147,162,472,
0,600,615,146,160,467,
0,591,607,144,159,476,
0,583,600,163,158,505,
0,575,590,161,157,499,
0,569,582,161,156,494,
0,563,575,159,154,487,
0,556,568,158,153,483,
0,550,634,156,177,478,
0,619,624,155,175,472,
0,609,615,153,174,467,
0,601,608,152,172,462,
0,594,600,152,171,512,
0,587,591,158,169,505,
0,579,582,156,167,499,
0,572,575,155,167,494,
0,566,568,154,165,488,
0,559,561,152,163,483,
0,552,609,152,171,478,
0,608,600,150,169,472,
0,600,592,150,167,467,
0,593,585,159,167,462,
0,585,577,173,166,515,
0,578,570,172,164,508,
0,571,561,169,163,503,
0,564,555,167,161,496,
0,557,547,167,160,492,
0,551,542,165,160,487,
0,544,636,164,167,481,
0,606,626,162,166,476,
0,598,618,161,164,470,
0,590,609,159,163,463,
0,583,602,163,161,509,
0,575,593,161,161,504,
0,568,583,159,159,497,
0,561,577,159,158,492,
0,555,569,158,156,486,
0,548,563,156,169,481,
0,583,639,155,170,476,
0,603,631,153,167,471,
0,595,622,152,167,464,
0,588,614,151,166,460,
0,579,606,151,164,508,
0,572,598,150,163,502,
0,566,588,148,161,496,
0,559,580,147,159,491,
0,551,574,146,159,486,
0,546,665,145,173,480,
0,624,702,143,171,476,
0,612,691,143,169,470,
0,604,681,141,167,463,
0,596,671,140,167,492,
0,589,663,159,165,515,
0,582,654,158,164,508,
0,575,643,157,163,503,
0,568,635,156,161,497,
0,561,627,154,159,492,
0,555,725,153,164,487,
0,632,712,152,163,481,
0,620,702,150,161,476,
0,612,691,149,159,470,
0,604,682,148,159,519,
0,596,671,171,158,513,
0,589,664,168,156,508,
0,582,652,167,155,502,
0,575,643,166,153,496,
0,568,636,164,152,491,
0,561,630,163,169,486,
0,608,622,162,167,480,
0,598,614,160,167,473,
0,590,607,159,166,469,
0,583,599,163,164,472,
0,575,591,162,163,467,
0,568,584,160,161,462,
0,561,575,159,159,457,
0,555,569,158,159,452,
0,547,562,156,162,448,
0,542,590,155,169,444,
0,606,582,154,167,440,
0,596,575,152,167,434,
0,588,568,152,165,430,
0,582,560,165,163,494,
0,574,553,163,163,487,
0,567,547,162,161,482,
0,560,540,160,159,477,
0,553,534,159,158,472,
0,547,527,158,161,467,
0,590,588,157,163,462,
0,608,579,156,161,456,
0,598,572,154,159,451,
0,590,565,153,159,446,
0,583,558,155,158,487,
0,575,551,154,156,481,
0,568,544,153,155,476,
0,561,536,152,153,471,
0,555,530,151,152,465,
0,548,591,149,170,460,
0,621,619,147,167,455,
0,612,610,147,167,451,
0,603,602,145,166,445,
0,595,594,144,164,484,
0,587,587,174,163,497,
0,579,579,173,161,492,
0,572,572,171,159,486,
0,566,563,169,158,480,
0,559,556,167,157,476,
0,552,611,167,161,471,
0,624,603,166,159,465,
0,615,594,164,159,460,
0,604,587,163,158,454,
0,597,579,162,156,504,
0,590,572,167,156,497,
0,582,564,167,154,492,
0,575,558,166,153,487,
0,568,549,164,152,481,
0,561,543,163,151,476,
0,555,604,161,163,471,
0,614,595,159,161,465,
0,603,587,159,159,461,
0,595,579,157,159,455,
0,588,572,164,158,450,
0,580,565,163,156,446,
0,573,558,161,155,441,
0,566,551,159,154,436,
0,560,543,159,152,432,
0,552,539,158,152,428,
0,563,710,156,151,423,
0,627,699,155,149,420,
0,616,689,155,148,416,
0,608,679,153,147,412,
0,600,670,153,146,455,
0,593,660,152,145,451,
0,585,652,151,143,446,
0,579,643,150,143,441,
0,572,632,148,142,436,
0,564,625,147,166,432,
0,603,671,147,163,428,
0,603,663,145,162,423,
0,593,654,144,161,419,
0,585,644,143,159,414,
0,579,636,160,158,467,
0,572,627,159,156,462,
0,564,619,157,156,457,
0,558,611,156,155,452,
0,551,601,155,153,448,
0,544,630,153,169,443,
0,593,621,152,167,438,
0,585,612,151,166,433,
0,575,604,150,164,429,
0,568,596,148,163,463,
0,561,589,156,162,467,
0,555,582,155,161,463,
0,547,575,153,159,457,
0,542,568,152,158,452,
0,536,560,151,157,448,
0,529,637,150,169,443,
0,603,627,148,167,439,
0,594,619,147,167,433,
0,584,611,147,165,429,
0,577,602,145,164,455,
0,570,595,152,163,450,
0,563,587,150,161,445,
0,556,579,149,159,440,
0,550,571,147,159,435,
0,543,563,147,157,432,
0,537,607,145,168,427,
0,604,598,144,167,423,
0,596,591,143,166,419,
0,587,583,142,164,414,
0,579,575,150,163,479,
0,572,568,148,161,472,
0,566,561,147,160,467,
0,559,555,145,159,462,
0,551,546,144,158,457,
0,545,540,143,158,452,
0,547,618,142,159,448,
0,582,609,141,158,443,
0,574,601,140,156,439,
0,565,593,140,156,434,
0,559,586,156,154,484,
0,551,578,155,153,479,
0,544,571,153,152,473,
0,538,563,152,151,468,
0,532,556,151,150,463,
0,527,611,150,167,459,
0,609,684,148,166,454,
0,606,673,147,164,449,
0,598,664,146,163,444,
0,588,655,145,162,440,
0,580,647,152,160,489,
0,573,638,151,159,484,
0,566,630,150,158,479,
0,559,621,148,156,473,
0,552,611,147,156,467,
0,546,658,146,162,463,
0,597,647,144,160,457,
0,589,639,143,159,454,
0,582,631,143,158,448,
0,572,622,141,156,444,
0,566,614,166,155,484,
0,559,606,164,154,479,
0,551,598,163,152,473,
0,545,591,161,152,468,
0,539,582,159,150,463,
0,533,675,159,159,459,
0,606,665,158,158,454,
0,598,655,156,156,448,
0,590,647,156,155,444,
0,580,638,159,154,487,
0,574,630,161,152,483,
0,566,621,159,152,479,
0,560,613,159,151,473,
0,552,605,157,150,467,
0,546,595,156,148,463,
0,540,589,155,168,457,
0,612,582,153,167,453,
0,604,574,152,166,448,
0,596,568,155,164,444,
0,588,561,169,163,497,
0,579,555,167,161,489,
0,572,547,166,160,484,
0,566,542,164,159,479,
0,559,536,163,158,473,
0,552,528,162,157,469,
0,575,669,159,173,463,
0,608,659,159,171,459,
0,600,649,161,169,454,
0,592,639,159,167,449,
0,583,632,179,167,497,
0,575,624,177,166,489,
0,569,615,176,164,484,
0,562,608,175,163,479,
0,556,600,173,161,473,
0,549,615,172,163,469,
0,615,632,170,161,463,
0,607,623,169,160,459,
0,600,614,167,159,454,
0,591,606,167,158,449,
0,582,599,166,156,492,
0,575,591,164,156,486,
0,568,583,163,155,480,
0,560,575,161,153,475,
0,554,569,160,152,470,
0,547,624,159,160,464,
0,600,615,158,159,460,
0,591,607,156,158,455,
0,584,599,156,156,450,
0,577,591,154,155,449,
0,568,583,159,153,497,
0,561,575,158,152,489,
0,555,568,156,152,484,
0,547,561,155,150,479,
0,541,555,154,149,473,
0,536,589,153,173,468,
0,594,581,152,172,463,
0,586,574,150,170,459,
0,579,567,152,168,454,
0,572,559,150,167,508,
0,563,551,159,166,508,
0,556,545,159,164,502,
0,550,539,157,163,496,
0,543,533,156,162,491,
0,536,527,155,161,486,
0,531,607,153,163,480,
0,595,598,152,161,475,
0,587,590,151,159,470,
0,579,583,150,159,464,
0,572,575,152,158,518,
0,563,568,153,156,509,
0,556,560,152,156,504,
0,550,553,151,154,497,
0,543,547,150,152,492,
0,536,540,149,152,487,
0,575,639,147,152,481,
0,601,632,146,152,476,
0,593,623,145,150,472,
0,585,615,143,149,466,
0,578,607,155,147,519,
0,569,599,153,147,511,
0,563,591,152,145,505,
0,556,583,150,144,499,
0,549,575,149,143,494,
0,543,569,148,158,489,
0,615,630,147,164,483,
0,607,620,145,162,479,
0,599,612,144,161,473,
0,591,604,143,159,468,
0,583,596,152,159,528,
0,574,588,151,157,520,
0,568,581,150,156,514,
0,560,574,148,155,508,
0,553,567,147,153,504,
0,547,596,146,167,497,
0,615,625,145,166,492,
0,607,615,143,164,487,
0,600,608,143,162,481,
0,591,600,142,161,487,
0,583,591,163,159,527,
0,575,584,160,159,519,
0,568,577,159,158,513,
0,561,570,158,156,508,
0,555,563,156,155,503,
0,548,671,155,156,497,
0,615,656,153,154,492,
0,607,647,153,152,487,
0,600,639,152,152,481,
0,591,630,151,151,523,
0,583,622,167,149,516,
0,575,614,165,148,508,
0,568,606,163,147,503,
0,561,598,162,146,497,
0,555,590,161,145,492,
0,548,655,159,156,487,
0,593,643,158,155,481,
0,585,634,157,153,476,
0,578,625,156,152,472,
0,571,617,162,151,515,
0,562,609,161,149,508,
0,556,601,159,148,502,
0,548,593,158,147,496,
0,542,585,156,146,491,
0,536,579,155,145,486,
0,568,659,154,155,480,
0,591,647,152,153,475,
0,583,639,152,152,470,
0,577,630,151,151,465,
0,569,622,182,150,521,
0,561,613,179,148,515,
0,554,605,177,147,508,
0,547,598,176,147,502,
0,541,590,174,145,496,
0,535,583,173,162,491,
0,617,646,172,163,485,
0,608,635,170,162,480,
0,600,626,168,160,476,
0,593,617,167,159,471,
0,585,609,180,158,526,
0,575,601,178,157,519,
0,569,593,176,156,512,
0,563,586,175,154,507,
0,556,579,174,153,501,
0,550,600,172,163,496,
0,632,594,171,162,489,
0,623,585,169,160,484,
0,615,579,167,159,480,
0,607,571,167,158,498,
0,599,564,167,156,524,
0,589,558,166,155,518,
0,582,551,164,154,510,
0,575,543,163,153,504,
0,568,538,162,152,499,
0,561,558,161,167,493,
0,609,551,159,166,487,
0,600,542,158,163,483,
0,593,536,157,163,478,
0,585,529,156,161,532,
0,579,523,159,159,526,
0,569,517,157,159,519,
0,563,512,156,158,512,
0,556,507,155,156,506,
0,550,501,153,155,501,
0,548,627,152,161,495,
0,616,615,151,159,489,
0,608,607,150,158,484,
0,600,599,149,157,480,
0,592,591,180,156,527,
0,585,583,182,154,521,
0,575,575,180,153,515,
0,569,568,178,152,508,
0,562,561,177,151,502,
0,556,555,176,152,496,
0,612,743,174,166,491,
0,620,728,173,164,486,
0,611,718,171,163,480,
0,603,707,169,161,476,
0,595,696,168,159,513,
0,588,687,167,159,507,
0,579,678,166,157,501,
0,572,668,164,156,494,
0,565,659,163,155,488,
0,558,651,161,172,483,
0,630,713,160,171,478,
0,620,700,159,169,473,
0,612,690,158,167,468,
0,604,679,157,167,463,
0,598,671,159,166,511,
0,590,662,157,163,505,
0,580,653,156,163,499,
0,573,644,155,161,492,
0,566,636,153,159,487,
0,560,668,152,184,482,
0,615,657,151,183,476,
0,608,646,150,181,472,
0,600,636,179,179,467,
0,591,628,177,177,491,
0,584,620,176,176,509,
0,577,612,175,175,503,
0,568,605,172,174,497,
0,561,598,171,172,490,
0,555,590,169,171,485,
0,549,700,167,177,480,
0,589,688,167,176,475,
0,582,676,166,175,470,
0,574,667,167,172,464,
0,568,657,166,171,493,
0,560,647,165,169,487,
0,553,639,163,168,481,
0,545,632,162,167,476,
0,539,624,161,166,470,
0,532,615,159,165,465,
0,555,729,158,188,460,
0,619,717,156,186,455,
0,611,704,156,184,451,
0,603,694,155,183,446,
0,595,684,153,181,489,
0,588,674,152,179,484,
0,580,665,152,178,479,
0,571,656,150,177,473,
0,564,647,148,175,467,
0,558,639,147,175,462,
0,627,700,146,178,456,
0,631,689,145,176,452,
0,622,678,221,176,448,
0,614,668,254,173,443,
0,606,659,287,172,486,
0,599,650,284,171,480,
0,591,641,280,169,475,
0,582,633,278,167,470,
0,575,625,275,167,463,
0,568,617,273,169,459,
0,630,609,271,167,454,
0,620,602,268,167,449,
0,612,593,266,165,444,
0,604,585,263,163,440,
0,596,579,262,163,487,
0,589,572,259,161,481,
0,582,566,257,159,476,
0,573,559,255,159,471,
0,566,552,253,158,464,
0,560,615,251,185,460,
0,618,615,248,184,455,
0,609,608,247,182,449,
0,602,598,246,179,445,
0,594,590,243,178,441,
0,587,582,289,177,441,
0,579,575,286,175,437,
0,572,568,284,174,433,
0,563,560,280,172,428,
0,557,553,278,171,423,
0,551,671,275,188,419,
0,598,660,273,185,415,
0,591,651,271,184,412,
0,583,639,269,182,408,
0,575,631,267,181,474,
0,568,623,263,179,467,
0,561,615,262,178,463,
0,555,607,259,176,457,
0,547,599,257,175,451,
0,540,591,255,174,448,
0,549,726,254,183,442,
0,585,713,252,181,438,
0,578,704,249,179,433,
0,571,691,248,177,429,
0,564,681,281,176,487,
0,557,671,279,175,481,
0,550,663,276,173,476,
0,543,654,274,172,470,
0,536,646,271,171,463,
0,530,637,269,174,459,
0,592,630,267,174,454,
0,583,621,263,172,449,
0,575,614,361,171,444,
0,568,604,398,169,440,
0,562,596,393,167,501,
0,555,589,390,167,495,
0,547,582,385,166,489,
0,542,575,382,164,483,
0,534,568,377,163,477,
0,527,598,374,173,472,
0,604,668,371,172,467,
0,595,658,367,171,462,
0,587,648,364,169,457,
0,579,638,360,167,453,
0,572,630,358,166,507,
0,565,621,355,164,501,
0,559,613,352,163,496,
0,551,605,349,163,489,
0,543,598,345,161,483,
0,537,673,343,172,478,
0,588,683,339,170,472,
0,579,673,337,168,468,
0,572,664,335,167,463,
0,564,652,332,166,510,
0,558,643,329,164,510,
0,551,635,327,163,504,
0,544,627,323,161,498,
0,537,619,321,160,493,
0,531,611,319,159,487,
0,525,603,316,179,481,
0,598,595,313,177,476,
0,590,588,311,176,471,
0,582,581,308,175,466,
0,575,572,307,173,515,
0,568,566,304,172,508,
0,560,559,302,170,503,
0,553,552,300,168,496,
0,547,546,297,167,491,
0,539,540,295,167,484,
0,592,535,292,194,480,
0,635,528,290,192,474,
0,627,523,287,190,470,
0,619,518,286,189,464,
0,610,511,308,187,508,
0,603,504,305,185,503,
0,595,499,303,184,497,
0,588,495,300,183,492,
0,579,489,296,181,486,
0,572,510,294,188,480,
0,583,627,291,189,474,
0,575,618,288,188,469,
0,568,609,287,186,463,
0,561,601,284,184,460,
0,555,591,342,183,521,
0,547,583,337,181,515,
0,542,576,334,179,509,
0,536,569,331,178,504,
0,527,563,327,177,497,
0,523,641,325,192,491,
0,624,755,322,190,486,
0,615,743,319,188,480,
0,607,732,333,186,476,
0,600,721,329,184,471,
0,591,708,327,183,494,
0,583,698,323,181,488,
0,577,688,321,179,483,
0,569,679,318,179,478,
0,561,670,316,177,472,
0,556,742,312,199,467,
0,608,729,310,198,462,
0,600,719,307,196,457,
0,591,708,304,195,452,
0,584,697,302,193,494,
0,577,686,300,191,487,
0,570,676,297,190,481,
0,563,667,295,188,476,
0,556,658,292,187,471,
0,548,649,290,185,465,
0,542,727,287,186,460,
0,595,715,286,184,455,
0,587,704,283,183,449,
0,579,695,281,182,445,
0,572,684,280,180,494,
0,564,672,276,179,487,
0,558,664,275,177,481,
0,551,655,273,176,476,
0,545,646,271,174,472,
0,537,638,269,174,467,
0,591,732,267,193,460,
0,624,719,265,192,455,
0,615,709,263,190,451,
0,608,699,262,188,446,
0,600,688,319,187,496,
0,592,678,315,185,491,
0,585,668,312,184,486,
0,578,659,310,182,480,
0,571,651,307,180,475,
0,563,642,304,199,470,
0,596,634,301,199,463,
0,588,625,298,197,458,
0,581,619,388,195,454,
0,574,611,402,194,448,
0,567,601,398,192,496,
0,560,594,393,191,490,
0,553,587,390,189,485,
0,546,579,386,188,480,
0,540,573,383,186,474,
0,532,634,380,205,470,
0,609,704,375,203,463,
0,601,693,371,201,457,
0,593,683,368,199,454,
0,585,673,365,198,463,
0,578,662,361,196,499,
0,571,653,359,194,494,
0,564,644,355,193,487,
0,558,636,353,191,483,
0,551,627,350,190,478,
0,543,681,348,196,472,
0,623,671,344,195,465,
0,614,662,341,193,461,
0,606,652,338,192,455,
0,599,643,335,190,492,
0,591,632,332,188,486,
0,583,624,330,187,480,
0,575,616,327,185,475,
0,569,608,325,184,470,
0,563,601,323,183,465,
0,555,700,319,198,460,
0,585,688,316,195,454,
0,578,679,348,195,449,
0,571,669,344,193,444,
0,563,659,340,192,495,
0,556,648,337,190,487,
0,550,639,334,188,483,
0,543,632,331,186,478,
0,537,624,327,184,472,
0,531,615,326,184,467,
0,591,608,322,184,462,
0,609,600,319,182,455,
0,601,593,317,180,451,
0,593,585,356,179,447,
0,586,579,364,177,471,
0,579,570,359,176,465,
0,572,563,356,175,460,
0,564,557,353,173,455,
0,558,551,350,172,450,
0,551,608,376,192,446,
0,669,758,371,191,440,
0,658,745,368,190,435,
0,649,734,364,188,431,
0,639,723,360,186,427,
0,632,712,358,184,476,
0,624,700,355,183,470,
0,615,690,352,182,465,
0,608,681,348,179,460,
0,601,671,345,178,455,
0,593,666,343,202,450,
0,641,659,339,199,446,
0,632,651,410,199,440,
0,624,642,543,196,435,
0,615,633,536,195,457,
0,608,626,529,193,484,
0,600,615,524,192,480,
0,593,608,518,190,473,
0,585,601,512,188,468,
0,579,593,508,187,463,
0,572,745,503,199,459,
0,564,732,496,198,454,
0,558,721,491,195,448,
0,551,711,575,194,443,
0,545,700,579,192,510,
0,539,691,572,191,503,
0,533,679,566,189,496,
0,527,670,560,188,491,
0,521,661,553,186,486,
0,516,652,547,184,480,
0,511,750,542,184,475,
0,590,737,534,182,470,
0,582,726,528,180,463,
0,574,716,524,179,459,
0,567,705,519,178,515,
0,560,696,513,176,508,
0,553,683,508,175,502,
0,547,674,504,174,496,
0,540,664,498,172,491,
0,534,656,494,183,486,
0,527,647,489,195,480,
0,521,639,483,194,475,
0,515,632,479,192,470,
0,510,624,608,191,463,
0,504,615,600,190,511,
0,499,608,591,188,504,
0,494,599,585,185,499,
0,489,591,578,184,494,
0,484,584,572,184,487,
0,480,579,566,190,483,
0,557,649,560,188,478,
0,595,639,552,187,472,
0,588,632,547,184,466,
0,580,623,541,184,461,
0,574,615,551,182,513,
0,567,607,716,180,508,
0,559,596,704,179,502,
0,551,589,696,177,496,
0,546,582,686,176,491,
0,540,645,678,188,486,
0,615,681,669,186,480,
0,605,671,659,184,473,
0,598,662,651,184,468,
0,590,653,643,182,496,
0,583,643,636,180,515,
0,575,636,628,179,508,
0,568,625,622,177,503,
0,561,616,615,176,497,
0,554,609,608,174,492,
0,548,604,602,203,487,
0,660,596,595,201,481,
0,648,590,588,199,475,
0,639,583,582,198,470,
0,632,575,575,196,523,
0,624,568,569,194,515,
0,615,562,563,193,510,
0,608,554,558,191,504,
0,600,547,552,189,498,
0,593,542,547,188,493,
0,586,536,542,195,487,
0,579,529,536,194,483,
0,571,524,570,192,476,
0,564,519,807,191,471,
0,558,513,793,189,524,
0,551,508,781,188,518,
0,544,503,770,186,512,
0,539,496,760,184,506,
0,532,491,749,183,500,
0,527,487,739,184,495,
0,543,643,729,184,489,
0,617,634,719,183,484,
0,607,625,709,182,478,
0,600,616,700,179,472,
0,591,608,692,179,467,
0,583,600,684,177,463,
0,577,593,675,176,458,
0,570,583,668,175,454,
0,563,575,659,173,449,
0,556,569,652,176,444,
0,554,563,646,175,440,
0,547,556,638,174,435,
0,540,550,738,172,431,
0,534,543,727,171,427,
0,528,536,717,169,473,
0,522,530,707,167,468,
0,516,524,698,167,463,
0,511,517,689,166,457,
0,505,511,681,164,453,
0,500,680,673,177,448,
0,633,724,664,176,444,
0,622,713,660,174,439,
0,614,704,682,172,433,
0,605,693,673,171,472,
0,598,684,664,169,470,
0,590,674,655,167,463,
0,583,665,648,167,459,
0,575,654,641,165,454,
0,568,646,633,164,449,
0,563,703,627,187,444,
0,556,692,620,185,440,
0,547,682,614,184,435,
0,542,672,678,182,430,
0,536,664,669,181,480,
0,529,654,660,179,473,
0,524,646,652,177,467,
0,518,637,644,176,463,
0,512,627,636,175,457,
0,507,619,629,173,453,
0,502,826,622,176,448,
0,592,811,615,174,444,
0,583,798,608,173,439,
0,575,785,600,172,433,
0,568,773,593,170,484,
0,561,761,588,169,479,
0,554,751,582,167,473,
0,547,740,575,167,468,
0,542,727,570,165,463,
0,536,717,564,170,459,
0,529,804,559,175,454,
0,589,792,553,174,449,
0,579,779,664,172,444,
0,572,768,652,171,439,
0,566,756,644,169,480,
0,558,745,636,167,473,
0,551,734,628,167,468,
0,545,721,621,166,463,
0,539,711,614,163,458,
0,532,763,608,187,454,
0,638,799,642,184,448,
0,647,785,709,184,444,
0,637,774,700,182,440,
0,628,762,688,180,433,
0,621,751,692,179,470,
0,612,739,684,177,464,
0,605,729,675,176,459,
0,598,716,666,174,455,
0,590,707,658,173,449,
0,583,778,651,181,444,
0,575,765,643,179,440,
0,569,753,636,178,435,
0,561,742,628,176,432,
0,555,731,619,175,483,
0,548,720,611,174,484,
0,542,710,605,172,479,
0,536,700,599,171,473,
0,530,688,591,169,467,
0,524,679,585,167,463,
0,519,819,580,177,458,
0,628,805,574,176,453,
0,620,792,568,174,448,
0,609,780,562,172,444,
0,601,768,556,172,508,
0,594,756,697,170,501,
0,587,745,748,168,495,
0,579,735,737,167,489,
0,572,721,728,166,483,
0,566,711,718,164,479,
0,560,803,708,174,473,
0,696,789,700,172,468,
0,686,776,691,171,463,
0,674,765,679,169,459,
0,664,753,671,167,507,
0,655,742,664,167,501,
0,647,732,655,166,496,
0,639,721,647,164,489,
0,632,708,641,163,484,
0,624,699,635,164,480,
0,615,689,627,163,474,
0,609,680,620,162,469,
0,601,671,612,161,463,
0,592,663,663,159,459,
0,585,655,654,159,453,
0,579,647,646,158,448,
0,572,638,637,156,444,
0,566,631,630,156,440,
0,559,620,622,154,435,
0,552,614,615,165,431,
0,578,608,608,163,427,
0,570,600,601,161,423,
0,563,593,595,161,419,
0,555,586,587,159,415,
0,547,579,580,158,474,
0,542,573,575,156,468,
0,536,567,569,156,463,
0,529,560,563,155,459,
0,524,551,558,153,454,
0,519,548,551,159,449,
0,519,542,547,157,444,
0,512,536,547,156,440,
0,507,531,798,155,435,
0,500,524,788,153,433,
0,496,519,776,152,487,
0,490,513,766,151,481,
0,486,508,755,150,476,
0,480,503,745,149,471,
0,476,496,736,147,465,
0,472,675,727,160,460,
0,520,664,716,159,455,
0,515,654,707,158,451,
0,508,644,699,156,446,
0,502,636,688,155,490,
0,496,627,679,154,491,
0,489,620,671,153,486,
0,484,611,664,152,480,
0,480,604,656,151,475,
0,474,594,649,152,470,
0,470,587,642,167,464,
0,508,579,635,166,460,
0,502,572,627,164,455,
0,496,566,621,163,450,
0,489,560,612,162,508,
0,483,552,606,161,499,
0,479,546,600,159,494,
0,473,540,593,158,488,
0,468,534,588,157,483,
0,463,527,582,163,478,
0,515,609,575,163,472,
0,560,600,569,163,467,
0,551,592,564,161,463,
0,545,585,559,159,457,
0,537,577,551,158,504,
0,531,571,546,157,499,
0,524,563,541,156,493,
0,519,556,536,155,487,
0,513,550,531,153,483,
0,507,601,526,166,478,
0,596,692,521,163,472,
0,588,682,516,162,467,
0,579,671,512,161,462,
0,572,664,507,159,457,
0,563,654,502,158,502,
0,557,644,496,156,496,
0,551,636,492,156,489,
0,543,628,488,154,484,
0,537,620,484,153,480,
0,531,651,480,155,474,
0,659,641,476,153,468,
0,648,632,472,152,463,
0,639,623,467,151,460,
0,632,615,463,150,460,
0,622,608,459,148,505,
0,614,600,455,147,499,
0,606,592,451,147,494,
0,599,585,448,145,488,
0,591,577,444,144,483,
0,583,710,440,159,478,
0,577,699,437,158,472,
0,571,688,433,156,467,
0,564,679,430,155,463,
0,557,669,427,153,519,
0,549,659,483,152,513,
0,543,651,485,152,508,
0,536,643,480,150,502,
0,531,633,475,148,496,
0,525,626,469,147,491,
0,519,615,464,155,486,
0,588,608,460,152,480,
0,580,600,455,152,476,
0,574,593,451,151,471,
0,567,586,448,149,527,
0,558,579,441,147,518,
0,551,572,438,147,512,
0,544,565,433,145,506,
0,539,559,430,144,500,
0,532,551,425,144,496,
0,532,668,422,156,489,
0,547,659,419,155,484,
0,541,649,415,153,480,
0,535,639,412,152,474,
0,527,632,409,152,531,
0,519,624,404,150,523,
0,515,615,401,149,516,
0,509,608,399,147,511,
0,504,600,396,147,504,
0,499,603,393,161,499,
0,585,732,390,166,494,
0,576,721,387,164,487,
0,569,711,384,163,483,
0,562,700,381,161,478,
0,554,691,379,159,519,
0,547,680,376,159,512,
0,540,671,372,158,505,
0,535,663,385,156,500,
0,527,654,381,155,495,
0,523,662,377,158,489,
0,518,678,374,156,483,
0,512,667,371,155,479,
0,507,658,368,154,473,
0,501,649,366,153,483,
0,494,639,363,152,521,
0,489,632,359,151,513,
0,484,624,358,150,508,
0,480,616,355,148,502,
0,475,609,352,147,497,
0,471,734,350,153,491,
0,519,723,348,152,486,
0,512,711,345,151,480,
0,507,702,343,149,476,
0,500,692,404,147,499,
0,494,682,519,147,492,
0,488,672,511,145,485,
0,483,664,505,144,480,
0,478,655,499,143,475,
0,472,646,495,143,470,
0,495,733,489,161,464,
0,566,719,484,159,460,
0,559,707,480,158,455,
0,551,697,475,156,451,
0,545,688,562,156,504,
0,536,679,596,154,497,
0,530,669,588,152,489,
0,524,659,580,152,484,
0,519,652,574,151,479,
0,512,643,568,152,474,
0,614,723,561,161,468,
0,624,708,555,159,463,
0,616,698,549,158,459,
0,608,688,543,156,455,
0,600,679,537,155,449,
0,591,670,531,154,445,
0,583,660,525,152,440,
0,577,652,519,152,435,
0,570,643,515,151,432,
0,563,635,510,159,427,
0,557,625,504,159,423,
0,550,617,499,158,419,
0,543,609,496,157,415,
0,537,602,491,156,412,
0,532,595,530,155,481,
0,524,588,524,153,476,
0,519,580,516,152,469,
0,513,574,511,151,463,
0,508,568,505,150,459,
0,503,659,500,182,454,
0,570,692,495,179,449,
0,563,682,490,178,444,
0,556,671,485,176,440,
0,548,663,481,175,467,
0,542,654,476,174,496,
0,534,645,472,172,490,
0,527,636,467,171,483,
0,521,628,462,169,478,
0,515,620,458,167,473,
0,511,710,454,175,467,
0,527,696,449,174,462,
0,520,686,446,172,457,
0,515,675,510,171,452,
0,508,667,503,169,516,
0,503,657,497,167,509,
0,496,648,492,167,504,
0,491,639,486,165,496,
0,486,632,480,163,491,
0,481,624,476,163,486,
0,510,770,472,168,480,
0,598,753,466,167,475,
0,590,742,462,166,470,
0,582,732,457,164,465,
0,575,720,453,163,497,
0,568,710,448,161,492,
0,559,700,443,160,486,
0,551,691,440,159,479,
0,546,680,435,158,474,
0,540,671,432,159,469,
0,534,664,428,169,463,
0,527,652,423,167,459,
0,521,644,421,167,455,
0,516,636,496,165,449,
0,511,627,489,163,504,
0,504,620,483,163,499,
0,498,612,492,161,492,
0,493,605,486,159,486,
0,487,598,481,159,480,
0,483,600,476,164,476,
0,560,717,471,163,471,
0,552,704,466,162,465,
0,545,694,462,160,460,
0,539,684,457,159,455,
0,532,674,452,158,505,
0,526,664,448,156,499,
0,519,655,443,156,494,
0,512,647,439,154,487,
0,507,639,434,152,482,
0,502,658,431,179,477,
0,580,648,426,177,472,
0,572,637,423,176,467,
0,566,629,475,174,462,
0,558,620,507,173,489,
0,551,612,536,172,504,
0,545,605,531,169,499,
0,536,598,523,168,494,
0,531,590,518,167,486,
0,524,583,512,166,481,
0,519,665,507,169,476,
0,587,655,501,167,471,
0,579,643,496,166,465,
0,572,634,491,164,460,
0,564,625,486,163,507,
0,558,617,481,162,500,
0,551,609,476,160,494,
0,543,601,471,159,488,
0,536,593,466,158,482,
0,529,587,462,157,478,
0,540,719,457,161,472,
0,574,707,453,159,467,
0,566,695,449,158,462,
0,560,684,587,156,457,
0,551,675,579,156,516,
0,545,665,572,154,510,
0,539,656,566,153,504,
0,531,647,558,152,498,
0,525,639,551,151,492,
0,519,632,545,154,486,
0,568,705,540,169,480,
0,571,695,534,167,476,
0,563,683,528,167,471,
0,556,672,523,166,465,
0,550,664,518,164,503,
0,543,654,512,163,497,
0,536,646,507,161,492,
0,529,638,501,159,484,
0,523,629,496,159,480,
0,517,621,492,177,475,
0,553,636,487,175,469,
0,545,627,482,174,463,
0,539,616,478,172,459,
0,532,609,473,170,455,
0,527,601,567,168,500,
0,519,594,560,167,495,
0,514,587,553,166,489,
0,507,579,545,164,483,
0,502,573,540,163,477,
0,496,595,534,182,472,
0,491,585,527,180,467,
0,486,578,522,179,462,
0,481,569,563,177,457,
0,476,562,579,176,504,
0,472,556,572,174,510,
0,467,550,566,172,504,
0,462,543,559,172,498,
0,456,537,551,169,491,
0,452,531,545,168,486,
0,449,638,540,167,480,
0,523,628,534,166,475,
0,515,620,527,165,471,
0,510,609,579,163,465,
0,504,601,702,162,505,
0,497,593,691,161,499,
0,492,585,682,159,494,
0,487,578,673,159,487,
0,480,571,663,157,481,
0,475,564,655,156,476,
0,522,641,647,170,472,
0,580,632,639,167,465,
0,572,623,632,167,461,
0,565,612,625,166,455,
0,558,604,618,164,513,
0,551,596,611,163,508,
0,544,588,604,161,502,
0,539,582,598,159,496,
0,531,574,590,159,489,
0,525,568,583,165,484,
0,639,620,577,167,479,
0,635,611,572,167,473,
0,626,604,566,166,468,
0,618,593,560,164,463,
0,611,585,553,163,505,
0,603,579,548,161,499,
0,595,571,543,159,494,
0,588,564,537,159,487,
0,579,558,531,158,481,
0,572,581,526,159,476,
0,574,641,521,158,472,
0,567,632,516,156,466,
0,560,624,665,156,461,
0,553,614,678,153,459,
0,547,606,668,153,496,
0,541,598,659,152,490,
0,535,590,652,151,484,
0,527,583,643,150,480,
0,521,575,634,148,472,
0,516,626,627,152,467,
0,584,635,620,150,463,
0,577,626,612,148,457,
0,570,617,606,147,453,
0,563,608,599,146,487,
0,556,600,591,145,480,
0,549,591,585,144,475,
0,543,583,579,143,470,
0,535,577,574,142,465,
0,527,569,566,141,459,
0,523,742,560,167,454,
0,596,728,554,165,448,
0,588,717,548,163,444,
0,580,707,543,163,440,
0,573,695,539,161,491,
0,566,684,532,159,484,
0,560,675,527,158,479,
0,552,665,523,157,473,
0,544,657,518,156,468,
0,539,647,511,155,463,
0,571,728,507,167,457,
0,607,716,502,167,452,
0,599,706,497,164,448,
0,591,696,492,163,443,
0,583,684,487,161,497,
0,575,674,483,160,491,
0,569,665,480,159,486,
0,563,656,475,158,480,
0,554,647,472,156,475,
0,547,646,467,162,468,
0,600,758,462,163,463,
0,591,746,458,162,458,
0,583,735,454,161,454,
0,577,724,465,159,449,
0,570,711,486,158,497,
0,563,701,480,156,491,
0,556,691,475,156,486,
0,550,681,470,155,480,
0,541,672,465,153,475,
0,536,668,459,161,468,
0,599,661,455,159,463,
0,590,652,451,158,459,
0,583,643,447,156,454,
0,575,633,443,156,463,
0,568,625,439,153,494,
0,561,617,435,152,487,
0,555,610,432,152,482,
0,547,603,428,150,477,
0,540,595,424,149,472,
0,534,662,420,167,465,
0,629,652,417,167,460,
0,620,642,414,165,455,
0,612,633,411,163,451,
0,604,623,408,162,497,
0,597,615,404,161,491,
0,590,607,401,159,485,
0,582,599,398,159,480,
0,575,591,395,157,474,
0,567,583,391,156,469,
0,560,675,387,164,463,
0,595,664,385,163,457,
0,587,655,382,161,453,
0,579,647,379,159,448,
0,572,636,376,159,496,
0,565,627,374,157,489,
0,558,619,371,156,484,
0,551,611,368,155,479,
0,545,603,366,153,473,
0,537,595,363,153,468,
0,542,704,359,171,462,
0,566,694,356,169,457,
0,558,684,361,167,452,
0,551,673,458,167,448,
0,545,662,452,166,511,
0,538,653,448,164,504,
0,531,644,443,163,499,
0,526,636,439,161,493,
0,519,627,434,159,487,
0,513,620,429,163,483,
0,604,655,425,163,476,
0,595,646,420,161,471,
0,588,636,417,159,465,
0,580,628,413,159,461,
0,573,617,409,157,510,
0,566,609,406,156,504,
0,559,601,401,155,497,
0,551,595,399,153,492,
0,546,588,395,152,487,
0,539,641,391,171,481,
0,616,683,387,169,475,
0,608,673,384,167,470,
0,600,664,380,167,464,
0,591,654,377,165,485,
0,584,643,374,163,505,
0,577,635,371,162,499,
0,571,626,368,160,494,
0,563,618,364,159,488,
0,556,609,361,158,483,
0,550,728,359,170,478,
0,660,719,355,167,472,
0,652,708,352,167,467,
0,643,697,350,165,462,
0,634,688,348,164,513,
0,626,675,344,163,507,
0,618,667,343,161,500,
0,611,658,339,159,496,
0,603,649,337,159,489,
0,595,639,335,158,484,
0,587,664,332,169,480,
0,579,654,330,167,472,
0,573,644,327,167,467,
0,566,636,326,165,463,
0,560,627,370,164,516,
0,553,617,399,162,510,
0,547,609,396,161,504,
0,540,603,391,159,499,
0,535,595,388,159,493,
0,528,588,384,161,487,
0,556,614,380,167,483,
0,577,606,376,164,476,
0,569,597,373,163,472,
0,563,590,370,162,466,
0,556,582,367,161,510,
0,548,574,363,159,504,
0,542,568,359,158,497,
0,536,560,357,157,492,
0,529,553,353,156,487,
0,524,565,351,189,481,
0,585,672,347,190,476,
0,577,663,344,188,470,
0,570,653,341,186,464,
0,563,644,338,184,460,
0,556,636,335,183,505,
0,549,625,333,181,499,
0,543,616,330,179,494,
0,536,608,327,179,487,
0,530,600,325,177,483,
0,524,647,323,198,478,
0,638,660,319,195,472,
0,629,651,318,193,466,
0,620,642,316,192,462,
0,612,633,313,190,492,
0,604,624,312,188,499,
0,597,615,309,187,494,
0,590,607,307,185,488,
0,583,600,305,184,483,
0,575,591,303,182,478,
0,569,649,301,182,472,
0,568,639,299,180,466,
0,561,631,296,179,462,
0,555,623,295,177,456,
0,548,614,339,176,492,
0,542,606,335,175,487,
0,536,596,332,173,481,
0,529,588,329,172,476,
0,524,582,326,171,471,
0,518,574,323,169,465,
0,513,720,320,176,460,
0,547,708,317,174,455,
0,541,698,315,173,450,
0,535,689,363,172,445,
0,527,679,359,170,492,
0,521,669,355,168,487,
0,515,658,352,167,480,
0,510,649,348,166,476,
0,504,639,345,164,470,
0,499,632,342,172,465,
0,514,713,339,180,460,
0,603,702,335,179,454,
0,595,692,332,177,449,
0,587,682,329,176,445,
0,579,672,327,175,511,
0,572,664,323,173,504,
0,566,652,321,172,499,
0,559,643,319,169,494,
0,551,635,316,168,487,
0,545,627,313,168,483,
0,540,675,311,167,478,
0,540,666,307,166,472,
0,534,656,305,164,466,
0,527,647,303,163,462,
0,522,639,300,162,524,
0,516,631,297,161,517,
0,511,620,295,159,511,
0,505,612,294,159,505,
0,500,604,291,157,499,
0,495,687,290,169,495,
0,491,728,287,167,488,
0,484,718,295,166,483,
0,480,707,401,164,477,
0,475,696,396,163,499,
0,470,687,391,162,519,
0,465,678,388,161,514,
0,461,665,385,159,508,
0,456,657,382,158,502,
0,452,647,377,156,497,
0,448,699,375,177,492,
0,560,688,371,175,486,
0,552,678,367,174,480,
0,545,668,364,172,475,
0,539,659,476,171,545,
0,532,650,547,169,537,
0,526,641,541,167,531,
0,519,632,535,166,525,
0,514,623,528,164,519,
0,508,615,523,163,513,
0,504,655,518,192,508,
0,497,645,512,190,502,
0,492,636,505,188,496,
0,486,627,500,187,489,
0,481,620,495,185,539,
0,476,611,490,184,531,
0,472,604,486,183,525,
0,467,594,480,180,519,
0,462,587,476,179,513,
0,457,587,472,178,508,
0,476,718,467,179,502,
0,545,706,463,179,496,
0,538,696,457,177,490,
0,531,686,453,176,485,
0,526,676,449,174,527,
0,519,667,444,173,520,
0,513,658,440,172,515,
0,507,647,437,169,509,
0,502,639,433,168,504,
0,496,633,430,172,498,
0,526,685,425,172,492,
0,542,675,422,170,487,
0,536,665,417,169,481,
0,528,655,414,167,476,
0,523,647,472,166,527,
0,516,639,467,165,520,
0,511,631,462,163,515,
0,504,620,456,162,509,
0,499,612,452,161,504,
0,494,605,448,172,498,
0,600,598,444,171,492,
0,588,590,439,169,487,
0,582,583,475,167,480,
0,574,575,469,167,518,
0,567,569,463,165,513,
0,560,563,460,164,507,
0,553,555,455,163,501,
0,547,548,450,161,496,
0,540,542,446,159,490,
0,535,688,441,161,484,
0,595,683,436,159,480,
0,584,672,432,159,475,
0,577,664,428,158,468,
0,569,654,423,156,507,
0,563,645,419,155,500,
0,556,636,415,153,495,
0,550,625,412,152,488,
0,543,617,408,152,483,
0,537,610,406,151,479,
0,531,708,403,171,473,
0,557,697,399,169,468,
0,548,688,396,167,463,
0,542,678,391,166,457,
0,536,668,388,165,505,
0,529,659,385,163,499,
0,523,650,382,162,494,
0,517,639,379,161,488,
0,511,632,376,159,483,
0,505,624,373,166,478,
0,500,647,370,176,472,
0,553,638,368,175,467,
0,545,630,364,173,463,
0,539,621,360,172,456,
0,532,614,358,170,510,
0,526,606,355,168,504,
0,519,598,353,167,498,
0,513,588,350,166,492,
0,508,582,348,164,487,
0,502,608,345,188,483,
0,588,639,343,185,476,
0,613,630,339,184,472,
0,604,621,336,183,467,
0,595,612,334,180,461,
0,588,604,332,179,497,
0,580,596,329,178,492,
0,574,589,327,176,486,
0,567,579,324,175,480,
0,560,572,322,173,475,
0,553,631,319,188,471,
0,639,620,317,185,464,
0,631,611,319,184,460,
0,620,604,316,183,455,
0,612,595,313,181,510,
0,604,588,396,179,503,
0,597,580,391,178,497,
0,590,573,388,176,491,
0,583,564,384,175,486,
0,575,558,381,174,480,
0,569,681,377,184,475,
0,579,670,374,182,470,
0,572,660,370,180,465,
0,563,652,366,179,460,
0,556,643,463,178,465,
0,550,634,575,176,459,
0,543,625,568,175,454,
0,537,617,561,173,449,
0,531,608,555,172,445,
0,526,600,548,171,441,
0,519,641,543,176,436,
0,641,632,536,175,432,
0,632,624,531,174,428,
0,622,615,524,172,423,
0,614,607,616,171,482,
0,606,599,624,169,476,
0,598,591,615,167,471,
0,591,583,608,167,465,
0,583,575,601,166,460,
0,577,568,595,174,455,
0,570,709,588,177,451,
0,587,698,580,176,446,
0,579,688,575,175,441,
0,570,678,567,173,437,
0,563,669,561,172,486,
0,556,659,555,170,480,
0,551,651,549,169,475,
0,543,642,543,167,470,
0,537,632,538,166,464,
0,531,664,532,172,460,
0,632,691,527,171,455,
0,623,681,521,169,449,
0,615,671,517,167,446,
0,605,663,511,166,441,
0,597,654,505,165,490,
0,590,644,500,163,484,
0,582,636,496,162,479,
0,575,627,492,161,473,
0,568,617,487,159,468,
0,562,709,483,180,463,
0,606,697,478,178,458,
0,598,687,473,176,454,
0,590,678,470,175,449,
0,581,668,577,174,505,
0,574,659,598,172,498,
0,567,649,591,171,492,
0,560,641,583,169,487,
0,553,632,577,167,481,
0,547,623,571,167,476,
0,540,631,564,175,471,
0,536,621,558,174,465,
0,531,613,551,172,461,
0,524,606,546,171,455,
0,518,598,540,169,463,
0,512,591,534,167,459,
0,507,583,527,167,454,
0,502,575,523,165,449,
0,496,569,518,164,444,
0,492,561,512,163,440,
0,487,556,508,164,435,
0,574,548,503,163,431,
0,567,543,497,162,427,
0,560,536,492,160,423,
0,551,531,487,159,481,
0,544,524,483,159,476,
0,538,519,478,157,470,
0,531,514,473,156,464,
0,526,508,470,155,460,
0,519,527,465,167,455,
0,515,636,461,169,450,
0,534,627,456,167,445,
0,527,619,452,166,440,
0,521,611,493,164,436,
0,514,603,668,163,480,
0,508,595,658,162,473,
0,503,587,649,161,468,
0,497,579,641,159,463,
0,492,572,633,158,458,
0,487,623,627,171,454,
0,553,639,619,169,448,
0,544,631,611,167,444,
0,538,622,605,167,440,
0,531,614,598,165,435,
0,524,606,590,163,487,
0,518,598,583,163,481,
0,511,590,577,161,476,
0,505,583,571,159,471,
0,500,575,566,159,465,
0,495,633,560,175,460,
0,543,624,553,173,455,
0,537,615,547,172,451,
0,531,607,543,171,446,
0,524,600,537,169,447,
0,516,591,531,167,472,
0,510,583,525,166,467,
0,504,575,519,165,462,
0,499,569,515,163,457,
0,494,563,510,162,452,
0,488,718,505,169,448,
0,564,705,500,167,443,
0,557,696,496,167,438,
0,550,685,492,166,433,
0,542,675,518,164,487,
0,535,665,510,163,479,
0,528,657,504,161,473,
0,523,647,499,160,467,
0,516,639,494,159,463,
0,511,632,489,158,457,
0,505,726,484,176,452,
0,535,713,480,175,448,
0,527,704,476,174,444,
0,521,693,472,172,439,
0,514,684,467,171,505,
0,508,673,462,169,497,
0,502,664,458,167,491,
0,497,655,454,167,486,
0,492,647,451,166,480,
0,486,639,447,166,475,
0,481,630,443,181,470,
0,480,622,440,179,465,
0,476,614,435,177,460,
0,471,606,432,176,455,
0,465,599,428,175,504,
0,460,591,423,174,496,
0,455,583,420,172,490,
0,451,577,417,171,485,
0,448,570,414,169,480,
0,444,625,411,175,475,
0,569,696,407,176,469,
0,560,687,403,175,464,
0,553,676,541,173,460,
0,546,667,534,172,455,
0,537,658,527,171,459,
0,531,649,520,169,452,
0,526,639,515,167,448,
0,519,632,510,167,443,
0,513,624,504,166,439,
0,508,665,499,171,435,
0,555,669,494,169,430,
0,547,659,489,167,425,
0,541,650,484,166,422,
0,535,641,480,165,440,
0,526,632,475,163,476,
0,519,624,468,163,470,
0,515,616,464,161,463,
0,508,608,460,159,459,
0,504,601,455,159,455,
0,497,687,451,167,449,
0,546,676,448,167,444,
0,540,667,444,165,440,
0,532,657,490,163,435,
0,526,648,550,162,495,
0,519,639,543,161,487,
0,512,632,535,159,481,
0,507,623,529,159,476,
0,501,615,524,157,471,
0,496,607,518,156,465,
0,532,758,512,173,460,
0,611,745,507,171,455,
0,602,734,583,169,451,
0,595,723,633,167,446,
0,587,712,625,167,502,
0,577,702,617,166,495,
0,571,692,608,164,487,
0,564,683,601,163,483,
0,557,673,595,161,477,
0,551,665,588,161,472,
0,616,769,581,167,467,
0,625,758,575,165,462,
0,615,746,568,163,457,
0,608,735,563,163,452,
0,600,724,557,161,503,
0,591,713,551,159,496,
0,583,704,543,159,489,
0,577,695,539,158,484,
0,569,685,532,156,479,
0,563,675,527,181,474,
0,595,703,523,182,468,
0,588,691,518,179,463,
0,579,682,512,177,459,
0,572,672,507,176,454,
0,566,664,503,175,499,
0,557,655,496,174,493,
0,551,647,492,172,486,
0,543,639,487,171,481,
0,538,630,483,169,476,
0,532,740,479,203,471,
0,653,801,473,199,465,
0,643,787,470,198,460,
0,635,775,465,196,455,
0,627,764,461,195,470,
0,619,752,457,193,489,
0,609,742,452,192,484,
0,601,731,448,190,478,
0,593,721,444,188,472,
0,587,711,440,187,467,
0,579,752,437,185,462,
0,595,737,433,184,457,
0,588,727,430,182,452,
0,580,716,425,180,448,
0,573,705,423,179,512,
0,567,696,419,178,504,
0,558,687,414,177,499,
0,551,678,411,176,492,
0,545,668,408,174,487,
0,540,660,404,172,481,
0,543,655,401,177,476,
0,602,644,398,176,471,
0,594,636,463,174,466,
0,587,629,504,172,461,
0,579,621,499,171,517,
0,572,614,493,169,511,
0,563,606,487,168,504,
0,557,599,481,167,497,
0,550,591,476,166,492,
0,543,585,472,167,487,
0,636,624,467,180,481,
0,643,612,462,178,476,
0,635,604,457,177,472,
0,626,596,454,176,466,
0,619,588,481,174,515,
0,610,582,476,172,508,
0,601,575,470,171,503,
0,593,568,464,169,496,
0,586,561,460,167,491,
0,579,556,455,179,486,
0,620,588,451,178,480,
0,611,577,446,176,475,
0,604,571,442,175,470,
0,596,563,438,174,465,
0,589,556,434,172,508,
0,582,550,430,171,502,
0,572,543,425,169,496,
0,566,537,422,167,488,
0,560,531,417,167,483,
0,553,657,414,167,479,
0,583,704,410,166,472,
0,575,691,407,164,467,
0,568,681,403,163,463,
0,560,671,399,161,504,
0,553,662,396,160,514,
0,547,654,393,159,508,
0,540,644,390,158,500,
0,534,636,387,157,495,
0,527,628,384,156,491,
0,522,710,380,169,484,
0,624,697,377,167,480,
0,615,685,375,166,475,
0,608,675,535,164,469,
0,600,665,527,163,523,
0,592,656,521,161,515,
0,585,647,515,160,510,
0,575,639,508,159,502,
0,569,631,504,158,496,
0,563,623,498,157,492,
0,556,731,493,156,486,
0,578,719,487,155,480,
0,571,705,533,153,476,
0,563,696,526,152,471,
0,556,686,520,152,524,
0,550,676,519,151,517,
0,543,667,513,150,511,
0,536,658,507,148,504,
0,529,649,501,147,498,
0,524,641,496,148,493,
0,641,791,491,149,487,
0,631,777,486,147,482,
0,622,763,481,147,477,
0,614,751,476,145,472,
0,607,740,472,144,529,
0,599,729,467,143,523,
0,591,719,463,142,517,
0,582,708,457,141,510,
0,575,699,454,140,504,
0,568,739,449,151,499,
0,568,809,444,150,492,
0,561,796,440,148,487,
0,555,780,565,147,483,
0,547,768,620,146,477,
0,542,757,612,144,531,
0,536,745,605,143,524,
0,529,735,598,142,518,
0,523,724,589,141,511,
0,516,715,583,140,505,
0,512,775,575,152,499,
0,572,768,569,151,494,
0,564,756,563,150,488,
0,558,742,591,148,483,
0,551,731,583,147,540,
0,543,720,575,145,540,
0,537,711,569,144,534,
0,531,700,563,143,527,
0,524,691,556,142,519,
0,518,681,550,141,515,
0,512,699,544,149,508,
0,556,688,539,147,503,
0,548,679,604,147,497,
0,542,667,643,145,492,
0,536,659,635,143,543,
0,528,650,627,143,536,
0,523,642,620,142,530,
0,515,633,612,140,524,
0,510,626,603,140,517,
0,504,619,596,139,511,
0,518,643,590,155,505,
0,568,633,583,153,500,
0,561,624,577,152,495,
0,555,615,571,151,489,
0,547,607,564,150,547,
0,541,600,559,148,540,
0,535,592,553,147,534,
0,527,585,547,146,527,
0,520,579,540,145,519,
0,515,572,536,158,514,
0,542,615,529,166,508,
0,535,607,524,164,503,
0,527,600,519,163,497,
0,522,589,514,161,492,
0,516,582,509,160,528,
0,510,575,504,159,522,
0,504,568,499,158,516,
0,497,561,495,156,510,
0,492,555,489,156,504,
0,487,588,485,159,498,
0,569,645,480,158,492,
0,561,636,476,157,487,
0,554,627,472,156,482,
0,547,616,467,154,480,
0,540,608,463,153,522,
0,535,600,459,152,515,
0,527,593,455,151,510,
0,520,585,451,150,504,
0,515,578,446,148,497,
0,510,679,443,166,492,
0,586,699,439,163,487,
0,578,688,435,162,481,
0,571,679,432,161,476,
0,563,667,428,159,534,
0,557,657,423,158,526,
0,551,648,420,157,519,
0,543,639,417,156,513,
0,536,632,414,154,508,
0,529,624,409,153,502,
0,527,729,407,179,496,
0,605,718,403,177,490,
0,597,707,399,176,485,
0,590,695,396,175,480,
0,582,685,393,172,526,
0,575,675,391,172,519,
0,568,665,387,170,513,
0,561,657,385,168,508,
0,552,647,382,167,502,
0,546,639,378,167,495,
0,545,636,376,178,489,
0,562,627,372,176,484,
0,556,620,458,175,480,
0,548,610,572,173,473,
0,542,603,565,172,513,
0,536,595,558,170,507,
0,529,588,551,169,501,
0,524,580,545,167,496,
0,516,574,540,167,490,
0,511,568,532,167,483,
0,527,665,527,172,478,
0,520,655,521,169,473,
0,515,647,515,167,467,
0,508,635,510,167,463,
0,504,627,505,166,514,
0,497,619,500,164,508,
0,492,610,496,163,502,
0,487,603,491,161,496,
0,481,595,486,160,491,
0,476,620,480,174,484,
0,564,631,476,172,480,
0,556,622,472,171,474,
0,550,614,467,169,469,
0,543,604,506,167,487,
0,536,595,639,166,512,
0,529,588,632,164,505,
0,524,580,624,163,500,
0,518,573,615,162,495,
0,511,567,607,161,489,
0,505,674,600,178,483,
0,620,664,593,176,477,
0,611,653,587,175,472,
0,604,644,580,173,467,
0,595,633,574,172,515,
0,588,624,568,170,508,
0,581,616,561,168,502,
0,574,608,556,167,496,
0,567,600,550,166,491,
0,559,593,543,165,486,
0,551,660,537,166,479,
0,568,651,531,164,473,
0,561,641,527,163,468,
0,554,633,521,162,463,
0,547,623,516,161,515,
0,541,614,511,159,510,
0,536,606,506,158,504,
0,529,598,501,156,497,
0,523,591,496,156,492,
0,515,583,491,158,487,
0,563,716,486,167,480,
0,572,704,481,166,475,
0,565,694,478,164,470,
0,558,684,472,163,464,
