=~=~=~=~=~=~=~=~=~=~=~= PuTTY log 2021.04.22 11:20:17 =~=~=~=~=~=~=~=~=~=~=~=
,448,332,391,
0,579,758,444,329,389,
0,571,746,438,327,385,
0672,
0,634,673,478,287,466,
0,624,
0,668,626,434,271,486,
0,659,618,430,269,481,
0,650,611,425,267,476,
0,642,603,422,264,472,
0,634,673,478,287,466,
0,624,664,470,284,460,
0,615,654,465,281,455,
0,738,646,460,279,451,
0,727,636,455,276,475,
0,752,628,451,274,470,
0,742,619,446bbj
0,731,611,441,269,460,
0,720,603,437,267,455,
0,711,596,433,281,451,
StartUp!
126,655,665,519,339,332,
0,649,791,563,336,330,
0,643,780,600,334,327,
0,637,771,593,332,326,
0,632,763,588,329,323,
0,625,753,583,327,321,
0,620,745,577,326,319,
0,659,737,573,323,339,
0,679,728,568,320,337,
0,673,721,563,319,335,
0,667,711,557,316,332,
0,657,701,551,313,328,
0,647,691,543,311,326,
0,639,782,539,318,322,
0,631,768,534,315,319,
0,623,756,527,312,316,
0,615,745,522,310,313,
0,608,732,518,306,339,
0,682,721,512,304,335,
0,671,711,507,301,332,
0,664,701,502,299,328,
0,655,691,496,295,326,
0,644,683,491,295,323,
0,636,742,487,297,319,
0,627,731,482,295,316,
0,620,719,478,293,313,
0,612,710,473,291,311,
0,606,697,468,287,335,
0,675,687,463,286,332,
0,665,678,460,283,327,
0,656,672,459,283,327,
0,652,664,455,280,324,
0,641,655,460,332,320,
0,633,752,537,327,318,
0,625,740,531,323,315,
0,617,729,525,320,312,
0,632,719,519,318,310,
0,644,707,513,315,345,
0,696,696,508,312,342,
0,686,687,503,309,338,
0,677,678,497,306,335,
0,668,668,492,304,332,
0,658,725,533,340,327,
0,648,770,553,335,325,
0,641,758,546,333,323,
0,664,747,540,330,319,
0,689,736,534,327,339,
1,745,722,528,323,358,
1,733,711,523,319,353,
1,723,702,517,318,351,
2,711,692,511,315,347,
3,703,683,506,312,344,
3,692,799,564,353,339,
3,682,783,556,350,337,
3,673,771,550,347,334,
4,726,760,543,344,331,
4,715,748,537,340,376,
4,752,735,531,336,371,
4,740,724,526,334,367,
4,730,714,519,331,364,
5,719,704,515,327,359,
5,710,695,510,325,356,
5,699,802,575,356,352,
5,689,788,568,353,350,
5,679,775,561,350,346,
6,672,764,555,347,344,
6,664,753,548,344,392,
6,724,739,542,339,388,
5,713,728,536,337,384,
6,704,718,530,334,380,
6,694,708,524,331,376,
6,685,699,519,335,374,
6,674,798,604,350,368,
6,665,785,596,346,365,
6,657,773,589,344,362,
6,650,761,582,339,359,
6,642,750,575,337,379,
5,704,736,569,333,376,
6,694,726,563,330,371,
6,684,716,556,327,368,
5,675,705,551,324,364,
5,664,696,545,356,361,
5,655,795,557,352,357,
5,647,783,551,349,354,
5,639,771,544,345,351,
5,632,759,539,343,348,
5,627,748,532,339,380,
4,679,734,527,335,376,
4,670,723,521,332,372,
4,662,713,516,329,368,
4,652,704,511,327,365,
4,643,755,507,355,361,
4,634,807,515,352,358,
4,626,793,510,348,355,
4,619,782,504,345,352,
4,611,769,499,342,358,
4,671,758,494,339,366,
4,666,744,489,335,363,
4,658,734,485,332,359,
4,648,723,480,329,355,
3,639,713,476,327,352,
3,632,822,512,368,350,
3,623,810,543,364,345,
4,615,797,536,359,343,
4,608,785,531,357,339,
3,600,773,525,353,359,
3,669,761,519,351,355,
3,659,748,513,347,352,
4,650,737,508,344,348,
3,642,726,503,340,344,
4,633,716,497,337,342,
4,624,837,505,367,338,
3,615,823,498,363,335,
4,608,809,492,359,332,
3,601,796,487,356,329,
4,595,784,483,353,374,
3,659,772,478,350,369,
4,651,759,473,345,366,
3,642,748,468,343,362,
3,633,736,464,339,359,
3,625,727,460,340,355,
4,616,830,541,356,352,
4,608,816,531,353,348,
3,601,803,526,350,345,
3,594,791,519,347,342,
3,588,779,515,344,396,
3,651,764,508,340,391,
3,642,752,504,336,387,
3,633,742,498,334,384,
3,625,731,492,331,380,
3,617,721,487,355,376,
3,608,819,551,351,372,
3,600,806,542,348,368,
3,593,792,536,344,364,
3,587,780,530,342,361,
3,580,769,524,339,385,
3,636,755,519,335,382,
3,627,743,513,332,377,
3,619,734,508,329,374,
3,611,723,503,326,371,
3,604,763,498,359,368,
3,594,815,534,356,364,
3,587,801,526,353,359,
3,586,790,519,350,356,
3,611,777,514,347,359,
3,651,766,508,344,371,
3,641,751,504,340,368,
3,632,740,497,336,364,
2,624,729,493,334,361,
3,616,719,487,331,358,
3,609,824,489,363,355,
2,600,820,514,359,352,
2,591,807,507,355,348,
2,585,794,502,352,344,
2,579,782,496,349,369,
2,635,771,491,345,365,
3,626,755,486,343,361,
2,618,745,481,339,359,
2,610,734,476,335,355,
2,603,724,472,334,352,
2,595,830,530,355,348,
2,586,816,521,352,345,
2,579,803,515,348,342,
1,573,790,510,345,339,
2,567,777,504,342,356,
2,625,766,499,339,353,
1,616,752,493,335,350,
1,608,741,487,332,347,
1,601,731,483,329,344,
2,593,720,478,328,340,
1,587,828,527,348,337,
1,577,814,519,345,334,
1,571,800,512,342,331,
1,598,788,507,339,327,
1,590,776,502,335,350,
1,632,764,496,333,347,
1,624,751,491,329,344,
1,615,739,486,327,340,
1,608,729,480,323,337,
1,600,719,476,351,334,
1,593,825,519,347,331,
1,583,812,511,344,327,
1,577,799,505,340,324,
1,632,786,499,337,321,
1,626,775,494,335,351,
1,660,763,488,332,347,
1,652,749,483,327,344,
1,643,738,479,324,340,
1,635,728,473,322,337,
1,627,755,470,342,334,
1,619,809,522,337,331,
1,609,796,514,334,327,
0,615,784,508,332,324,
1,652,772,504,327,334,
0,676,760,497,326,359,
1,665,750,492,323,355,
0,656,736,487,319,352,
0,647,726,482,316,349,
0,639,716,478,314,345,
0,632,815,489,340,343,
0,624,816,509,337,339,
0,615,803,502,334,336,
0,607,792,496,331,332,
0,600,779,491,327,340,
0,638,768,486,324,337,
0,629,755,480,321,334,
0,621,742,476,319,331,
0,613,732,471,316,327,
0,606,721,466,313,324,
0,599,831,508,346,322,
0,591,817,504,343,319,
0,582,804,497,339,316,
0,575,792,492,336,313,
0,568,780,487,333,339,
0,612,768,481,330,335,
0,604,756,476,327,332,
0,596,743,472,323,327,
0,589,732,467,321,326,
0,582,722,462,321,323,
0,575,829,511,347,319,
0,568,815,504,344,316,
0,560,801,497,340,313,
0,553,790,492,337,311,
0,547,777,487,334,327,
0,601,766,481,331,324,
0,593,754,476,327,321,
0,585,740,472,324,319,
0,579,729,467,321,316,
0,572,719,462,341,313,
0,565,828,490,337,310,
0,558,814,484,334,307,
0,550,801,478,332,304,
0,543,788,472,327,302,
0,539,776,467,326,300,
0,590,765,463,323,297,
0,583,754,457,319,295,
0,575,740,454,316,292,
0,568,729,449,313,291,
0,562,780,446,343,287,
0,556,838,491,339,286,
0,548,824,485,335,284,
0,541,811,478,332,281,
0,536,798,473,329,280,
0,568,786,468,327,310,
0,587,774,463,323,306,
0,579,763,459,320,304,
0,572,748,454,317,300,
0,565,737,449,315,298,
0,559,825,451,339,295,
0,551,824,493,336,293,
0,545,812,487,333,290,
0,537,799,481,330,287,
0,531,786,476,327,325,
0,585,775,471,324,321,
0,577,763,465,321,318,
0,570,752,461,319,315,
0,563,738,455,316,312,
0,556,728,451,312,310,
0,550,831,487,338,307,
0,543,817,482,335,304,
0,537,804,476,332,301,
0,529,792,470,328,298,
0,524,780,465,326,332,
0,582,768,460,323,327,
0,574,757,455,319,325,
0,568,745,451,318,322,
0,560,732,447,314,319,
0,553,723,443,312,316,
0,547,826,504,331,313,
0,540,812,498,327,310,
0,534,799,492,324,307,
0,527,787,486,321,304,
0,521,775,481,319,318,
0,579,764,476,316,314,
0,571,752,471,313,312,
0,564,741,466,311,308,
0,557,728,461,307,305,
0,551,718,456,333,304,
0,544,820,510,329,300,
0,537,807,504,326,297,
0,530,794,498,323,295,
0,545,782,492,319,292,
0,539,770,487,317,326,
0,580,759,481,315,323,
0,572,747,476,312,319,
0,566,736,472,309,317,
0,559,723,466,305,313,
0,551,760,462,339,312,
0,546,834,527,335,308,
0,540,820,519,333,305,
0,531,807,514,329,303,
0,526,794,507,327,300,
0,563,783,502,323,332,
0,577,771,496,321,327,
0,571,760,491,318,325,
0,563,748,486,316,322,
0,556,735,480,312,319,
0,550,823,476,336,316,
0,543,831,483,334,313,
0,537,818,478,330,311,
0,529,806,472,327,307,
0,524,793,467,324,341,
0,588,781,462,321,336,
0,579,769,457,319,334,
0,572,758,453,316,330,
0,564,747,449,313,327,
0,558,734,444,310,324,
0,551,840,496,330,321,
0,544,825,492,327,318,
0,539,812,487,323,316,
0,531,799,481,321,312,
0,525,787,475,319,344,
0,585,775,470,316,339,
0,577,764,465,312,336,
0,570,752,460,310,333,
0,563,742,455,307,329,
0,556,728,451,305,327,
0,551,851,476,335,324,
0,543,835,470,332,321,
0,537,822,465,329,318,
0,531,809,460,327,316,
0,524,796,455,323,361,
0,585,783,449,320,358,
0,578,772,444,318,354,
0,571,761,440,315,351,
0,563,747,436,312,348,
0,557,737,432,336,344,
0,551,870,487,335,341,
0,543,855,481,332,337,
0,537,839,476,327,335,
0,530,827,471,326,332,
0,524,814,465,323,337,
0,583,801,460,319,334,
0,575,789,455,316,331,
0,568,777,451,313,327,
0,561,763,446,312,325,
0,555,806,442,337,323,
0,548,888,499,334,319,
0,542,871,492,330,316,
0,536,856,487,327,315,
0,528,843,482,323,312,
0,560,830,476,321,340,
0,579,816,471,319,337,
0,572,803,465,316,334,
0,565,792,461,313,331,
0,558,777,455,310,327,
0,551,870,453,335,324,
0,545,901,492,331,322,
0,539,885,487,327,319,
0,532,870,481,325,316,
0,526,856,476,322,313,
0,577,841,470,319,310,
0,569,828,465,316,307,
0,562,816,460,313,305,
0,555,803,455,311,302,
0,548,788,451,308,300,
0,543,892,514,336,297,
0,536,902,556,333,295,
0,529,884,550,329,292,
0,524,868,543,327,290,
0,516,855,536,324,319,
0,579,841,529,321,324,
0,572,828,524,318,321,
0,565,815,518,316,319,
0,558,803,513,312,316,
0,551,787,508,310,313,
0,545,898,583,323,310,
0,539,902,575,320,307,
0,532,883,569,318,304,
0,526,867,563,315,302,
0,519,854,555,312,333,
0,583,839,548,310,327,
0,575,827,543,307,325,
0,568,814,536,304,322,
0,561,802,531,302,319,
0,555,787,525,300,316,
0,548,901,519,319,313,
0,542,902,515,318,311,
0,536,883,510,315,307,
0,529,867,504,312,305,
0,523,854,497,309,339,
0,583,839,493,306,335,
0,575,826,487,304,332,
0,569,814,483,301,329,
0,563,801,479,299,327,
0,556,838,475,319,323,
0,550,903,521,331,319,
0,542,903,515,327,318,
0,536,883,510,324,315,
0,530,867,504,321,312,
0,562,855,497,319,344,
0,595,839,492,316,340,
0,587,827,487,312,337,
0,580,815,482,310,334,
0,572,802,477,307,331,
0,566,875,473,335,327,
0,560,903,502,332,324,
0,552,893,496,327,321,
0,546,876,491,325,319,
0,540,860,486,322,316,
0,601,847,480,319,347,
0,592,833,474,316,342,
0,584,820,470,313,339,
0,577,807,465,312,335,
0,571,796,460,308,332,
0,564,891,499,3StartUp!
127,484,828,455,339,340,
0,481,819,452,337,338,
0,477,809,449,335,335,
0,499,799,446,333,347,
0,525,791,443,331,344,
0,519,782,440,328,342,
0,515,772,435,327,339,
0,511,764,432,325,336,
0,506,755,430,322,334,
0,502,748,426,319,332,
0,498,889,448,326,329,
0,492,876,443,323,327,
0,486,861,436,319,323,
0,480,847,432,318,319,
0,476,833,428,315,319,
0,516,820,423,312,317,
0,511,807,419,310,315,
0,504,792,415,307,312,
0,499,780,412,304,310,
0,493,769,408,308,307,
0,487,819,433,316,304,
0,483,806,428,312,302,
0,476,793,423,310,299,
0,471,780,419,307,295,
0,466,769,415,305,335,
0,507,758,410,303,331,
0,500,747,407,300,327,
0,495,734,403,296,324,
0,489,723,399,295,321,
0,483,759,396,319,319,
0,479,865,435,317,318,
0,476,851,431,315,315,
0,470,837,425,312,312,
0,527,824,422,309,308,
0,531,812,417,306,359,
0,568,798,413,304,355,
0,561,786,408,301,352,
0,555,771,404,298,348,
0,548,760,401,295,344,
0,542,830,398,339,342,
0,536,876,470,335,339,
0,529,860,463,332,335,
0,572,847,458,329,332,
0,598,831,454,327,348,
0,628,819,448,323,363,
0,619,807,444,319,359,
0,611,795,440,318,355,
0,604,780,435,314,352,
0,595,768,431,312,348,
0,589,884,462,353,345,
0,582,892,493,349,343,
0,575,875,487,345,339,
0,612,860,481,343,335,
0,604,846,476,339,368,
1,630,832,471,336,364,
1,621,819,465,334,359,
1,614,807,461,331,356,
2,606,792,455,327,353,
1,598,780,451,324,350,
2,591,849,528,356,347,
2,583,834,521,352,344,
2,577,820,515,349,340,
3,606,807,508,345,336,
3,599,795,503,343,374,
3,620,783,497,339,369,
3,611,771,492,337,366,
3,604,760,487,334,362,
3,596,747,481,330,359,
3,588,736,477,340,355,
3,582,839,483,364,352,
3,575,824,479,359,349,
3,568,811,473,356,346,
3,595,798,467,353,342,
3,587,786,463,350,376,
3,609,774,458,347,371,
3,601,763,454,344,368,
3,593,752,449,341,364,
3,587,738,445,337,361,
3,579,728,440,371,359,
3,573,792,516,366,355,
3,566,779,510,363,352,
3,558,768,504,359,348,
3,601,755,497,355,344,
3,594,744,492,353,371,
3,620,733,487,350,367,
3,612,723,481,346,363,
3,604,713,477,344,359,
3,597,702,472,339,356,
3,590,751,467,374,353,
3,583,803,515,369,350,
3,575,791,508,366,347,
3,568,779,504,363,344,
3,561,767,496,359,351,
3,593,755,491,356,366,
3,585,743,486,352,362,
3,577,733,480,350,359,
3,571,723,476,347,355,
3,563,711,472,344,352,
3,558,807,491,375,349,
3,551,792,510,371,345,
3,545,780,504,367,343,
3,563,768,498,364,339,
3,556,755,492,359,372,
3,588,744,487,357,368,
3,579,734,481,353,364,
3,572,723,476,351,360,
3,566,713,472,348,357,
3,559,701,467,344,354,
3,552,764,513,368,351,
3,546,752,539,365,348,
3,540,740,532,361,344,
3,564,729,526,359,342,
3,558,719,519,355,371,
3,593,708,513,352,368,
3,585,699,508,349,364,
3,578,690,503,345,360,
3,572,681,497,343,357,
3,564,671,492,348,354,
3,559,793,520,378,351,
3,551,780,514,375,348,
3,545,768,508,371,344,
3,549,756,503,367,342,
3,543,745,496,364,369,
3,582,734,491,360,366,
3,574,723,486,358,363,
3,567,713,481,354,359,
3,560,701,476,351,355,
3,553,696,472,384,352,
3,547,802,500,380,349,
3,540,790,495,376,345,
3,535,777,489,371,343,
3,527,765,483,368,339,
3,523,755,478,365,369,
3,555,743,472,361,366,
3,548,732,467,359,362,
3,542,721,463,355,359,
3,536,710,459,352,355,
2,529,732,455,380,352,
3,523,772,528,376,349,
2,518,760,522,372,345,
3,512,749,516,368,343,
2,508,737,511,365,339,
2,544,727,504,361,364,
2,537,716,499,359,361,
2,531,706,493,355,358,
2,524,696,487,352,354,
2,519,685,483,348,351,
2,513,776,481,380,348,
2,507,771,503,376,344,
2,502,759,496,371,342,
2,523,747,492,368,338,
1,560,736,486,365,339,
1,579,726,480,361,371,
1,572,715,475,359,367,
1,564,705,470,355,364,
1,558,696,465,352,359,
1,551,684,461,349,356,
1,545,820,508,380,353,
1,539,806,502,376,350,
1,532,793,496,372,347,
1,577,780,491,368,344,
1,568,768,484,366,380,
1,588,757,479,361,374,
1,580,746,473,359,369,
1,572,736,469,355,366,
1,566,725,464,352,363,
1,559,712,460,349,359,
1,553,825,529,376,355,
1,546,812,522,371,352,
1,540,799,516,368,350,
1,569,787,510,364,346,
1,560,774,504,361,359,
1,573,763,498,358,355,
1,566,752,492,355,352,
1,559,740,487,352,348,
1,552,730,483,348,344,
1,545,718,478,345,342,
1,540,830,500,380,339,
0,534,816,495,376,335,
1,527,803,489,373,333,
1,554,791,484,369,329,
1,545,779,478,366,348,
0,564,768,473,363,344,
0,558,755,467,359,340,
1,551,744,463,356,337,
0,544,734,459,353,334,
1,539,763,455,374,332,
0,532,813,529,368,327,
0,526,799,523,365,326,
0,520,787,517,361,323,
0,558,775,511,359,319,
0,573,764,504,355,354,
0,565,752,499,352,350,
0,558,742,494,349,347,
0,551,731,488,345,344,
0,545,720,483,343,339,
0,539,822,487,376,337,
0,532,830,511,372,334,
0,527,816,505,368,331,
0,521,804,499,365,327,
0,543,792,494,361,325,
0,572,780,487,359,344,
0,565,768,483,355,339,
0,558,756,478,352,335,
0,551,745,472,350,333,
0,545,735,468,345,330,
0,539,893,529,374,327,
0,532,904,524,369,324,
0,527,892,518,366,321,
0,520,875,512,363,319,
0,515,860,505,359,329,
0,547,847,499,356,325,
0,540,832,494,353,321,
0,533,820,488,350,319,
0,527,807,483,347,316,
0,521,796,479,344,313,
0,515,893,516,366,311,
0,510,878,510,363,308,
0,504,863,504,359,305,
0,507,848,499,355,303,
0,501,835,493,352,323,
0,529,822,487,349,319,
0,523,809,481,346,316,
0,516,796,476,344,313,
0,511,785,472,339,310,
0,505,774,467,337,307,
0,499,875,475,363,304,
0,494,860,470,359,302,
0,489,846,464,355,300,
0,502,831,460,352,297,
0,496,819,455,349,329,
0,525,806,450,346,326,
0,519,793,446,343,323,
0,513,782,441,340,319,
0,507,770,438,337,316,
0,502,760,433,363,313,
0,496,897,498,361,311,
0,491,881,492,358,307,
0,486,866,487,355,305,
0,505,851,481,351,303,
0,500,838,476,348,355,
0,524,824,471,344,350,
0,517,812,465,342,347,
0,511,799,460,339,344,
0,505,787,455,335,340,
0,499,803,476,364,337,
0,494,863,512,359,334,
0,488,847,507,355,331,
0,484,835,502,352,327,
0,518,821,496,348,325,
0,531,807,491,345,326,
0,531,796,484,342,321,
0,524,783,479,339,319,
0,519,772,474,336,316,
0,512,761,470,334,313,
0,507,833,511,368,311,
0,500,842,507,364,308,
0,496,828,500,360,305,
0,493,816,495,357,303,
0,487,803,489,354,337,
0,528,790,484,351,335,
0,519,779,478,348,331,
0,514,767,473,344,327,
0,508,755,468,342,325,
0,502,745,463,339,322,
0,497,849,563,368,319,
0,491,830,556,363,316,
0,486,816,550,359,313,
0,547,803,543,355,311,
0,540,792,537,352,339,
0,556,779,531,350,335,
0,548,768,524,347,331,
0,542,756,518,344,327,
0,535,745,512,340,325,
0,529,735,508,337,322,
0,523,886,509,364,319,
0,517,865,504,359,316,
0,511,851,499,356,313,
0,583,838,494,353,311,
0,576,824,488,350,359,
0,587,812,483,347,355,
0,579,799,478,344,352,
0,572,787,472,341,348,
0,566,775,468,338,344,
0,559,764,463,364,342,
0,552,849,508,364,338,
0,545,831,503,359,335,
0,540,818,497,355,332,
0,639,804,492,352,329,
0,630,792,487,350,358,
0,636,780,481,347,355,
0,628,768,475,344,350,
0,620,758,470,340,347,
0,612,747,465,337,344,
0,605,736,461,365,340,
0,598,811,455,361,337,
0,591,793,451,357,334,
0,595,782,448,354,331,
0,667,770,444,351,327,
0,657,758,440,348,351,
0,647,747,435,344,347,
0,639,736,431,341,344,
0,631,726,427,339,340,
0,623,716,423,335,337,
0,615,797,451,361,334,
0,608,819,499,357,331,
0,600,803,493,352,327,
0,651,792,487,350,324,
0,647,779,483,347,345,
0,639,767,477,344,342,
0,628,755,472,339,339,
0,620,744,467,337,335,
0,612,734,462,334,332,
0,605,723,457,332,329,
0,599,862,497,361,326,
0,591,854,492,358,323,
0,583,836,486,353,319,
0,615,823,480,350,317,
0,608,809,476,348,356,
0,603,798,471,344,352,
0,593,785,465,340,348,
0,587,774,460,338,344,
0,579,762,455,335,342,
0,573,752,451,332,339,
0,567,856,514,360,335,
0,560,838,508,357,332,
0,553,824,502,353,329,
0,566,811,496,350,326,
0,559,799,492,347,355,
0,561,786,486,344,352,
0,553,774,481,340,348,
0,547,763,475,337,344,
0,541,752,470,334,341,
0,536,750,465,363,338,
0,529,899,509,364,335,
0,524,910,504,359,332,
0,519,908,498,355,329,
0,550,886,492,352,326,
0,543,870,487,350,364,
0,553,856,482,346,359,
0,543,842,477,343,356,
0,537,829,471,339,352,
0,531,816,466,337,349,
0,526,846,487,366,346,
0,519,902,505,361,343,
0,514,884,499,359,339,
0,523,869,494,354,336,
0,594,855,487,351,334,
0,601,840,483,348,357,
0,593,828,478,344,353,
0,583,815,473,342,350,
0,575,802,467,339,345,
0,569,791,463,335,343,
0,563,857,493,363,339,
0,556,902,487,359,335,
0,550,884,483,355,333,
0,609,869,478,352,331,
0,635,855,472,348,361,
0,626,841,467,345,356,
0,618,828,463,342,353,
0,608,815,456,339,350,
0,601,803,452,335,345,
0,593,791,448,334,343,
0,588,889,511,359,339,
0,580,907,504,356,336,
0,573,911,499,352,334,
0,657,901,494,348,331,
0,647,879,488,345,361,
0,639,864,483,342,357,
0,632,850,478,339,353,
0,621,836,472,335,350,
0,614,824,467,333,345,
0,606,812,463,331,344,
0,600,880,518,356,339,
0,591,863,511,352,336,
0,584,846,505,349,334,
0,663,831,499,345,331,
0,654,819,495,342,351,
0,645,807,489,339,347,
0,636,794,484,335,344,
0,627,783,478,333,340,
0,619,771,473,330,336,
0,611,760,468,355,334,
0,604,894,559,358,331,
0,596,879,551,355,327,
0,590,861,545,352,325,
0,639,847,539,347,322,
0,631,833,533,344,321,
0,622,819,527,340,318,
0,615,807,521,337,316,
0,605,795,515,335,313,
0,598,783,509,332,310,
0,591,798,504,359,307,
0,583,891,519,355,304,
0,577,873,513,352,302,
0,571,856,508,348,300,
0,568,841,503,345,297,
0,562,828,497,343,323,
0,556,815,492,339,319,
0,550,803,487,336,316,
0,542,791,481,333,313,
0,536,779,476,331,310,
0,531,834,485,363,307,
0,526,846,516,359,304,
0,519,831,511,355,302,
0,553,816,505,351,299,
0,547,803,499,348,333,
0,557,790,494,344,336,
0,550,778,489,341,334,
0,543,768,483,338,330,
0,536,755,478,335,327,
0,529,745,472,332,323,
0,524,839,550,358,320,
0,517,824,542,354,318,
0,512,811,536,351,315,
0,536,795,529,347,312,
0,528,783,524,344,335,
0,531,771,518,340,332,
0,525,760,512,337,327,
0,519,748,508,334,325,
0,511,737,500,332,321,
0,505,728,496,328,319,
0,501,873,513,355,316,
0,496,857,507,352,313,
0,491,843,502,348,311,
0,534,825,496,344,307,
0,527,813,491,341,305,
0,537,799,486,339,302,
0,531,787,481,335,300,
0,524,775,476,332,297,
0,516,765,470,329,294,
0,511,753,466,352,292,
0,505,854,468,357,289,
0,499,839,463,353,287,
0,495,825,459,351,285,
0,563,808,454,346,283,
0,557,796,450,343,317,
0,558,783,446,340,313,
0,551,772,441,337,312,
0,545,761,438,334,308,
0,537,750,432,331,304,
0,531,757,460,358,302,
0,525,816,537,353,300,
0,519,801,531,350,296,
0,513,790,524,347,295,
0,568,774,519,343,291,
0,563,763,513,339,333,
0,556,752,508,336,329,
0,549,740,502,334,327,
0,543,731,497,331,323,
0,535,719,491,327,319,
0,529,804,512,359,317,
0,523,847,508,355,314,
0,517,833,502,352,312,
0,563,820,496,348,308,
0,571,803,491,344,339,
0,565,792,486,341,346,
0,558,780,481,338,343,
0,551,768,476,335,339,
0,545,757,472,332,336,
0,537,745,465,329,332,
0,531,849,547,346,329,
0,526,833,540,343,327,
0,519,820,534,339,323,
0,598,807,527,335,321,
0,590,792,522,332,336,
0,582,780,516,329,332,
0,575,768,511,327,329,
0,568,756,505,323,327,
0,561,745,500,321,323,
0,553,735,494,319,319,
0,547,860,509,348,317,
0,540,844,504,344,314,
0,535,831,497,342,312,
0,561,817,492,338,308,
0,554,802,487,335,347,
0,558,789,482,332,343,
0,551,777,477,327,339,
0,544,766,472,326,335,
0,536,755,467,323,333,
0,531,743,463,340,329,
0,524,803,494,350,327,
0,519,791,488,347,323,
0,513,778,483,344,320,
0,563,766,478,340,318,
0,556,752,472,335,342,
0,549,742,467,333,339,
0,543,731,463,331,335,
0,536,720,459,327,332,
0,528,711,454,324,328,
0,523,724,449,352,325,
0,516,864,473,348,322,
0,511,849,468,344,319,
0,505,835,463,342,316,
0,560,822,459,338,313,
0,559,806,454,335,339,
0,551,793,449,332,336,
0,544,782,444,328,333,
0,538,770,440,326,329,
0,531,759,436,323,327,
0,525,828,492,354,323,
0,519,877,505,351,319,
0,513,862,500,347,318,
0,553,849,495,344,315,
0,561,834,489,340,338,
0,559,817,483,337,335,
0,551,806,479,334,332,
0,545,793,473,331,329,
0,539,781,469,327,326,
0,531,769,464,325,323,
0,526,880,513,358,319,
0,519,871,507,353,316,
0,513,857,502,351,314,
0,568,844,496,347,311,
0,561,830,490,344,346,
0,562,814,485,340,342,
0,555,801,480,337,339,
0,548,789,475,334,335,
0,542,777,470,332,332,
0,534,766,465,327,329,
0,528,878,495,355,326,
0,522,861,488,352,323,
0,516,847,483,348,319,
0,564,833,479,345,317,
0,558,817,473,342,354,
0,554,804,468,337,351,
0,547,792,463,335,347,
0,541,780,459,332,344,
0,535,768,455,329,340,
0,527,758,450,344,337,
0,521,899,532,352,334,
0,515,894,526,348,330,
0,510,876,519,345,327,
0,548,861,514,342,324,
0,542,844,508,339,348,
0,536,830,503,335,344,
0,529,817,497,332,340,
0,524,804,492,328,337,
0,518,792,487,326,334,
0,510,781,483,358,332,
0,504,827,527,353,327,
0,499,813,521,350,324,
0,495,799,515,347,321,
0,560,787,510,344,319,
0,553,773,504,340,343,
0,547,762,499,336,339,
0,540,751,494,334,335,
0,534,740,488,331,332,
0,527,730,483,327,329,
0,521,796,479,356,327,
0,515,828,472,352,323,
0,509,814,468,349,319,
0,550,802,463,345,317,
0,558,789,459,343,338,
0,568,774,455,339,335,
0,560,763,450,335,332,
0,552,752,446,332,329,
0,546,740,441,329,327,
0,540,730,438,327,323,
0,532,860,444,353,319,
0,526,862,440,350,316,
0,519,847,435,347,314,
0,581,834,431,344,312,
0,573,820,427,340,348,
0,566,804,423,337,344,
0,559,792,419,334,341,
0,552,780,415,331,337,
0,546,769,412,327,335,
0,540,758,408,324,332,
0,532,867,487,354,327,
0,526,851,481,351,324,
0,519,837,476,348,322,
0,583,824,471,344,319,
0,575,811,465,342,347,
0,568,795,460,338,344,
0,561,783,455,334,340,
0,555,771,451,332,337,
0,547,760,447,327,334,
0,542,749,442,344,331,
0,534,838,514,358,327,
0,527,824,508,354,324,
0,522,810,503,351,321,
0,568,798,497,348,318,
0,560,785,492,344,344,
0,555,771,487,341,341,
0,548,760,481,337,337,
0,542,748,476,334,335,
0,536,737,472,332,332,
0,529,739,467,367,328,
0,521,864,501,363,326,
0,516,849,496,359,322,
0,511,836,490,355,319,
0,568,822,484,352,316,
0,561,809,480,348,344,
0,553,793,474,345,342,
0,547,782,470,342,337,
0,540,769,464,339,335,
0,535,759,460,335,332,
0,528,817,455,346,329,
0,521,863,526,343,326,
0,515,848,519,339,322,
0,555,835,513,336,319,
0,566,821,508,333,342,
0,561,808,503,330,348,
0,555,792,497,327,345,
0,547,781,492,323,342,
0,542,769,487,321,339,
0,536,759,482,319,335,
0,529,864,489,350,332,
0,521,857,498,347,329,
0,515,844,492,343,326,
0,575,830,487,339,323,
0,568,816,482,337,344,
0,567,804,477,334,340,
0,560,788,472,330,337,
0,553,776,467,327,335,
0,547,765,463,324,332,
0,540,754,459,321,328,
0,535,859,491,349,326,
0,527,844,483,345,321,
0,520,830,478,342,319,
0,585,816,472,339,316,
0,577,803,468,335,350,
0,571,792,463,332,347,
0,564,776,459,329,344,
0,558,766,454,326,340,
0,551,754,449,323,336,
0,544,743,445,343,334,
0,539,759,471,353,331,
0,531,747,463,350,327,
0,525,736,460,347,323,
0,571,726,455,344,321,
0,564,716,449,340,355,
0,557,707,445,337,352,
0,551,695,440,333,348,
0,543,686,436,331,345,
0,537,677,432,327,342,
0,531,675,428,355,339,
0,526,777,508,350,335,
0,518,765,500,347,332,
0,512,753,496,344,329,
0,555,742,489,340,326,
0,548,732,484,337,359,
0,542,721,480,335,355,
0,536,708,475,331,352,
0,528,699,470,327,349,
0,523,689,464,325,345,
0,517,742,460,353,343,
0,511,787,508,350,339,
0,504,774,502,347,335,
0,560,763,496,344,332,
0,589,751,491,339,352,
0,582,739,486,337,355,
0,574,729,480,334,352,
0,568,716,476,330,348,
0,560,706,471,327,344,
0,554,696,465,324,342,
0,548,829,480,352,339,
0,541,825,510,348,335,
0,534,812,503,345,332,
0,572,799,497,342,328,
0,564,787,492,339,359,
0,561,775,487,335,356,
0,554,764,481,333,352,
0,547,750,476,329,350,
0,541,739,472,327,346,
0,535,728,467,323,344,
0,529,847,467,350,339,
0,523,831,463,347,336,
0,515,818,457,344,333,
0,555,805,454,340,329,
0,547,792,449,337,359,
0,545,780,444,334,355,
0,539,769,440,332,352,
0,532,755,436,327,348,
0,526,743,432,324,344,
0,519,733,428,340,342,
0,515,825,504,358,339,
0,508,811,497,355,335,
0,502,798,490,352,332,
0,553,785,484,348,328,
0,547,774,480,345,329,
0,543,762,475,342,326,
0,536,751,470,339,323,
0,531,737,464,335,319,
0,524,728,460,332,318,
0,519,732,455,355,315,
0,513,840,496,351,312,
0,505,826,491,347,310,
0,500,813,483,344,306,
0,555,799,479,340,304,
0,551,788,473,337,347,
0,556,775,468,335,343,
0,548,764,463,332,339,
0,542,750,459,327,336,
0,536,739,454,326,333,
0,529,811,450,355,330,
0,524,888,484,352,327,
0,515,871,480,348,324,
0,556,856,473,345,320,
0,581,842,467,342,345,
0,574,828,463,339,357,
0,567,816,457,335,353,
0,560,803,454,333,350,
0,553,788,449,328,347,
0,547,776,444,326,344,
0,541,860,457,352,340,
0,535,844,478,348,337,
0,527,831,472,345,334,
0,591,817,466,342,331,
0,583,804,462,339,357,
0,575,792,456,336,353,
0,568,780,452,333,350,
0,561,768,448,330,346,
0,555,755,443,327,344,
0,548,743,439,324,340,
0,543,844,503,348,336,
0,536,829,496,345,334,
0,528,816,490,342,331,
0,547,803,483,339,327,
0,540,791,479,335,360,
0,539,779,473,332,357,
0,532,767,468,329,353,
0,526,752,463,327,350,
0,520,742,459,323,347,
0,515,732,454,334,344,
0,510,851,519,348,340,
0,504,836,512,345,337,
0,497,823,507,342,335,
0,556,809,499,339,330,
0,548,798,495,335,359,
0,542,785,489,332,356,
0,536,773,483,329,352,
0,529,759,479,327,350,
0,524,748,473,323,347,
0,518,783,470,355,344,
0,512,900,524,351,339,
0,505,900,519,347,336,
0,499,880,513,344,334,
0,543,865,505,340,329,
0,537,851,499,337,340,
0,531,838,495,335,337,
0,525,824,489,332,334,
0,519,809,484,328,331,
0,513,796,480,325,327,
0,508,831,475,350,326,
0,502,847,553,346,322,
0,496,834,547,343,319,
0,535,821,541,339,317,
0,561,807,534,336,337,
0,555,796,527,334,353,
0,548,783,521,331,350,
0,542,772,516,327,347,
0,536,758,511,324,344,
0,529,747,505,321,340,
0,524,833,502,349,337,
0,518,819,506,345,334,
0,512,806,500,342,331,
0,575,793,494,339,327,
0,568,781,489,335,356,
0,560,769,484,333,352,
0,553,758,480,329,349,
0,547,747,475,327,345,
0,541,734,470,324,343,
0,535,723,465,320,339,
0,529,838,504,346,335,
0,523,823,497,343,333,
0,517,809,492,339,329,
0,569,797,486,336,327,
0,561,784,480,334,352,
0,563,773,476,331,348,
0,556,761,470,327,344,
0,549,750,465,324,342,
0,543,736,460,321,338,
0,536,727,455,332,335,
0,531,831,478,345,332,
0,524,816,472,342,328,
0,519,803,467,339,326,
0,547,791,461,335,323,
0,540,780,456,333,364,
0,534,768,451,329,359,
0,527,755,448,327,356,
0,522,744,443,324,353,
0,515,732,440,321,350,
0,511,722,435,356,348,
0,505,835,500,352,344,
0,499,822,494,348,340,
0,495,808,489,345,337,
0,547,796,482,342,334,
0,540,783,477,339,334,
0,534,771,472,335,331,
0,527,760,467,332,327,
0,521,749,463,329,324,
0,515,736,457,327,322,
0,510,792,454,359,319,
0,504,846,498,355,316,
0,499,831,492,352,314,
0,494,819,487,348,312,
0,561,806,480,345,308,
0,560,793,476,342,344,
0,552,781,470,339,339,
0,545,769,465,335,337,
0,540,758,460,333,334,
0,534,744,455,329,331,
0,527,822,453,361,327,
0,521,807,451,358,324,
0,515,793,446,353,321,
0,542,782,441,351,319,
0,608,769,436,348,332,
0,600,759,432,344,353,
0,593,747,428,341,350,
0,585,736,424,338,345,
0,579,726,420,335,343,
0,572,713,417,332,339,
0,566,826,491,353,336,
0,559,812,483,349,334,
0,551,799,478,346,330,
0,631,786,473,343,327,
0,646,774,467,339,327,
0,638,762,462,336,323,
0,630,751,457,334,321,
0,622,740,452,331,318,
0,614,729,448,327,316,
0,607,717,444,334,313,
0,600,833,521,349,310,
0,591,819,515,345,307,
0,585,806,509,343,305,
0,685,793,504,339,302,
0,671,781,496,336,344,
0,664,769,491,333,340,
0,655,758,486,330,337,
0,646,747,481,327,334,
0,638,736,476,324,331,
0,630,736,472,359,327,
0,623,848,504,355,324,
0,615,834,497,352,321,
0,608,820,492,350,319,
0,699,807,487,345,316,
0,687,796,480,343,347,
0,678,783,476,339,344,
0,668,771,471,336,340,
0,659,760,465,334,337,
0,652,749,461,331,334,
0,643,796,457,359,331,
0,636,843,496,356,327,
0,627,828,491,353,325,
0,620,816,485,350,321,
0,711,802,480,346,319,
0,697,790,473,343,353,
0,688,777,468,339,349,
0,679,766,463,337,345,
0,670,755,459,334,343,
0,662,743,455,331,339,
0,654,843,489,349,336,
0,646,857,518,345,333,
0,638,843,512,342,330,
0,632,829,507,339,327,
0,662,816,501,335,327,
0,651,803,494,333,344,
0,642,792,488,329,340,
0,634,779,483,327,337,
0,626,768,479,324,334,
0,619,756,473,321,331,
0,612,835,556,350,327,
0,604,819,557,345,324,
0,598,807,551,343,322,
0,668,793,543,339,319,
0,671,782,538,336,353,
0,659,769,531,333,348,
0,652,759,524,330,344,
0,643,748,519,327,342,
0,635,736,513,324,338,
0,627,727,508,322,335,
0,620,839,560,351,332,
0,611,825,552,348,328,
0,604,812,546,344,326,
0,690,799,540,340,323,
0,678,787,535,338,355,
0,668,775,527,335,351,
0,659,764,521,332,348,
0,651,753,515,329,344,
0,643,742,510,326,341,
0,635,732,505,324,338,
0,627,839,504,352,335,
0,620,824,498,349,332,
0,612,812,494,345,329,
0,708,799,487,343,326,
0,696,787,483,339,344,
0,686,775,478,336,339,
0,676,763,472,334,336,
0,668,752,468,330,334,
0,659,741,463,327,330,
0,651,765,460,358,327,
0,643,883,505,353,324,
0,635,867,500,350,321,
0,627,854,495,346,319,
0,716,839,489,343,316,
0,704,825,484,339,344,
0,694,813,478,337,339,
0,684,800,472,334,335,
0,675,788,467,331,332,
0,667,777,463,327,329,
0,659,822,464,358,327,
0,650,877,480,352,323,
0,642,862,474,350,321,
0,636,847,469,346,318,
0,688,834,463,344,319,
0,675,820,459,339,332,
0,667,807,454,337,327,
0,658,796,449,334,324,
0,649,783,445,331,321,
0,641,772,441,327,319,
0,634,847,492,361,316,
0,625,837,484,356,313,
0,619,824,480,353,310,
0,657,811,474,350,307,
0,647,798,469,347,328,
0,637,785,463,344,325,
0,629,774,457,340,321,
0,621,763,454,337,318,
0,614,752,449,335,316,
0,606,741,444,332,313,
0,600,807,537,355,310,
0,592,793,531,352,307,
0,585,781,524,348,304,
0,623,769,519,344,302,
0,614,758,513,342,342,
0,604,746,508,339,338,
0,596,736,500,335,334,
0,590,726,496,332,331,
0,583,716,491,329,327,
0,575,705,486,327,324,
0,570,812,538,359,321,
0,563,799,531,354,319,
0,558,787,525,351,316,
0,612,774,519,348,313,
0,604,763,514,344,348,
0,595,752,508,342,344,
0,588,740,502,338,340,
0,580,729,496,335,337,
0,574,719,491,332,334,
0,568,710,487,359,331,
0,561,811,494,356,327,
0,554,798,487,352,325,
0,548,785,483,349,322,
0,622,774,478,345,319,
0,614,761,473,343,318,
0,604,751,468,339,316,
0,596,739,463,336,312,
0,590,729,458,333,309,
0,582,719,454,331,307,
0,575,739,475,359,304,
0,568,798,502,356,301,
0,562,785,496,352,299,
0,577,774,491,348,295,
0,635,761,486,345,310,
0,626,751,480,342,337,
0,615,739,473,339,334,
0,608,729,469,335,330,
0,600,719,463,333,327,
0,593,708,460,329,323,
0,587,811,480,359,321,
0,579,831,476,355,318,
0,573,818,471,351,316,
0,639,806,465,347,312,
0,645,792,460,344,344,
0,637,780,455,341,339,
0,626,769,450,338,336,
0,619,758,446,335,332,
0,611,747,441,332,329,
0,604,736,438,328,327,
0,596,865,493,358,323,
0,589,845,487,353,319,
0,582,831,481,350,318,
0,679,817,476,347,315,
0,668,806,472,344,343,
0,659,792,466,340,339,
0,647,780,460,337,336,
0,639,769,455,334,332,
0,632,758,451,332,328,
0,624,747,446,328,326,
0,616,810,479,355,323,
0,609,793,473,352,319,
0,602,782,468,347,318,
0,704,769,463,344,315,
0,694,758,459,340,339,
0,684,747,454,337,335,
0,672,736,448,334,332,
0,664,726,444,332,327,
0,655,716,440,328,326,
0,647,706,435,352,323,
0,639,836,455,348,319,
0,632,819,449,344,316,
0,624,806,445,342,313,
0,659,792,440,338,312,
0,651,780,435,335,347,
0,642,769,432,332,344,
0,632,758,427,329,339,
0,624,747,423,327,335,
0,616,736,419,323,333,
0,609,772,441,350,329,
0,602,839,480,347,327,
0,595,823,475,342,323,
0,588,809,470,339,321,
0,583,797,464,335,327,
0,575,784,460,332,357,
0,569,773,455,329,353,
0,562,761,449,327,350,
0,556,750,445,324,345,
0,550,739,440,321,342,
0,543,828,516,348,339,
0,538,859,508,344,335,
0,532,840,503,339,333,
0,527,827,497,336,330,
0,521,814,492,334,335,
0,516,801,487,331,332,
0,511,789,481,327,327,
0,504,777,476,324,324,
0,500,766,471,322,321,
0,495,755,465,319,319,
0,491,891,467,348,316,
0,486,886,462,344,313,
0,481,867,457,339,311,
0,502,852,452,336,308,
0,496,839,448,334,340,
0,504,825,444,331,337,
0,497,812,440,327,334,
0,490,799,435,324,329,
0,485,787,431,321,327,
0,480,775,427,319,324,
0,476,888,483,352,321,
0,471,871,478,348,318,
0,466,853,472,344,315,
0,490,839,467,340,312,
0,484,826,463,337,319,
0,499,813,457,335,316,
0,494,799,452,332,312,
0,487,788,448,328,310,
0,482,776,443,326,307,
0,476,766,439,355,304,
0,472,860,475,352,302,
0,467,844,470,348,299,
0,462,828,465,344,296,
0,527,815,460,340,294,
0,521,801,455,337,334,
0,524,790,450,335,331,
0,519,777,446,332,327,
0,511,766,440,328,323,
0,504,755,435,326,321,
0,499,771,432,352,318,
0,494,835,428,348,315,
0,488,822,424,345,312,
0,508,806,420,342,310,
0,566,792,416,338,310,
0,559,780,413,335,342,
0,551,768,409,332,338,
0,545,758,406,329,335,
0,536,747,401,326,331,
0,531,736,398,323,327,
0,526,831,475,347,324,
0,519,852,476,344,321,
0,513,839,470,340,319,
0,582,822,465,336,316,
0,575,808,460,334,344,
0,568,796,455,330,340,
0,562,783,451,327,337,
0,555,772,446,324,334,
0,547,761,440,321,329,
0,540,750,436,319,327,
0,535,847,524,344,323,
0,528,831,516,339,321,
0,523,818,511,337,318,
0,559,803,504,333,315,
0,551,790,499,330,337,
0,545,778,494,327,334,
0,539,766,489,324,331,
0,531,755,483,321,327,
0,524,743,478,319,323,
0,519,734,473,316,321,
0,513,811,514,347,318,
0,508,798,508,344,315,
0,503,785,503,340,312,
0,572,770,497,335,310,
0,564,759,492,333,356,
0,558,747,487,331,352,
0,551,736,481,327,349,
0,543,726,476,324,345,
0,536,716,470,321,342,
0,531,707,466,359,339,
0,524,825,542,354,335,
0,519,812,536,351,332,
0,513,799,529,348,329,
0,556,783,524,344,327,
0,550,771,518,340,359,
0,543,760,512,337,355,
0,536,748,507,334,352,
0,528,737,502,331,348,
0,523,728,495,327,344,
0,517,757,491,350,342,
0,511,854,504,346,338,
0,505,839,498,343,335,
0,518,823,493,339,332,
0,559,809,487,335,329,
0,551,796,483,332,355,
0,545,784,478,329,352,
0,539,772,473,327,348,
0,531,761,468,324,344,
0,524,751,463,321,340,
0,519,871,521,352,337,
0,513,900,514,349,335,
0,508,883,508,345,332,
0,547,867,503,343,327,
0,539,850,497,339,353,
0,538,836,492,335,349,
0,531,824,487,332,346,
0,526,811,482,329,343,
0,518,799,476,327,339,
0,512,787,471,323,335,
0,507,877,504,352,332,
0,500,861,497,349,329,
0,496,846,492,345,327,
0,527,829,487,343,323,
0,519,816,481,339,351,
0,527,803,476,335,347,
0,519,792,472,332,344,
0,514,780,467,329,340,
0,507,768,462,327,337,
0,501,757,456,323,334,
0,496,856,504,348,330,
0,491,841,499,344,327,
0,485,828,493,342,324,
0,543,811,487,339,321,
0,536,799,483,335,352,
0,532,787,477,332,349,
0,526,775,472,328,345,
0,519,763,467,326,343,
0,513,752,463,323,339,
0,507,742,457,353,335,
0,502,807,477,350,332,
0,496,793,472,346,328,
0,491,782,467,344,326,
0,566,767,462,339,323,
0,559,755,456,335,337,
0,551,743,452,333,334,
0,545,734,448,330,331,
0,539,723,444,327,327,
0,531,713,440,324,324,
0,525,739,449,354,321,
0,519,824,483,350,318,
0,513,811,478,347,316,
0,515,799,472,344,312,
0,556,783,467,340,313,
0,550,771,463,336,355,
0,543,760,458,334,352,
0,536,748,454,331,348,
0,530,737,449,327,345,
0,523,727,444,324,342,
0,517,807,499,353,337,
0,511,822,492,350,335,
0,505,807,487,346,332,
0,511,796,481,343,327,
0,505,780,476,339,358,
0,504,768,472,335,353,
0,499,757,466,333,350,
0,493,746,462,330,347,
0,487,736,457,327,344,
0,481,724,451,324,340,
0,477,871,496,354,336,
0,472,856,489,351,334,
0,467,842,483,348,331,
0,463,828,479,344,327,
0,459,812,473,342,351,
0,482,799,468,337,347,
0,476,787,463,334,344,
0,472,775,460,331,340,
0,466,764,454,327,337,
0,460,753,448,326,334,
0,455,849,489,348,330,
0,451,834,483,344,327,
0,447,820,478,342,324,
0,454,807,472,338,321,
0,449,792,468,335,342,
0,468,780,463,331,339,
0,463,769,458,327,335,
0,457,758,454,325,332,
0,453,747,449,323,329,
0,447,742,444,355,326,
0,443,878,492,352,322,
0,439,863,487,348,319,
0,435,848,481,344,316,
0,432,834,476,342,313,
0,428,818,472,337,333,
0,472,806,467,335,329,
0,467,793,462,332,327,
0,462,781,456,327,323,
0,455,769,452,326,321,
0,450,780,448,356,318,
0,446,852,442,353,314,
0,440,838,438,349,312,
0,436,824,433,346,309,
0,435,812,430,343,306,
0,454,796,425,339,332,
0,457,783,422,335,327,
0,452,771,419,333,326,
0,448,760,415,329,322,
0,443,750,411,327,319,
0,436,851,484,352,316,
0,432,863,482,349,313,
0,428,848,476,345,310,
0,496,835,472,343,307,
0,494,821,467,339,342,
0,519,806,462,335,337,
0,512,793,456,332,335,
0,505,781,452,329,331,
0,499,769,448,327,327,
0,494,758,443,323,325,
0,487,863,496,349,322,
0,482,847,490,345,318,
0,477,833,485,342,316,
0,494,819,480,339,312,
0,488,807,475,335,348,
0,508,792,469,332,344,
0,502,779,464,329,340,
0,496,768,460,326,337,
0,490,756,455,323,334,
0,485,745,451,320,332,
0,478,888,507,349,327,
0,473,872,500,345,324,
0,467,857,495,343,321,
0,512,844,489,339,319,
0,505,831,484,335,348,
0,513,814,479,332,344,
0,507,801,474,329,340,
0,501,790,470,327,337,
0,495,777,464,323,335,
0,489,767,460,350,332,
0,483,849,499,347,327,
0,478,835,492,344,324,
0,473,822,487,340,322,
0,540,808,482,337,319,
0,532,796,477,334,331,
0,529,780,472,329,327,
0,523,769,467,327,324,
0,516,758,462,324,321,
0,511,747,457,321,318,
0,505,764,454,341,316,
0,499,831,485,337,312,
0,493,818,480,334,310,
0,487,805,474,331,307,
0,483,792,469,327,308,
0,502,780,464,325,358,
0,501,766,460,321,354,
0,496,754,455,319,351,
0,489,743,450,316,347,
0,484,732,446,313,344,
0,480,825,452,347,341,
0,472,842,504,344,336,
0,467,828,499,340,334,
0,507,815,493,337,331,
0,500,801,487,334,353,
0,515,790,483,331,350,
0,508,775,478,327,347,
0,502,763,472,324,343,
0,496,752,467,321,339,
0,491,741,463,319,336,
0,486,847,499,349,334,
0,479,831,493,345,329,
0,473,819,487,343,327,
0,514,806,483,339,323,
0,508,793,478,335,350,
0,512,781,472,332,346,
0,505,766,467,329,343,
0,499,755,463,326,339,
0,494,743,458,323,336,
0,489,734,454,321,334,
0,482,858,505,339,330,
0,476,843,497,335,327,
0,472,829,492,332,323,
0,515,816,487,329,321,
0,508,803,481,326,344,
0,527,791,476,323,342,
0,521,775,472,319,338,
0,515,764,466,316,335,
0,510,753,462,314,332,
0,504,743,457,344,328,
0,497,864,516,342,326,
0,492,848,508,338,322,
0,487,835,504,335,319,
0,526,821,497,332,316,
0,519,808,492,329,337,
0,529,796,487,326,334,
0,523,780,482,322,330,
0,516,769,477,319,327,
0,511,758,472,316,324,
0,504,768,467,350,321,
0,497,836,463,345,318,
0,492,822,458,343,315,
0,504,809,454,339,312,
0,551,796,449,335,310,
0,545,783,444,333,340,
0,539,772,440,330,337,
0,532,758,436,327,334,
0,527,747,432,323,331,
0,520,736,428,321,327,
0,515,825,457,343,324,
0,508,838,524,339,321,
0,502,824,516,335,318,
0,560,811,511,333,315,
0,551,798,505,329,348,
0,545,785,499,327,344,
0,539,774,494,323,340,
0,532,760,489,320,337,
0,527,748,484,318,334,
0,519,737,480,315,331,
0,515,872,497,344,327,
0,508,860,501,340,325,
0,502,846,494,337,321,
0,547,831,488,334,319,
0,540,818,483,332,339,
0,536,806,478,327,335,
0,529,790,473,325,332,
0,524,778,468,321,329,
0,518,768,463,319,327,
0,512,755,460,316,323,
0,507,852,490,339,320,
0,499,838,484,336,318,
0,494,824,478,334,314,
0,532,811,472,331,312,
0,526,799,467,327,349,
0,528,786,463,324,345,
0,522,771,457,321,342,
0,516,760,454,318,339,
0,511,749,449,316,335,
0,504,739,444,342,332,
0,499,824,469,341,329,
0,492,811,463,337,327,
0,487,798,457,335,323,
0,500,785,452,332,319,
0,495,774,448,327,351,
0,515,762,444,326,348,
0,508,748,440,323,344,
0,503,737,435,319,340,
0,497,727,431,316,337,
0,492,759,427,344,335,
0,487,838,504,339,331,
0,480,824,497,336,327,
0,479,811,491,334,324,
0,507,798,486,331,321,
0,524,786,480,327,350,
0,524,774,475,324,346,
0,517,760,471,322,343,
0,511,748,465,318,339,
0,505,737,460,316,336,
0,499,835,456,344,334,
0,494,847,473,339,331,
0,487,832,467,336,327,
0,532,819,462,334,323,
0,526,807,457,330,354,
0,534,793,452,327,350,
0,526,782,448,324,346,
0,519,768,444,321,344,
0,514,756,440,318,339,
0,508,745,435,316,336,
0,504,880,479,342,334,
0,497,868,476,339,331,
0,491,854,470,335,327,
0,523,839,465,332,323,
0,516,827,460,329,353,
0,527,813,455,327,350,
0,521,800,451,323,346,
0,515,785,446,319,344,
0,509,774,441,317,339,
0,504,763,437,314,336,
0,498,870,525,343,334,
0,492,854,518,339,330,
0,486,839,511,335,327,
0,488,825,504,333,323,
0,483,813,499,329,335,
0,478,799,494,327,332,
0,473,788,488,324,328,
0,468,774,483,321,326,
0,463,762,479,318,323,
0,459,752,474,321,319,
0,455,796,470,319,317,
0,450,783,464,316,314,
0,444,771,459,313,312,
0,500,759,454,312,308,
0,495,748,450,308,345,
0,556,737,445,306,342,
0,550,728,441,304,338,
0,543,715,436,300,335,
0,536,705,432,299,332,
0,530,752,429,315,329,
0,524,795,424,312,326,
0,518,782,421,308,323,
0,511,770,415,306,319,
0,505,758,412,304,316,
0,519,748,409,300,355,
0,548,736,406,298,351,
0,541,726,401,295,348,
0,535,713,399,293,344,
0,528,704,395,291,341,
0,523,814,391,311,338,
0,516,807,388,307,335,
0,511,793,385,304,332,
0,504,782,382,302,328,
0,498,769,379,299,364,
0,547,758,376,296,362,
0,539,747,372,295,359,
0,532,736,369,291,355,
0,526,723,367,289,352,
0,519,712,364,287,348,
0,515,806,363,305,345,
0,508,792,359,302,342,
0,503,780,356,300,339,
0,498,768,353,296,335,
0,492,756,351,295,374,
0,534,744,348,291,369,
0,527,734,345,289,366,
0,520,723,343,287,362,
0,515,711,340,284,359,
0,508,701,337,282,355,
0,504,769,335,308,352,
0,497,756,334,305,349,
0,492,745,331,303,345,
0,486,734,327,300,342,
0,480,723,326,297,371,
0,532,713,323,295,366,
0,526,703,321,292,363,
0,519,694,319,289,359,
0,514,683,316,287,355,
0,508,673,314,312,353,
0,503,760,344,310,349,
0,496,748,340,307,346,
0,492,737,337,304,344,
0,485,727,334,301,339,
0,480,716,330,299,359,
0,523,705,327,295,356,
0,516,696,324,294,353,
0,510,687,321,291,350,
0,504,675,319,287,347,
0,499,724,316,316,344,
0,494,780,313,313,340,
0,487,768,312,310,337,
0,483,756,309,307,335,
0,476,745,307,304,331,
0,491,735,304,302,363,
0,534,723,302,300,359,
0,527,713,300,296,355,
0,521,704,299,295,352,
0,515,691,295,291,349,
0,509,799,315,323,345,
0,504,783,318,319,343,
0,498,771,315,317,339,
0,492,760,312,314,336,
0,486,748,308,312,367,
0,548,737,305,308,363,
0,540,727,303,306,359,
0,534,716,300,304,355,
0,527,707,297,301,352,
0,521,695,295,297,349,
0,516,788,334,307,345,
0,510,775,334,304,343,
0,504,764,331,301,339,
0,499,752,327,299,335,
0,492,740,323,295,365,
0,559,730,321,294,361,
0,551,719,318,291,358,
0,544,710,316,288,354,
0,538,700,312,287,351,
0,531,688,310,284,348,
0,526,799,341,312,344,
0,519,785,337,308,341,
0,514,774,334,305,338,
0,507,761,331,303,335,
0,502,750,327,300,371,
0,570,739,323,297,368,
0,563,728,321,295,364,
0,556,719,318,292,359,
0,549,708,316,290,357,
0,543,696,312,319,354,
0,536,765,350,319,351,
0,530,753,347,316,347,
0,524,742,344,313,344,
0,517,731,339,311,341,
0,512,720,335,307,362,
0,567,710,333,305,359,
0,560,700,330,302,355,
0,553,691,327,300,352,
0,546,681,324,297,348,
0,540,736,321,342,345,
0,534,855,439,337,342,
0,527,839,433,334,339,
0,521,826,428,331,335,
0,515,812,423,327,332,
0,509,799,419,325,371,
0,504,787,415,322,368,
0,498,775,411,319,364,
0,493,765,407,316,360,
0,487,753,403,314,358,
0,483,856,432,345,353,
0,478,858,492,342,351,
0,473,844,487,339,348,
0,470,830,481,335,344,
0,512,817,476,332,342,
0,507,804,470,329,362,
0,500,792,465,327,359,
0,495,780,460,323,355,
0,489,768,455,321,352,
0,484,758,451,318,348,
0,480,870,487,340,345,
0,474,854,483,337,343,
0,469,839,478,334,339,
0,537,825,472,330,335,
0,553,812,467,327,360,
0,547,799,462,324,365,
0,540,788,457,322,361,
0,534,775,452,319,358,
0,527,764,448,316,355,
0,521,752,444,313,352,
0,516,849,477,339,348,
0,511,834,472,335,344,
0,505,820,467,332,342,
0,545,807,462,329,339,
0,536,795,456,327,364,
0,530,783,451,323,359,
0,524,771,447,321,355,
0,518,760,441,318,352,
0,512,749,438,315,348,
0,507,738,433,312,345,
0,502,857,483,332,342,
0,496,841,477,329,339,
0,491,828,472,327,335,
0,563,815,467,323,333,
0,553,803,462,320,362,
0,547,790,455,318,358,
0,540,778,451,315,354,
0,534,767,447,312,351,
0,527,755,443,310,347,
0,522,809,439,331,344,
0,516,859,480,336,341,
0,510,844,474,334,337,
0,504,831,470,331,335,
0,558,817,463,327,332,
0,548,804,459,324,384,
0,542,792,454,321,380,
0,536,780,448,319,376,
0,529,768,444,316,372,
0,524,758,440,313,368,
0,518,856,440,335,365,
0,512,854,440,331,361,
0,506,839,435,327,359,
0,500,826,431,325,355,
0,502,813,427,322,352,
0,496,800,422,319,349,
0,490,788,418,316,345,
0,485,776,415,313,343,
0,480,765,411,312,339,
0,475,754,407,308,336,
0,471,867,446,332,333,
0,465,851,440,327,331,
0,461,837,435,324,327,
0,510,824,431,321,324,
0,510,811,427,319,347,
0,504,798,422,316,361,
0,497,786,417,313,356,
0,492,775,413,311,353,
0,487,763,409,308,350,
0,481,752,406,305,347,
0,476,855,477,327,344,
0,471,840,472,326,340,
0,465,827,465,323,337,
0,553,813,461,319,334,
0,545,800,455,316,355,
0,537,788,449,313,352,
0,531,775,446,312,348,
0,525,765,441,308,344,
0,519,753,436,305,342,
0,513,743,432,304,339,
0,508,859,451,331,335,
0,502,844,445,327,332,
0,496,830,440,323,329,
0,501,817,436,320,326,
0,496,804,432,318,351,
0,513,792,427,315,348,
0,508,780,423,312,343,
0,502,768,419,310,339,
0,496,758,415,307,336,
0,491,747,411,322,334,
0,486,847,408,323,331,
0,480,832,403,320,327,
0,476,820,400,318,324,
0,544,807,396,315,322,
0,537,793,392,312,352,
0,529,782,388,309,348,
0,524,770,385,307,344,
0,518,760,382,304,340,
0,512,748,379,302,337,
0,507,777,401,330,334,
0,500,835,438,326,331,
0,495,822,433,323,327,
0,490,809,428,319,325,
0,534,796,423,316,322,
0,527,783,420,313,344,
0,519,771,415,312,340,
0,514,760,411,308,336,
0,508,750,408,305,334,
0,503,739,403,303,331,
0,497,827,448,329,327,
0,492,839,448,325,324,
0,487,825,443,322,321,
0,543,812,438,319,319,
0,547,799,433,316,337,
0,540,787,429,313,352,
0,532,775,423,311,348,
0,526,764,419,308,344,
0,520,752,415,305,340,
0,514,742,412,303,338,
0,509,848,460,333,335,
0,504,830,455,329,332,
0,497,816,450,326,328,
0,514,803,446,323,326,
0,508,791,441,319,364,
0,502,779,436,318,359,
0,495,768,431,315,355,
0,489,755,427,312,352,
0,484,745,423,310,349,
0,479,734,419,307,346,
0,474,843,449,337,342,
0,469,824,444,334,339,
0,464,812,440,331,336,
0,463,799,435,327,333,
0,457,787,431,324,358,
0,470,775,427,321,354,
0,463,763,421,319,350,
0,457,752,417,316,347,
0,454,741,413,313,344,
0,448,731,409,325,340,
0,444,868,463,327,337,
0,440,850,457,323,334,
0,436,836,452,320,331,
0,505,823,448,318,327,
0,499,809,443,315,361,
0,494,797,439,312,358,
0,487,785,433,309,353,
0,481,774,429,307,350,
0,476,762,424,304,347,
0,472,791,435,340,344,
0,466,851,451,336,340,
0,461,833,447,332,337,
0,456,820,441,329,335,
0,504,807,437,327,332,
0,497,795,433,323,328,
0,492,783,428,320,326,
0,484,771,423,318,322,
0,480,760,419,315,319,
0,475,748,415,312,316,
0,470,839,446,329,315,
0,464,847,444,326,312,
0,460,830,440,323,309,
0,515,817,435,319,306,
0,524,803,430,317,325,
0,519,792,425,313,329,
0,512,780,422,312,327,
0,504,768,416,308,323,
0,499,757,412,306,319,
0,494,745,408,304,317,
0,488,852,475,329,313,
0,483,837,469,326,311,
0,478,819,463,323,308,
0,586,807,459,319,306,
0,577,794,454,316,352,
0,569,782,449,313,348,
0,561,771,445,312,344,
0,555,759,440,308,341,
0,547,748,435,305,337,
0,542,737,431,304,335,
0,536,840,464,337,332,
0,529,825,459,334,327,
0,524,809,455,329,326,
0,574,796,449,327,323,
0,567,784,445,323,355,
0,560,772,440,320,351,
0,551,761,435,318,348,
0,545,750,431,316,344,
0,539,739,426,312,340,
0,532,729,423,327,337,
0,527,844,503,332,334,
0,520,830,496,329,331,
0,515,814,491,325,327,
0,560,800,486,322,324,
0,553,788,480,319,344,
0,546,775,476,316,340,
0,538,764,471,313,337,
0,531,753,464,311,333,
0,526,743,460,308,330,
0,519,772,462,330,327,
0,514,844,480,327,324,
0,508,830,473,323,321,
0,508,813,468,319,319,
0,570,800,463,317,316,
0,563,788,459,313,351,
0,556,775,455,312,347,
0,548,765,449,308,344,
0,542,753,444,305,339,
0,536,743,440,304,336,
0,529,837,459,324,334,
0,524,848,454,321,331,
0,518,834,448,319,327,
0,569,817,444,315,324,
0,569,804,440,312,348,
0,562,792,435,310,359,
0,555,780,431,307,356,
0,547,768,427,304,353,
0,540,758,422,302,348,
0,535,746,418,299,345,
0,528,878,451,329,343,
0,523,862,447,326,339,
0,516,844,441,323,335,
0,551,830,437,319,333,
0,543,817,433,316,359,
0,537,804,428,313,355,
0,531,792,423,311,352,
0,523,780,420,308,348,
0,518,768,415,305,344,
0,511,758,412,303,341,
0,506,879,452,332,337,
0,500,863,448,327,335,
0,496,845,443,325,332,
0,539,831,438,321,327,
0,532,819,433,319,387,
0,526,806,429,316,383,
0,519,793,424,313,379,
0,512,781,420,311,375,
0,507,769,415,307,370,
0,501,759,412,329,367,
0,496,862,450,344,364,
0,491,847,445,340,359,
0,486,830,440,337,357,
0,484,816,435,333,353,
0,480,804,432,330,359,
0,475,792,427,327,355,
0,470,780,423,324,352,
0,463,768,419,321,349,
0,460,756,414,319,345,
0,455,783,413,340,342,
0,451,856,431,337,339,
0,447,842,425,334,335,
0,443,825,422,331,333,
0,482,812,417,327,331,
0,476,799,413,324,364,
0,481,787,409,321,359,
0,476,775,406,318,356,
0,470,764,401,316,353,
0,463,752,398,312,349,
0,460,851,423,340,345,
0,455,867,419,336,343,
0,449,852,415,334,339,
0,502,835,411,330,336,
0,501,822,407,327,361,
0,495,808,403,323,369,
0,489,796,399,320,366,
0,484,783,396,318,363,
0,478,772,391,315,359,
0,472,761,387,312,355,
0,467,870,463,330,352,
0,462,854,457,327,348,
0,457,839,452,323,345,
0,531,823,448,321,342,
0,524,809,443,318,376,
0,518,798,439,315,373,
0,512,785,434,312,369,
0,505,774,430,309,366,
0,499,762,423,307,362,
0,494,751,420,304,358,
0,487,875,499,331,354,
0,483,859,493,327,352,
0,478,845,487,324,348,
0,558,828,483,321,345,
0,551,815,478,318,375,
0,543,802,472,315,371,
0,537,790,467,312,368,
0,531,778,463,310,364,
0,524,767,457,307,359,
0,518,755,452,324,356,
0,512,856,448,335,353,
0,507,840,444,332,350,
0,501,827,440,329,347,
0,579,810,435,326,344,
0,572,798,432,323,371,
0,564,785,427,319,368,
0,558,774,423,317,364,
0,551,763,419,315,359,
0,543,751,415,312,356,
0,537,790,411,342,353,
0,531,867,408,337,350,
0,526,852,403,334,347,
0,519,839,399,331,343,
0,555,822,396,327,340,
0,548,808,393,324,379,
0,541,796,390,321,376,
0,535,783,386,319,371,
0,529,772,384,316,368,
0,521,761,379,313,364,
0,516,857,413,334,359,
0,510,854,417,330,357,
0,504,839,412,327,353,
0,523,825,408,324,351,
0,516,809,404,321,368,
0,510,797,400,318,367,
0,504,785,396,315,364,
0,499,773,392,312,359,
0,494,761,389,310,356,
0,487,751,384,307,353,
0,483,884,484,335,350,
0,478,873,494,332,346,
0,472,859,487,329,344,
0,539,845,483,327,339,
0,531,828,478,323,370,
0,525,815,472,319,366,
0,519,802,467,317,363,
0,513,790,463,314,359,
0,507,778,458,312,355,
0,500,768,452,309,352,
0,495,871,467,332,348,
0,489,855,461,327,345,
0,484,841,455,326,342,
0,572,828,451,322,339,
0,564,812,448,319,358,
0,558,799,443,316,353,
0,551,787,439,313,350,
0,544,775,434,311,347,
0,538,763,430,307,344,
0,531,752,425,325,339,
0,525,867,469,331,336,
0,519,852,463,327,334,
0,513,839,460,324,331,
0,556,825,454,321,327,
0,548,809,449,318,359,
0,542,796,445,315,356,
0,536,783,440,312,353,
0,529,772,435,309,350,
0,524,761,432,307,347,
0,516,788,447,338,342,
0,511,856,477,334,339,
0,504,841,472,331,335,
0,500,828,467,327,333,
0,543,815,462,325,330,
0,537,799,456,321,380,
0,531,787,452,319,376,
0,525,775,448,316,372,
0,519,764,443,313,368,
0,513,752,439,311,364,
0,507,851,434,342,360,
0,500,850,457,338,358,
0,495,835,452,335,354,
0,553,823,448,332,351,
0,548,809,443,328,357,
0,542,794,439,325,360,
0,536,782,434,322,357,
0,528,771,430,319,353,
0,523,759,425,316,350,
0,517,748,422,313,347,
0,510,883,504,323,343,
0,504,873,497,319,339,
0,499,859,492,317,337,
0,586,844,486,315,334,
0,577,830,481,312,382,
0,571,814,476,308,377,
0,563,801,471,306,374,
0,557,790,466,303,370,
0,551,777,461,301,367,
0,542,767,456,299,364,
0,536,865,465,335,359,
0,530,849,460,332,355,
0,524,835,455,329,352,
0,579,822,451,327,349,
0,572,809,447,323,387,
0,564,793,442,319,384,
0,558,782,438,317,380,
0,551,770,433,315,376,
0,544,759,430,312,372,
0,536,766,425,329,369,
0,531,889,465,335,364,
0,524,873,460,332,361,
0,519,859,455,329,358,
0,564,844,450,327,355,
0,558,831,446,323,368,
0,551,815,440,319,364,
0,543,801,436,317,359,
0,537,790,432,315,356,
0,531,778,428,312,353,
0,524,807,423,337,351,
0,519,864,496,333,347,
0,512,848,491,330,344,
0,508,835,486,327,340,
0,548,822,480,323,337,
0,542,809,476,321,376,
0,536,793,471,318,371,
0,529,781,465,315,368,
0,524,769,460,312,364,
0,518,759,455,310,361,
0,511,861,472,326,358,
0,505,860,489,323,353,
0,499,845,483,319,350,
0,563,831,479,317,347,
0,567,818,473,313,364,
0,560,806,468,312,364,
0,552,790,463,308,360,
0,547,779,460,305,357,
0,540,768,455,303,353,
0,534,755,450,300,351,
0,527,830,507,321,347,
0,520,815,519,319,344,
0,515,801,512,316,340,
0,607,790,507,313,337,
0,598,777,502,310,379,
0,590,763,496,307,374,
0,583,752,491,304,371,
0,575,740,486,302,367,
0,568,731,481,299,363,
0,562,719,476,296,359,
0,554,791,480,322,356,
0,547,777,473,319,352,
0,542,766,468,316,349,
0,626,754,463,313,345,
0,617,743,459,311,363,
0,609,729,455,307,359,
0,601,719,450,304,355,
0,595,709,446,302,352,
0,588,700,441,300,349,
0,580,703,438,321,346,
0,572,846,502,327,343,
0,566,831,495,323,339,
0,559,818,489,321,335,
0,667,805,483,318,332,
0,658,793,479,315,368,
0,649,777,473,312,364,
0,639,766,468,308,361,
0,632,755,463,306,358,
0,625,743,460,304,354,
0,617,782,455,335,351,
0,608,872,450,332,348,
0,600,857,445,327,344,
0,614,844,440,326,340,
0,708,829,436,322,337,
0,699,816,432,319,385,
0,689,801,428,316,380,
0,679,788,423,313,376,
0,671,776,420,311,374,
0,663,765,417,307,369,
0,655,847,435,328,367,
0,644,848,463,325,363,
0,636,834,457,322,359,
0,656,821,453,319,355,
0,647,807,448,316,355,
0,639,796,444,313,354,
0,632,780,440,311,351,
0,624,769,435,307,348,
0,615,758,431,304,344,
0,609,747,427,302,342,
0,603,817,441,325,339,
0,593,803,435,322,335,
0,587,791,431,319,332,
0,621,779,427,316,329,
0,612,767,422,313,328,
0,605,755,418,311,326,
0,598,742,415,307,323,
0,590,731,411,304,319,
0,583,721,407,302,318,
0,576,711,403,300,315,
0,571,824,455,327,312,
0,563,809,448,323,310,
0,556,797,444,319,307,
0,572,785,439,318,304,
0,564,772,434,315,319,
0,591,761,430,312,317,
0,583,748,425,310,313,
0,577,736,421,306,311,
0,569,726,417,303,308,
0,563,716,414,318,305,
0,557,841,413,319,303,
0,548,827,408,316,300,
0,543,814,404,313,297,
0,537,800,400,311,295,
0,531,789,397,307,347,
0,610,776,393,305,343,
0,602,761,391,302,339,
0,595,751,387,300,336,
0,588,740,384,296,334,
0,580,742,381,310,331,
0,574,804,462,307,327,
0,565,792,455,304,324,
0,559,780,450,301,320,
0,551,768,446,299,318,
0,551,756,441,295,367,
0,632,744,436,294,363,
0,624,732,432,291,359,
0,615,721,428,287,355,
0,608,711,423,286,352,
0,601,806,440,311,350,
0,593,807,503,307,346,
0,583,795,496,304,343,
0,577,783,490,302,339,
0,571,771,484,300,362,
0,627,760,480,296,381,
0,648,748,475,294,377,
0,639,734,470,291,374,
0,632,723,465,288,370,
0,624,713,460,287,367,
0,616,844,508,307,363,
0,608,828,511,304,359,
0,600,815,504,302,356,
0,592,802,499,299,352,
0,585,790,493,296,366,
0,665,777,487,294,361,
0,655,766,483,291,358,
0,647,752,478,288,355,
0,639,741,472,286,352,
0,631,731,468,284,348,
0,624,735,486,314,345,
0,615,724,480,311,342,
0,606,714,473,308,339,
0,599,704,468,305,335,
0,591,695,463,303,380,
0,689,686,459,300,376,
0,679,677,454,297,372,
0,670,667,449,295,369,
0,661,659,446,292,366,
0,652,675,441,308,363,
0,644,847,545,319,359,
0,636,833,537,316,355,
0,627,819,529,312,352,
0,619,807,524,310,348,
0,611,794,518,307,345,
0,721,782,512,304,343,
0,711,770,507,302,339,
0,701,756,502,299,336,
0,691,745,496,295,334,
0,683,793,492,321,331,
0,673,851,487,318,327,
0,665,837,482,315,325,
0,660,824,476,312,321,
0,723,810,472,310,319,
0,715,798,467,307,359,
0,775,785,462,304,356,
0,763,774,457,302,352,
0,752,760,454,299,350,
0,742,748,449,295,346,
0,732,825,460,321,344,
0,721,824,520,318,339,
0,711,809,515,315,336,
0,768,798,508,312,333,
0,771,785,502,310,362,
0,814,773,496,307,382,
0,811,761,492,304,377,
0,799,751,486,302,374,
0,787,736,481,298,370,
0,775,727,476,295,367,
0,765,759,529,316,364,
0,754,746,523,313,359,
0,743,735,516,310,356,
0,828,724,510,307,352,
0,814,714,504,305,398,
0,836,704,499,302,391,
0,823,695,493,299,388,
0,810,686,487,296,384,
0,798,675,483,294,381,
0,787,667,479,291,377,
0,775,659,628,323,374,
0,764,651,628,319,371,
0,752,643,620,317,367,
0,843,635,611,313,363,
0,828,627,604,312,391,
0,867,620,596,308,387,
0,854,614,590,305,383,
0,840,607,583,303,379,
0,827,598,576,300,376,
0,815,591,571,321,371,
0,803,674,671,326,368,
0,792,664,662,323,364,
0,777,655,654,319,361,
0,864,647,643,316,358,
0,851,638,636,314,399,
0,880,630,628,311,395,
0,865,622,620,308,391,
0,852,614,614,305,387,
0,839,604,606,302,384,
0,826,665,600,331,380,
0,814,771,807,327,376,
0,802,760,792,323,372,
0,816,748,781,321,369,
0,894,736,768,318,365,
0,878,727,756,316,368,
0,904,716,747,312,364,
0,889,705,736,310,361,
0,875,696,728,307,358,
0,861,684,718,304,355,
0,847,675,709,325,352,
0,835,667,700,321,349,
0,823,659,691,319,345,
0,874,651,684,316,343,
0,905,642,673,313,361,
0,900,634,665,310,374,
0,911,627,658,307,370,
0,911,619,651,305,367,
0,894,611,643,302,363,
0,877,603,636,299,359,
0,864,774,707,323,356,
0,851,760,740,320,353,
0,838,748,729,318,350,
0,896,737,719,315,347,
0,910,727,708,312,398,
0,912,716,699,310,393,
0,916,705,690,307,389,
0,918,696,681,304,385,
0,914,684,673,301,382,
0,889,675,665,298,377,
0,875,667,657,318,374,
0,861,658,649,315,371,
0,847,649,642,312,368,
0,902,641,635,308,364,
0,911,633,626,306,389,
0,914,626,619,304,385,
0,918,619,612,300,381,
0,919,611,606,298,377,
0,913,602,600,295,374,
0,888,595,593,309,371,
0,873,675,588,317,367,
0,860,665,583,315,364,
0,847,655,576,312,359,
0,905,647,571,308,357,
0,913,639,563,305,399,
0,916,631,558,303,396,
0,920,623,552,300,391,
0,920,615,547,297,387,
0,919,605,542,295,384,
0,897,598,536,316,380,
0,878,591,532,313,377,
0,865,583,527,310,374,
0,851,578,522,307,370,
0,908,572,517,304,367,
0,914,566,511,302,414,
0,917,560,507,300,409,
0,920,553,502,296,406,
0,921,548,497,295,401,
0,920,541,493,291,398,
0,900,630,537,323,393,
0,879,619,620,319,390,
0,865,611,611,316,387,
0,869,603,604,313,384,
0,910,595,595,310,380,
0,915,588,588,307,396,
0,918,580,582,304,392,
1,920,574,575,302,388,
1,921,567,568,300,385,
1,918,559,562,296,381,
1,892,560,652,330,377,
1,876,551,664,327,374,
1,863,545,655,323,371,
1,892,540,647,321,368,
1,911,534,636,318,377,
1,915,528,629,315,390,
1,918,523,622,312,385,
1,920,518,614,310,382,
1,921,513,607,307,379,
1,915,507,600,304,375,
1,888,502,817,321,371,
1,873,497,841,318,368,
1,860,492,828,316,364,
1,899,487,816,312,361,
1,911,483,801,310,408,
1,916,479,790,307,401,
1,919,474,779,304,398,
1,920,470,768,302,393,
1,920,465,758,300,391,
1,910,460,748,297,387,
1,883,504,739,319,383,
1,870,497,729,318,379,
1,856,492,719,315,376,
1,903,486,711,312,372,
0,913,481,700,309,391,
1,916,476,691,306,387,
0,920,470,684,304,384,
0,921,465,676,301,380,
1,921,460,668,299,376,
0,914,457,660,316,373,
1,886,480,735,312,369,
0,871,475,724,310,366,
0,858,468,715,307,363,
0,905,463,704,304,359,
0,915,459,694,302,412,
0,918,454,684,299,408,
0,920,449,676,295,403,
0,921,446,668,294,399,
0,920,441,659,291,395,
0,904,531,652,321,391,
0,880,526,645,318,387,
0,867,519,638,315,384,
0,870,513,632,312,380,
0,908,508,624,309,377,
0,915,502,615,307,411,
0,918,496,609,304,406,
0,920,491,603,301,401,
0,921,485,596,298,398,
0,918,480,591,295,393,
0,892,483,743,332,390,
0,875,477,748,329,386,
0,862,472,737,326,383,
0,891,467,728,323,379,
0,909,462,718,319,384,
0,915,457,706,318,393,
0,918,452,697,315,389,
0,920,448,688,312,385,
0,921,444,679,309,382,
0,920,440,671,307,377,
0,896,435,793,314,375,
0,878,431,798,312,371,
0,864,427,785,308,368,
0,899,423,775,305,364,
0,910,420,764,303,411,
0,915,416,751,300,405,
0,919,413,741,297,401,
0,921,409,732,295,397,
0,921,406,722,293,393,
0,915,403,713,291,390,
0,887,399,788,307,385,
0,871,396,775,304,382,
0,859,392,766,301,379,
0,903,390,755,299,375,
0,911,387,745,295,406,
0,916,384,732,294,400,
0,919,380,723,291,396,
0,921,377,713,288,392,
0,922,375,704,287,389,
0,917,371,696,299,385,
0,888,438,688,316,382,
0,874,433,679,313,377,
0,861,428,671,311,375,
0,905,423,664,307,371,
0,913,419,655,305,408,
0,917,415,647,302,402,
0,920,411,639,300,399,
0,921,408,632,297,395,
0,921,403,625,295,391,
0,910,437,659,334,387,
0,883,467,816,329,384,
0,868,462,802,326,380,
0,871,455,791,323,376,
0,908,451,780,319,373,
0,914,447,768,317,395,
0,918,441,755,314,390,
0,920,437,745,312,386,
0,921,432,736,308,382,
0,920,428,781,306,379,
0,901,487,769,315,376,
0,879,479,759,311,371,
0,865,473,748,308,368,
0,889,468,739,305,365,
0,909,463,728,303,387,
0,914,458,719,300,423,
0,918,453,708,297,417,
0,920,448,700,295,412,
0,920,444,691,292,408,
0,908,440,683,291,405,
0,883,570,675,311,401,
0,868,579,667,307,397,
0,855,572,659,304,393,
0,898,566,652,301,390,
0,910,559,644,299,399,
0,913,551,636,295,395,
0,897,545,628,294,391,
0,879,539,621,291,387,
0,865,532,615,288,384,
0,851,527,608,287,380,
0,839,622,692,305,376,
0,827,610,683,302,372,
0,815,603,673,299,369,
0,897,595,665,295,366,
0,908,588,657,294,412,
0,888,579,648,291,408,
0,873,573,639,289,402,
0,859,567,632,287,398,
0,846,560,624,284,395,
0,833,553,671,286,391,
0,821,547,761,292,387,
0,809,539,750,289,384,
0,798,534,740,287,380,
0,900,527,729,284,376,
0,895,521,719,281,420,
0,873,516,711,280,415,
0,860,511,700,278,411,
0,847,505,691,275,407,
0,833,500,682,273,402,
0,822,556,787,312,399,
0,809,671,902,308,395,
0,797,659,908,304,391,
0,787,649,896,302,387,
0,885,641,878,299,384,
0,871,632,864,295,428,
0,852,625,851,294,423,
0,839,617,836,291,418,
0,827,609,824,289,414,
0,814,602,812,287,411,
0,803,700,801,311,406,
0,791,700,791,307,402,
0,780,687,780,304,399,
0,838,678,770,302,395,
0,905,669,760,299,417,
0,904,659,751,295,435,
0,880,652,741,294,431,
0,866,643,729,291,425,
0,853,635,720,289,420,
0,839,627,711,287,416,
0,828,620,704,313,412,
0,815,610,695,311,408,
0,803,603,687,307,404,
0,884,595,679,304,401,
0,903,588,671,302,441,
0,902,582,664,299,435,
0,905,575,655,295,431,
0,886,568,647,294,425,
0,871,563,639,291,422,
0,857,556,633,289,417,
0,844,551,627,319,413,
0,831,543,620,316,409,
0,819,537,614,312,406,
0,900,531,607,310,401,
0,910,526,601,307,428,
0,911,520,595,304,423,
0,888,515,588,302,419,
0,873,510,581,299,414,
0,860,504,575,295,410,
0,846,499,569,312,406,
0,833,495,808,322,401,
0,820,487,795,319,398,
0,809,484,783,316,395,
0,903,480,771,312,391,
0,911,475,761,310,414,
0,908,470,751,307,409,
0,883,465,740,304,406,
0,868,462,728,302,401,
0,855,457,719,299,397,
0,842,453,841,313,393,
0,829,448,904,310,390,
0,816,444,903,307,385,
0,806,440,883,304,383,
0,887,435,869,301,379,
0,871,432,856,299,404,
0,857,428,844,295,399,
0,841,423,828,294,396,
0,828,420,816,291,391,
0,816,417,805,288,387,
0,804,460,861,318,384,
0,792,514,847,315,380,
0,781,506,833,312,377,
0,847,500,822,308,374,
0,881,495,809,305,391,
0,867,489,798,303,406,
0,854,483,787,300,401,
0,836,479,774,297,398,
0,824,473,764,295,391,
0,812,468,754,293,389,
0,799,463,900,327,385,
0,788,459,910,323,382,
0,777,452,915,319,378,
0,883,448,918,316,375,
0,899,444,920,313,377,
0,894,440,920,311,373,
0,879,435,910,307,369,
0,861,431,880,305,366,
0,847,426,867,303,363,
0,834,423,855,300,359,
0,822,514,903,339,356,
0,809,507,911,335,353,
0,798,499,915,332,351,
0,892,494,918,327,348,
0,877,488,915,326,381,
0,864,483,892,322,376,
0,851,478,876,319,373,
0,834,472,860,317,369,
0,822,467,847,314,364,
0,809,463,836,331,361,
0,798,537,899,342,358,
0,786,530,883,339,355,
0,775,523,869,335,352,
0,900,516,856,332,348,
0,907,510,843,329,393,
0,911,504,830,326,389,
0,913,499,818,323,385,
0,894,493,804,319,381,
0,877,487,793,318,376,
0,863,494,783,336,373,
0,849,551,772,333,369,
0,836,543,763,329,366,
0,839,536,753,326,363,
0,907,529,743,323,359,
0,911,524,735,319,388,
0,915,518,726,318,384,
0,916,512,717,315,381,
0,896,505,706,312,377,
0,878,500,698,310,372,
0,865,574,752,344,369,
0,851,615,768,339,366,
0,838,607,755,335,362,
0,877,598,745,332,359,
0,908,590,735,329,371,
0,912,582,725,327,384,
0,916,575,716,323,380,
0,919,568,706,320,376,
0,918,561,696,318,371,
0,899,556,687,315,368,
0,880,623,847,339,364,
0,865,614,878,335,360,
0,851,606,864,332,358,
0,897,596,850,327,354,
0,910,588,837,325,396,
0,915,581,824,322,391,
0,918,574,813,319,387,
0,920,568,801,316,384,
0,919,561,903,313,379,
0,898,555,896,312,376,
0,879,683,879,321,372,
0,864,671,865,319,368,
0,851,663,852,316,365,
0,902,651,839,312,361,
0,911,643,828,310,408,
0,915,635,815,307,403,
0,918,627,803,304,399,
0,920,619,792,302,395,
0,921,611,780,300,391,
0,912,604,769,319,387,
0,884,658,857,323,384,
0,871,648,843,320,380,
0,857,639,830,318,376,
0,905,630,817,314,372,
0,913,622,806,312,415,
0,916,614,794,308,409,
0,920,606,783,305,406,
0,921,599,772,304,401,
0,923,591,760,300,397,
0,919,584,788,327,393,
0,891,656,903,323,390,
0,875,647,911,321,385,
0,880,639,915,318,382,
0,908,627,918,315,379,
0,914,620,918,312,420,
0,917,611,903,308,415,
0,920,604,897,306,412,
0,922,597,910,304,408,
0,923,590,915,301,403,
0,915,615,919,326,399,
0,886,708,920,323,396,
0,871,697,913,319,391,
0,895,688,888,316,387,
0,910,676,873,313,419,
0,915,668,860,311,431,
0,918,659,847,307,426,
0,920,649,835,305,422,
0,922,641,824,303,417,
0,920,633,809,300,412,
0,901,688,839,312,408,
0,878,678,825,309,404,
0,864,668,813,306,400,
0,900,659,801,304,397,
0,911,647,791,300,434,
0,915,639,780,297,429,
0,919,632,769,295,424,
0,921,624,760,293,420,
0,922,616,879,291,415,
0,919,609,908,287,412,
0,893,602,899,317,408,
0,876,595,880,314,403,
0,863,588,866,312,399,
0,903,582,853,308,396,
0,911,574,841,305,447,
0,916,567,828,303,441,
0,919,561,816,300,436,
0,921,555,805,297,432,
0,923,548,793,295,428,
0,919,543,781,311,423,
0,890,629,770,318,419,
0,875,620,760,315,415,
0,862,612,750,312,411,
0,905,604,741,310,407,
0,912,595,732,306,440,
0,916,588,723,304,435,
0,919,580,713,301,431,
0,921,573,705,298,427,
0,921,567,833,295,422,
0,915,589,816,313,417,
0,886,615,804,310,413,
0,871,608,792,307,409,
0,880,600,781,304,405,
0,908,592,770,302,401,
0,914,583,760,299,456,
0,918,575,750,295,451,
0,920,569,739,294,447,
0,921,563,730,291,442,
0,921,556,720,288,438,
0,913,628,710,316,432,
0,884,670,700,312,428,
0,870,660,692,309,423,
0,884,652,684,307,419,
0,908,643,676,304,436,
0,913,632,668,300,468,
0,916,624,662,297,463,
0,920,617,654,295,459,
0,921,609,647,293,454,
0,918,601,639,291,449,
0,894,710,632,321,444,
0,876,704,624,319,440,
0,863,694,618,316,435,
0,897,684,611,312,431,
0,910,672,605,310,444,
0,914,664,600,307,439,
0,918,655,593,304,434,
0,920,647,587,301,430,
0,920,638,582,299,425,
0,907,630,575,295,422,
0,883,672,816,331,416,
0,868,663,803,327,412,
0,855,654,791,324,409,
0,902,645,779,321,405,
0,911,635,768,319,452,
0,915,627,758,316,448,
0,918,619,747,312,442,
0,920,611,737,310,438,
0,921,604,728,307,433,
0,915,596,718,323,430,
0,887,678,896,325,423,
0,872,667,892,322,419,
0,859,658,876,319,415,
0,905,649,862,316,412,
0,913,639,849,313,463,
0,916,631,836,310,457,
0,920,623,824,307,453,
0,921,615,812,304,448,
0,921,607,801,302,444,
0,908,600,797,321,440,
0,882,592,906,317,433,
0,868,585,913,314,430,
0,880,579,916,312,425,
0,908,572,915,308,421,
0,914,564,899,305,471,
0,917,558,879,303,465,
0,920,551,865,300,460,
0,921,546,852,297,455,
0,920,540,840,295,451,
0,896,591,825,315,447,
0,877,602,814,312,440,
0,863,594,803,309,436,
0,891,587,792,306,432,
0,909,579,781,304,464,
0,914,571,771,301,487,
0,918,563,760,297,482,
0,920,557,751,295,477,
0,921,551,742,292,472,
0,920,544,732,290,467,
0,895,538,764,311,463,
0,877,532,897,307,455,
0,864,527,910,305,451,
0,900,521,915,302,448,
0,911,515,916,300,497,
0,915,509,913,296,491,
0,919,504,891,294,486,
0,920,499,875,291,480,
0,922,495,862,289,476,
0,921,489,849,287,471,
0,894,524,876,304,466,
0,877,517,868,300,460,
0,863,511,856,297,455,
0,903,505,842,295,451,
0,911,499,830,293,461,
0,915,492,817,290,455,
0,919,487,806,287,451,
0,920,482,796,285,447,
0,922,478,785,283,443,
0,918,473,775,295,439,
0,886,505,761,295,434,
0,871,499,752,292,429,
0,858,494,743,289,425,
0,905,487,733,287,421,
0,913,483,724,284,461,
0,916,476,715,281,455,
0,919,471,707,280,451,
0,921,466,699,278,447,
0,921,462,690,275,441,
0,915,494,683,290,438,
0,883,586,888,287,433,
0,868,579,871,284,428,
0,876,572,859,282,423,
0,908,564,845,280,419,
0,914,558,831,278,480,
0,917,549,820,274,473,
0,920,543,807,272,469,
0,921,536,797,270,463,
0,920,530,786,268,460,
0,905,575,775,287,455,
0,877,590,896,284,449,
0,864,583,879,281,444,
0,889,575,865,279,440,
0,909,568,851,276,472,
0,914,561,839,274,491,
0,918,553,827,271,486,
0,920,547,815,269,480,
0,921,540,803,267,475,
0,920,534,792,265,471,
0,907,527,782,281,465,
0,878,522,768,279,460,
0,864,516,758,275,455,
0,896,511,748,273,450,
0,910,505,739,271,491,
0,913,500,729,269,484,
0,917,494,719,266,479,
0,920,488,711,263,473,
0,921,483,703,263,469,
0,918,479,694,260,463,
0,893,528,759,285,460,
0,872,521,836,283,454,
0,859,515,824,280,449,
0,903,509,811,278,444,
0,911,504,799,275,505,
0,915,497,787,273,499,
0,919,491,776,270,494,
0,920,486,766,268,487,
0,921,480,755,265,483,
0,917,475,745,284,479,
0,889,470,736,291,473,
0,871,465,724,287,467,
0,857,461,715,286,463,
0,905,456,705,283,458,
0,913,452,697,280,470,
0,916,448,688,278,465,
0,920,443,680,275,460,
0,921,439,672,273,455,
0,921,435,665,271,451,
0,913,431,657,300,447,
0,886,432,651,297,442,
0,867,428,641,295,437,
0,876,423,635,291,433,
0,908,420,627,289,429,
0,913,416,621,287,443,
0,917,413,615,284,438,
0,920,408,608,281,433,
0,921,405,601,279,430,
0,921,401,595,277,425,
0,911,399,590,319,422,
0,883,395,593,316,417,
0,866,391,585,312,413,
0,889,388,579,310,409,
0,909,385,574,307,435,
0,914,383,568,304,440,
0,917,380,562,302,435,
0,920,376,557,299,431,
0,920,372,551,295,427,
0,912,369,546,294,423,
0,887,367,711,321,418,
0,871,364,711,318,414,
0,854,361,699,315,409,
0,896,359,689,312,406,
0,910,355,680,310,436,
0,914,353,671,307,432,
0,918,351,790,304,427,
0,920,347,792,301,423,
0,920,344,780,299,419,
0,915,342,769,295,415,
0,888,453,759,327,411,
0,869,447,748,325,407,
0,856,441,736,322,402,
0,903,436,726,319,398,
0,911,432,716,316,436,
0,915,427,707,313,432,
0,919,423,698,311,427,
0,920,417,689,307,423,
0,920,414,688,304,419,
0,900,409,679,331,415,
0,879,487,671,340,411,
0,862,481,664,337,407,
0,849,476,654,334,401,
0,904,471,646,332,398,
0,912,465,639,327,415,
0,916,460,632,325,412,
0,919,455,624,322,408,
0,920,449,617,319,403,
0,918,444,611,316,399,
0,896,498,605,339,396,
0,878,575,598,335,391,
0,860,568,591,332,388,
0,864,561,583,329,384,
0,907,555,578,327,381,
0,913,547,572,323,382,
0,917,542,566,320,377,
0,920,536,560,318,375,
0,920,527,615,315,371,
0,916,521,732,312,368,
0,888,543,721,334,366,
0,873,536,711,331,363,
0,856,529,702,327,359,
0,889,524,691,324,355,
0,909,518,681,321,371,
0,913,512,673,319,367,
0,917,506,665,316,363,
0,920,500,657,313,359,
0,920,494,649,310,356,
0,905,488,641,307,353,
0,882,547,634,339,350,
0,867,540,627,335,348,
0,850,535,619,332,344,
0,900,527,611,329,342,
0,911,521,604,326,342,
0,915,515,598,323,339,
0,919,510,591,320,335,
0,920,503,583,318,334,
0,920,497,577,314,331,
0,911,492,572,312,328,
0,885,620,675,332,326,
0,870,610,665,329,323,
0,852,601,656,327,321,
0,902,594,646,323,318,
0,911,587,639,321,322,
0,915,579,631,318,319,
0,919,572,623,315,316,
0,920,564,615,312,314,
0,920,558,608,309,312,
0,905,551,601,328,310,
0,881,632,743,327,307,
0,867,623,764,325,304,
0,850,615,753,321,302,
0,905,607,739,319,300,
0,913,600,729,316,332,
0,916,591,719,313,328,
0,920,584,711,311,326,
0,921,575,701,307,323,
0,920,569,692,305,319,
0,902,581,684,335,317,
0,880,683,728,332,313,
0,865,673,719,329,312,
0,863,664,709,326,308,
0,907,655,697,323,305,
0,913,647,688,319,355,
0,917,638,679,317,352,
0,920,630,671,315,348,
0,921,620,664,312,345,
0,918,612,655,308,342,
0,892,684,647,339,339,
0,876,702,639,335,335,
0,862,691,632,332,333,
0,888,682,624,329,330,
0,908,672,616,326,364,
0,914,664,610,323,371,
0,917,655,604,319,368,
0,920,647,596,318,364,
0,920,636,590,315,359,
0,911,628,583,312,357,
0,886,753,578,344,353,
0,870,739,600,342,350,
0,857,728,593,338,348,
0,897,718,583,335,344,
0,910,707,577,332,364,
0,913,698,572,329,359,
0,917,688,566,327,357,
0,919,679,560,323,353,
0,918,668,553,320,350,
0,896,659,583,318,348,
0,878,810,812,334,344,
0,864,796,817,331,340,
0,850,783,805,327,338,
0,900,771,790,324,335,
0,910,760,780,322,390,
0,914,749,768,319,385,
0,918,739,758,316,381,
0,920,728,748,313,377,
0,916,716,737,311,374,
0,891,706,728,334,371,
0,875,760,719,337,367,
0,862,748,710,334,364,
0,848,737,701,332,359,
0,867,728,690,327,357,
0,853,717,681,326,393,
0,899,707,673,322,390,
0,883,697,744,319,385,
0,868,688,769,316,382,
0,855,676,758,313,377,
0,841,668,748,324,375,
0,828,724,737,321,371,
0,817,713,728,318,368,
0,806,704,718,315,364,
0,796,694,706,312,360,
0,809,684,697,310,376,
0,862,675,688,307,371,
0,847,666,679,304,368,
0,834,657,671,302,365,
0,821,647,664,299,361,
0,809,707,656,336,358,
0,797,729,653,333,355,
0,785,718,646,329,352,
0,775,708,639,327,349,
0,810,698,630,323,345,
0,876,688,623,321,391,
0,867,679,615,318,388,
0,854,670,696,315,384,
0,839,661,686,312,380,
0,827,651,676,309,376,
0,815,802,771,343,373,
0,802,787,850,339,369,
0,791,775,836,335,366,
0,780,764,824,332,363,
0,768,752,808,329,395,
0,862,742,796,327,390,
0,847,731,785,324,386,
0,833,721,775,321,383,
0,821,711,764,319,379,
0,808,699,755,315,376,
0,797,769,744,350,371,
0,785,758,735,347,368,
0,774,747,726,344,365,
0,865,736,716,340,361,
0,878,725,706,337,384,
0,905,715,697,335,379,
0,909,705,688,332,376,
0,892,696,679,327,371,
0,876,687,671,326,368,
0,862,675,664,353,364,
0,848,711,657,352,361,
0,835,700,649,348,358,
0,823,691,642,345,355,
0,897,681,635,342,352,
0,905,671,626,339,371,
0,911,664,620,335,367,
0,913,655,612,332,364,
0,902,647,606,329,359,
0,880,639,600,327,356,
0,866,630,593,350,353,
0,854,684,831,346,350,
0,839,675,816,343,347,
0,827,665,803,339,344,
0,903,655,792,336,341,
0,911,647,777,334,394,
0,915,639,768,331,390,
0,915,632,756,327,386,
0,904,624,768,325,383,
0,881,615,819,322,379,
0,868,736,807,322,376,
0,854,745,795,319,371,
0,841,734,783,316,368,
0,828,723,772,313,364,
0,834,713,761,312,361,
0,880,703,748,308,387,
0,898,693,739,305,383,
0,880,684,729,304,379,
0,866,675,719,301,376,
0,852,666,711,299,371,
0,839,655,702,316,368,
0,826,647,694,312,364,
0,815,639,685,310,361,
0,870,632,677,307,359,
0,907,624,669,304,379,
0,911,615,659,302,392,
0,915,609,652,299,388,
0,915,601,644,296,385,
0,898,595,637,295,381,
0,879,588,630,291,377,
0,865,679,721,318,374,
0,851,668,711,315,370,
0,838,659,701,312,367,
0,877,650,692,309,364,
0,858,641,683,307,410,
0,900,633,671,304,404,
0,888,625,664,301,399,
0,873,617,655,299,396,
0,860,609,647,295,391,
0,846,602,639,294,388,
0,832,707,632,316,384,
0,820,696,757,312,381,
0,808,687,745,310,377,
0,822,678,735,307,374,
0,806,668,726,304,415,
0,887,659,712,302,408,
0,871,651,704,299,404,
0,857,643,695,295,400,
0,844,635,686,294,396,
0,831,627,678,302,393,
0,819,671,669,300,389,
0,806,663,661,297,385,
0,795,654,653,295,382,
0,892,644,645,292,379,
0,876,636,638,291,436,
0,907,628,628,287,431,
0,900,620,622,286,426,
0,881,613,737,284,422,
0,867,606,775,281,417,
0,853,596,764,305,414,
0,839,590,753,302,409,
0,827,583,743,298,406,
0,830,575,733,295,402,
0,904,570,723,294,398,
0,899,564,713,291,403,
0,910,558,702,288,399,
0,911,551,694,286,395,
0,891,547,684,284,391,
0,876,540,676,281,388,
0,863,668,816,310,384,
0,847,677,803,306,381,
0,835,667,792,304,377,
0,881,658,780,301,374,
0,907,649,769,298,394,
0,908,641,758,295,415,
0,913,632,745,293,411,
0,911,624,736,291,407,
0,890,617,726,287,403,
0,875,609,716,286,399,
0,861,636,893,302,395,
0,847,627,908,299,391,
0,835,619,913,295,387,
0,888,611,907,294,384,
0,888,603,884,291,433,
0,904,595,870,288,428,
0,910,588,854,286,422,
0,896,582,841,284,417,
0,878,575,829,281,414,
0,864,568,817,280,409,
0,850,686,903,307,406,
0,836,675,911,304,401,
0,824,666,915,301,398,
0,897,657,915,299,394,
0,899,647,900,295,452,
0,907,639,880,294,448,
0,912,632,863,291,441,
0,907,624,850,288,436,
0,884,615,837,286,432,
0,870,608,826,301,428,
0,856,719,814,304,423,
0,843,710,803,300,419,
0,830,700,792,297,415,
0,902,689,781,295,412,
0,894,679,771,292,408,
0,909,671,759,290,405,
0,911,662,749,287,399,
0,897,654,739,285,396,
0,879,646,730,283,393,
0,864,638,721,312,390,
0,851,632,712,307,386,
0,838,624,704,304,382,
0,825,617,696,302,379,
0,876,609,688,299,376,
0,864,602,679,295,375,
0,905,595,670,294,371,
0,890,588,662,291,368,
0,875,582,655,289,364,
0,860,575,647,287,361,
0,847,670,639,307,358,
0,834,657,633,304,355,
0,822,647,627,300,352,
0,868,639,620,297,349,
0,908,632,614,295,384,
0,911,623,607,293,403,
0,916,615,599,291,398,
0,914,608,593,287,393,
0,891,600,587,286,390,
0,875,593,581,284,386,
0,862,586,575,302,382,
0,847,577,569,300,379,
0,835,571,612,295,375,
0,896,564,605,294,371,
0,910,558,598,291,411,
0,913,551,590,288,407,
0,913,545,582,286,402,
0,894,540,575,284,397,
0,877,535,568,281,393,
0,864,529,563,280,390,
0,850,694,725,308,385,
0,836,680,719,305,382,
0,824,671,709,302,379,
0,899,662,700,299,376,
0,910,654,691,295,422,
0,911,644,681,294,417,
0,888,636,671,291,413,
0,872,628,662,289,408,
0,859,620,654,286,403,
0,846,612,647,305,399,
0,832,763,664,311,396,
0,820,747,655,307,391,
0,807,736,647,304,388,
0,903,725,639,302,385,
0,911,715,632,299,427,
0,913,704,624,296,422,
0,903,696,615,294,417,
0,881,686,608,291,412,
0,867,676,601,289,408,
0,854,668,595,312,404,
0,840,728,588,309,399,
0,828,715,582,305,396,
0,826,705,575,303,392,
0,905,695,569,300,390,
0,903,685,563,297,422,
0,907,676,558,295,417,
0,888,667,551,292,413,
0,872,659,545,290,408,
0,859,651,540,287,403,
0,847,688,536,318,399,
0,831,678,531,314,396,
0,820,665,526,311,391,
0,857,657,520,307,388,
0,893,647,516,305,420,
0,894,639,511,302,441,
0,907,632,507,300,436,
0,889,624,501,297,431,
0,874,616,496,295,427,
0,860,609,492,292,423,
0,847,622,702,321,418,
0,833,612,736,317,414,
0,821,603,726,313,409,
0,889,595,716,311,406,
0,879,589,706,308,421,
0,899,583,696,305,415,
0,905,575,688,303,412,
0,884,569,677,300,407,
0,870,563,668,297,403,
0,856,557,660,295,399,
0,843,649,652,304,396,
0,829,639,644,301,391,
0,817,630,638,297,388,
0,825,621,630,295,384,
0,812,613,623,292,382,
0,879,605,615,290,379,
0,864,598,609,287,375,
0,847,591,600,286,371,
0,833,583,594,283,368,
0,820,576,649,311,365,
0,808,633,808,312,361,
0,797,624,796,309,358,
0,785,615,783,305,355,
0,847,606,772,303,352,
0,833,599,762,300,393,
0,880,591,751,297,390,
0,865,583,742,295,386,
0,847,577,729,292,381,
0,835,571,719,290,377,
0,822,615,711,318,374,
0,809,684,702,313,370,
0,798,675,693,312,367,
0,807,664,685,307,364,
0,904,654,676,305,359,
0,903,646,668,302,391,
0,909,637,660,300,386,
0,902,629,653,297,383,
0,878,621,643,295,377,
0,864,614,636,291,375,
0,851,702,629,319,371,
0,837,691,622,316,367,
0,824,680,615,312,364,
0,881,669,608,309,360,
0,908,660,602,306,391,
0,912,652,595,304,393,
0,915,643,589,301,390,
0,914,635,583,298,385,
0,887,626,575,295,381,
0,871,619,569,294,377,
0,858,703,564,320,374,
0,844,692,559,318,371,
0,831,683,552,315,367,
0,896,671,547,312,363,
0,910,662,542,308,394,
0,911,652,536,305,390,
0,911,644,531,303,385,
0,888,636,527,300,382,
0,873,628,519,298,377,
0,859,620,515,295,374,
0,846,695,511,318,370,
0,833,684,505,315,367,
0,820,675,501,312,364,
0,899,663,496,308,359,
0,906,654,492,305,393,
0,907,646,487,303,390,
0,903,637,483,300,385,
0,880,630,480,297,382,
0,866,622,583,295,377,
0,852,615,697,316,374,
0,839,737,687,315,370,
0,826,726,678,312,367,
0,814,715,669,310,364,
0,889,702,660,306,359,
0,874,692,652,304,399,
0,900,683,644,300,395,
0,885,673,636,298,391,
0,866,665,629,295,387,
0,853,656,620,293,382,
0,839,711,613,329,379,
0,827,732,606,326,375,
0,815,721,599,323,371,
0,810,711,592,319,368,
0,879,699,585,316,364,
0,864,689,579,313,366,
0,888,679,573,311,363,
0,871,671,568,307,359,
0,854,662,561,305,356,
0,840,654,554,303,352,
0,828,745,594,332,350,
0,815,745,719,328,347,
0,803,734,710,326,344,
0,796,723,700,323,340,
0,785,711,691,319,371,
0,838,700,682,316,387,
0,831,691,673,313,384,
0,818,681,664,311,380,
0,803,672,656,308,376,
0,792,664,647,305,372,
0,780,655,639,323,368,
0,768,647,632,320,365,
0,759,639,624,318,361,
0,864,630,617,315,358,
0,847,622,610,312,409,
0,879,615,604,308,404,
0,864,607,596,306,399,
0,849,600,590,304,396,
0,833,593,583,300,391,
0,820,586,575,299,388,
0,807,732,684,316,384,
0,796,719,673,312,380,
0,784,710,665,310,377,
0,883,696,655,307,373,
0,867,687,647,304,387,
0,896,678,639,301,384,
0,880,668,632,299,380,
0,864,659,625,295,376,
0,847,652,617,294,372,
0,835,664,609,324,368,
0,822,775,601,328,364,
0,809,763,595,326,361,
0,798,752,588,323,359,
0,899,737,582,319,355,
0,884,728,575,316,352,
0,900,717,569,313,350,
0,884,707,563,311,347,
0,870,697,558,307,344,
0,852,688,551,305,340,
0,839,727,654,326,337,
0,827,780,807,322,334,
0,814,768,793,319,332,
0,824,757,782,316,328,
0,899,743,770,313,327,
0,883,732,760,310,381,
0,881,721,749,307,377,
0,866,711,739,304,374,
0,852,702,729,302,369,
0,836,692,718,300,367,
0,824,808,842,333,362,
0,811,805,862,329,359,
0,799,792,847,326,355,
0,849,780,835,323,352,
0,870,766,823,319,355,
0,888,755,811,316,352,
0,876,743,799,313,349,
0,862,732,788,311,345,
0,848,723,777,308,343,
0,831,713,764,306,339,
0,819,878,791,332,335,
0,807,863,779,329,333,
0,795,848,768,327,330,
0,854,835,757,323,327,
0,839,818,748,319,352,
0,887,806,737,317,348,
0,871,793,728,314,344,
0,856,782,719,312,340,
0,843,770,710,308,337,
0,827,760,699,306,335,
0,814,809,691,335,331,
0,803,796,683,332,327,
0,791,783,675,329,325,
0,887,771,667,326,322,
0,871,758,659,323,344,
0,895,747,652,319,341,
0,879,736,644,316,337,
0,864,726,637,313,335,
0,851,716,630,312,332,
0,834,707,636,331,328,
0,822,736,665,328,324,
0,809,724,656,326,322,
0,798,714,647,323,319,
0,864,704,639,319,316,
0,850,692,632,316,348,
0,865,684,624,313,344,
0,851,675,617,311,341,
0,837,666,611,307,337,
0,824,658,604,305,335,
0,808,691,596,326,332,
0,796,750,590,323,327,
0,785,738,583,319,324,
0,780,728,578,316,321,
0,849,717,572,313,319,
0,836,704,567,310,316,
0,852,695,560,307,313,
0,838,685,556,305,312,
0,825,676,550,302,309,
0,812,668,544,300,307,
0,798,809,537,339,304,
0,785,798,532,335,301,
0,775,785,527,332,299,
0,820,774,523,328,296,
0,836,761,518,326,317,
0,852,748,513,322,313,
0,838,737,508,319,311,
0,824,727,504,316,307,
0,812,717,499,313,305,
0,799,707,495,312,302,
0,785,711,489,335,299,
0,774,700,484,332,295,
0,763,691,480,328,294,
0,864,681,476,326,292,
0,847,673,472,323,327,
0,835,663,468,319,324,
0,822,654,463,316,321,
0,809,646,460,313,318,
0,797,638,455,311,315,
0,785,632,452,310,312,
0,771,820,543,337,309,
0,760,806,536,334,306,
0,750,792,529,331,304,
0,820,780,523,327,300,
0,807,769,518,326,339,
0,844,755,511,321,335,
0,830,743,506,319,332,
0,817,733,501,316,328,
0,804,723,496,313,326,
0,792,713,491,332,323,
0,778,823,675,327,319,
0,768,808,665,325,316,
0,756,796,657,323,313,
0,847,783,649,319,311,
0,834,772,641,316,345,
0,863,758,632,312,343,
0,849,747,625,311,339,
0,835,736,617,307,335,
0,822,726,611,305,332,
0,810,737,675,325,329,
0,795,777,860,321,326,
0,783,766,845,319,323,
0,772,755,831,316,319,
0,801,743,819,313,317,
0,801,733,807,311,343,
0,833,719,796,307,339,
0,820,710,785,304,335,
0,807,700,774,302,332,
0,796,691,764,300,329,
0,783,733,754,310,327,
0,769,722,742,307,323,
0,759,711,732,304,319,
0,816,701,723,302,317,
0,854,691,713,299,337,
0,885,682,705,296,338,
0,871,671,696,294,335,
0,856,663,688,291,332,
0,843,655,679,289,327,
0,830,646,671,287,326,
0,818,761,664,319,322,
0,802,749,655,316,319,
0,790,738,647,313,316,
0,831,728,639,311,313,
0,819,716,633,307,364,
0,862,707,626,305,359,
0,847,695,620,302,355,
0,833,685,612,299,352,
0,820,675,606,295,349,
0,808,667,600,295,345,
0,793,708,627,323,343,
0,782,697,616,319,339,
0,771,688,609,317,335,
0,864,679,601,313,332,
0,849,669,595,312,382,
0,872,660,588,308,377,
0,858,650,582,305,374,
0,844,642,575,303,370,
0,831,634,570,300,367,
0,818,631,565,337,364,
0,803,743,602,334,359,
0,792,732,592,331,355,
0,780,721,585,327,352,
0,783,711,579,324,349,
0,772,701,572,321,346,
0,822,691,566,319,344,
0,808,679,560,315,340,
0,796,671,553,312,337,
0,784,662,548,310,334,
0,774,732,556,335,332,
0,760,784,633,332,327,
0,750,772,623,327,325,
0,739,761,615,326,323,
0,787,749,608,323,322,
0,792,739,600,319,371,
0,820,728,593,317,368,
0,807,716,587,313,364,
0,796,705,580,311,359,
0,783,696,574,308,357,
0,772,785,568,323,353,
0,758,772,561,319,351,
0,748,760,553,316,347,
0,824,749,547,313,344,
0,828,738,542,311,340,
0,857,728,536,307,337,
0,843,717,531,305,335,
0,830,704,526,302,332,
0,817,695,521,300,327,
0,804,686,516,297,326,
0,793,678,622,315,323,
0,778,668,624,312,319,
0,768,659,614,309,317,
0,875,652,606,306,314,
0,859,643,600,304,360,
0,871,636,591,301,356,
0,857,626,584,298,352,
0,844,619,578,295,350,
0,831,611,572,292,346,
0,817,604,566,291,344,
0,806,752,750,308,339,
0,791,739,821,305,336,
0,780,728,805,303,332,
0,849,718,793,300,329,
0,835,708,782,297,376,
0,871,698,771,295,372,
0,857,686,760,292,369,
0,843,677,750,289,365,
0,830,668,740,287,361,
0,817,659,731,324,359,
0,806,721,835,324,355,
0,790,710,822,321,352,
0,779,700,807,318,348,
0,883,690,795,316,344,
0,867,681,783,312,366,
0,876,671,773,310,361,
0,862,660,763,307,359,
0,848,652,752,304,355,
0,835,643,743,301,352,
0,823,668,734,325,348,
0,810,730,723,322,345,
0,795,719,714,319,342,
0,810,709,704,316,339,
0,891,699,694,312,335,
0,881,689,687,310,370,
0,893,679,678,307,367,
0,877,668,670,305,363,
0,862,659,663,302,359,
0,849,651,655,299,356,
0,836,768,647,330,353,
0,824,763,639,327,350,
0,807,751,632,323,347,
0,863,740,624,321,343,
0,862,729,617,318,353,
0,871,719,611,315,350,
0,856,708,604,312,347,
0,842,696,598,310,344,
0,829,688,591,306,340,
0,816,679,585,304,337,
0,805,755,633,313,334,
0,792,743,624,310,332,
0,779,732,615,307,327,
0,868,721,607,304,325,
0,854,711,600,302,369,
0,875,700,592,300,364,
0,860,691,585,297,361,
0,846,679,579,295,358,
0,832,671,573,291,354,
0,819,662,568,291,352,
0,808,763,713,321,348,
0,796,751,729,319,344,
0,782,739,716,316,342,
0,835,728,707,312,337,
0,822,718,697,310,335,
0,856,707,688,307,332,
0,841,698,679,304,328,
0,828,687,671,302,326,
0,816,678,664,299,323,
0,803,671,675,308,320,
0,792,757,818,305,318,
0,780,745,805,303,315,
0,767,734,791,300,312,
0,855,723,779,297,309,
0,841,714,768,295,360,
0,865,704,758,292,357,
0,851,694,748,290,353,
0,838,682,737,287,350,
0,824,672,728,285,347,
0,812,691,719,307,344,
0,799,712,710,304,340,
0,788,702,700,302,337,
0,787,692,689,299,334,
0,855,683,681,295,331,
0,854,673,673,294,339,
0,856,664,665,291,335,
0,842,655,657,288,332,
0,829,646,650,286,329,
0,816,638,643,284,327,
0,804,671,748,297,323,
0,792,660,888,295,320,
0,781,652,871,291,318,
0,829,643,856,289,315,
0,815,635,841,287,365,
0,834,627,829,284,368,
0,820,619,817,282,364,
0,807,611,806,280,361,
0,796,603,795,277,358,
0,783,596,783,275,355,
0,773,720,774,318,351,
0,761,709,763,315,348,
0,751,699,752,312,344,
0,778,689,740,309,340,
0,766,679,732,307,369,
0,844,670,722,304,365,
0,830,662,713,301,361,
0,816,652,704,299,358,
0,803,642,696,295,355,
0,792,634,688,293,352,
0,780,760,679,305,348,
0,769,748,671,302,344,
0,758,736,664,300,342,
0,745,726,654,297,337,
0,735,716,647,295,380,
0,854,705,639,291,376,
0,839,696,633,289,371,
0,825,686,626,287,368,
0,813,675,619,284,364,
0,800,665,612,312,361,
0,789,739,606,310,358,
0,777,728,600,307,354,
0,766,718,593,304,351,
0,753,707,585,301,347,
0,743,697,580,299,344,
0,856,688,574,295,341,
0,842,679,568,294,338,
0,828,670,563,291,335,
0,816,659,557,287,332,
0,803,651,551,300,329,
0,792,643,546,297,327,
0,780,635,541,294,323,
0,769,627,536,291,321,
0,755,620,529,289,324,
0,792,612,524,287,355,
0,857,604,519,284,352,
0,844,598,515,281,349,
0,830,591,510,280,345,
0,817,583,505,277,343,
0,806,634,501,297,339,
0,793,624,496,295,335,
0,782,615,492,291,333,
0,801,608,487,289,330,
0,887,600,482,287,380,
0,896,593,478,284,376,
0,898,585,473,281,371,
0,880,579,470,280,368,
0,866,572,465,278,364,
0,852,564,462,275,361,
0,839,583,458,307,358,
0,825,575,454,304,355,
0,814,568,450,301,352,
0,870,561,446,298,348,
0,888,556,442,295,395,
0,902,550,438,292,391,
0,903,543,435,291,386,
0,885,538,431,287,382,
0,870,532,428,286,379,
0,856,526,423,288,376,
0,844,585,516,303,371,
0,830,577,510,300,368,
0,817,570,504,297,365,
0,872,563,498,295,361,
0,858,556,492,292,358,
0,889,550,486,289,354,
0,873,543,481,287,351,
0,860,536,476,284,348,
0,846,531,472,282,344,
0,833,540,467,318,342,
0,820,631,540,313,339,
0,807,622,534,311,335,
0,796,614,527,307,333,
0,803,606,521,305,331,
0,791,598,514,303,327,
0,839,591,508,300,324,
0,825,583,504,297,321,
0,812,575,497,295,319,
0,799,569,492,292,316,
0,789,651,603,322,313,
0,777,674,704,318,311,
0,767,664,695,316,308,
0,756,655,685,312,306,
0,852,647,676,310,304,
0,868,639,665,307,356,
0,873,630,657,304,352,
0,859,622,649,302,349,
0,845,614,641,299,345,
0,831,607,633,296,343,
0,819,699,627,330,339,
0,807,688,619,327,336,
0,796,678,612,323,334,
0,831,669,605,320,331,
0,908,659,599,318,337,
0,910,651,590,315,376,
0,893,643,583,312,371,
0,876,634,577,310,368,
0,863,626,572,307,364,
0,849,619,566,304,360,
0,836,635,560,312,358,
0,824,626,554,308,354,
0,812,617,548,306,351,
0,879,610,543,304,348,
0,909,602,537,300,385,
0,905,595,531,298,379,
0,885,588,525,295,376,
0,870,581,519,293,371,
0,856,575,515,291,368,
0,843,567,510,288,364,
0,831,594,504,324,361,
0,818,586,500,321,358,
0,806,579,496,319,355,
0,892,572,491,316,351,
0,904,564,487,313,376,
0,904,558,480,310,371,
0,889,551,476,307,368,
0,873,545,472,304,364,
0,860,540,467,302,361,
0,847,532,463,300,358,
0,833,611,459,313,354,
0,821,603,455,311,351,
0,809,595,451,307,348,
0,899,588,448,305,344,
0,896,580,444,303,370,
0,899,573,439,300,366,
0,882,566,435,297,361,
0,868,560,431,295,359,
0,854,552,428,292,355,
0,840,595,460,301,352,
0,828,667,694,298,348,
0,816,657,695,295,345,
0,803,647,685,292,342,
0,851,639,676,291,339,
0,865,632,668,287,348,
0,878,623,657,286,344,
0,864,615,689,284,340,
0,849,608,747,281,338,
0,836,600,736,279,335,
0,824,620,727,316,332,
0,811,611,716,312,329,
0,799,603,707,309,327,
0,799,595,697,306,323,
0,861,588,689,304,321,
0,892,581,678,300,334,
0,882,574,670,298,331,
0,867,568,662,295,327,
0,854,561,654,293,324,
0,840,555,646,291,321,
0,828,671,639,313,319,
0,815,662,632,310,316,
0,803,653,624,307,313,
0,822,644,617,304,311,
0,813,636,611,302,327,
0,865,627,602,299,327,
0,851,620,595,295,323,
0,836,611,590,294,319,
0,824,604,583,291,317,
0,811,596,577,288,314,
0,799,688,571,310,312,
0,787,677,565,306,308,
0,776,668,560,304,306,
0,851,658,553,300,304,
0,836,649,548,298,339,
0,888,641,541,295,335,
0,873,633,536,293,332,
0,859,625,531,291,328,
0,845,617,679,287,326,
0,831,609,668,289,323,
0,819,704,659,316,319,
0,807,694,651,312,317,
0,795,684,643,309,314,
0,880,675,635,306,312,
0,865,665,627,304,323,
0,899,656,617,300,319,
0,882,647,610,298,316,
0,867,639,604,295,313,
0,854,632,596,293,311,
0,840,628,590,311,307,
0,828,671,684,307,305,
0,815,662,674,304,303,
0,803,653,665,301,300,
0,903,644,657,298,297,
0,907,636,648,295,342,
0,911,627,639,293,338,
0,902,620,632,291,334,
0,881,612,624,287,331,
0,867,604,615,286,327,
0,854,657,609,313,325,
0,840,696,602,309,322,
0,828,686,595,307,319,
0,849,675,589,304,316,
0,901,667,583,301,317,
0,891,657,575,298,347,
0,907,649,568,295,344,
0,889,641,562,293,339,
0,874,632,556,291,335,
0,860,624,551,288,333,
0,847,713,607,312,329,
0,833,703,599,308,327,
0,821,692,591,306,324,
0,888,683,584,303,321,
0,908,673,578,300,359,
0,911,664,571,297,355,
0,912,655,563,295,352,
0,894,647,556,292,348,
0,877,639,551,290,344,
0,863,632,543,287,342,
0,850,770,694,315,337,
0,836,753,714,312,335,
0,824,743,704,308,332,
0,898,732,695,305,328,
0,910,721,686,303,379,
0,912,711,676,300,375,
0,911,701,667,297,369,
0,889,691,658,295,366,
0,873,683,650,292,363,
0,860,673,642,293,359,
0,847,734,635,310,355,
0,833,719,627,305,352,
0,821,710,620,303,350,
0,902,700,614,300,345,
0,910,690,607,297,370,
0,911,680,600,295,366,
0,909,671,591,292,361,
0,887,663,585,290,359,
0,871,654,579,287,355,
0,857,647,606,310,352,
0,845,764,745,306,348,
0,831,748,735,303,345,
0,819,737,724,300,342,
0,903,727,715,297,339,
0,896,716,705,295,372,
0,908,707,696,292,368,
0,911,696,685,289,364,
0,891,688,676,287,359,
0,876,678,668,285,358,
0,862,775,705,315,353,
0,847,783,695,311,351,
0,835,768,685,307,348,
0,864,756,676,305,344,
0,907,745,668,302,346,
0,908,734,659,300,368,
0,913,724,652,296,364,
0,914,714,642,294,359,
0,894,704,634,291,357,
0,877,695,627,289,353,
0,864,798,620,321,350,
0,850,783,614,318,347,
0,837,769,607,314,344,
0,889,758,600,312,340,
0,908,746,593,308,368,
0,910,736,587,305,363,
0,914,725,580,303,359,
0,914,715,573,300,355,
0,894,705,568,298,352,
0,876,696,561,295,348,
0,864,687,556,307,345,
0,849,678,551,304,342,
0,836,667,544,301,339,
0,897,658,540,299,335,
0,909,650,534,295,369,
0,911,642,528,293,365,
0,915,634,524,291,361,
0,913,627,518,288,358,
0,889,620,512,286,354,
0,875,612,543,286,351,
0,861,671,669,310,348,
0,847,662,660,307,344,
0,835,651,652,304,342,
0,902,641,643,301,338,
0,908,633,636,299,385,
0,911,625,627,295,381,
0,915,617,620,293,377,
0,906,609,611,291,373,
0,883,602,604,288,369,
0,868,614,598,327,366,
0,855,708,591,323,363,
0,841,697,583,319,359,
0,829,686,577,316,355,
0,904,675,571,313,352,
0,902,667,565,311,358,
0,908,657,559,307,355,
0,906,649,553,305,352,
0,884,641,545,303,348,
0,870,633,540,300,344,
0,857,721,668,315,341,
0,843,753,719,312,338,
0,830,742,708,309,335,
0,861,728,699,305,332,
0,907,718,689,303,334,
0,907,707,680,300,364,
0,912,697,671,297,360,
0,913,688,664,295,358,
0,893,679,654,292,353,
0,876,670,646,290,350,
0,864,734,753,316,347,
0,849,721,742,312,344,
0,836,711,731,310,340,
0,887,699,721,306,337,
0,907,688,711,303,342,
0,906,679,702,300,338,
0,911,670,693,297,335,
0,907,661,684,295,332,
0,884,652,673,292,327,
0,870,644,665,291,326,
0,856,777,657,299,323,
0,843,765,649,295,319,
0,830,750,642,294,317,
0,897,739,635,290,315,
0,908,729,627,287,374,
0,907,718,620,286,369,
0,912,708,614,283,365,
0,902,699,607,280,361,
0,881,689,599,279,358,
0,867,679,591,287,354,
0,853,780,585,305,351,
0,839,768,579,302,348,
0,828,753,574,300,344,
0,901,742,568,295,342,
0,901,731,561,294,387,
0,907,720,556,291,384,
0,910,711,550,288,379,
0,891,700,544,286,376,
0,876,691,537,284,371,
0,862,710,532,317,368,
0,847,794,527,313,364,
0,835,782,522,310,359,
0,823,768,518,307,357,
0,905,755,512,304,354,
0,910,744,508,301,391,
0,913,734,503,299,387,
0,915,723,498,295,384,
0,895,713,494,294,380,
0,877,704,487,291,376,
0,864,812,540,327,372,
0,849,851,593,323,368,
0,837,837,586,319,364,
0,868,820,579,317,361,
0,907,807,572,313,358,
0,909,796,566,311,355,
0,914,783,559,307,352,
0,915,771,552,305,348,
0,898,760,545,303,345,
0,879,750,539,300,342,
0,865,823,533,310,339,
0,851,808,527,307,335,
0,838,796,522,304,333,
0,894,781,516,301,330,
0,910,769,511,297,359,
0,914,758,506,295,356,
0,918,747,501,292,352,
0,917,736,496,291,349,
0,893,726,489,287,345,
0,876,716,486,286,342,
0,863,847,481,307,339,
0,849,831,476,304,335,
0,836,819,472,302,332,
0,900,803,467,300,329,
0,911,792,463,295,372,
0,915,779,460,294,369,
0,918,768,455,291,365,
0,915,756,451,288,361,
0,887,745,447,286,358,
0,872,736,444,302,354,
0,859,726,440,321,351,
0,845,716,435,319,348,
0,831,705,432,316,344,
0,903,695,428,312,342,
0,911,686,425,310,391,
0,915,676,422,307,387,
0,918,668,418,304,384,
0,915,659,415,301,380,
0,888,652,411,299,376,
0,873,664,463,319,372,
0,860,746,539,316,368,
0,846,735,532,313,365,
0,839,724,527,310,361,
0,906,711,519,307,359,
0,913,701,515,304,365,
0,915,691,508,301,361,
0,918,681,504,299,358,
0,913,672,498,295,355,
0,883,664,492,294,352,
0,870,719,572,318,348,
0,856,725,696,315,344,
0,842,715,686,312,342,
0,881,704,676,310,339,
0,908,692,667,305,361,
0,913,683,659,303,382,
0,917,673,651,300,378,
0,917,664,643,297,375,
0,901,655,635,295,371,
0,876,647,625,292,368,
0,863,710,721,319,363,
0,849,699,710,316,359,
0,835,688,700,312,356,
0,894,679,691,310,353,
0,910,668,681,307,378,
0,913,659,673,304,374,
0,917,650,665,301,370,
0,916,642,657,299,367,
0,896,633,649,295,363,
0,874,627,639,294,359,
0,860,756,632,323,355,
0,847,743,624,320,352,
0,834,732,617,318,349,
0,900,722,611,315,345,
0,911,710,604,312,374,
0,915,700,597,308,370,
0,918,690,590,306,366,
0,915,680,583,304,363,
0,891,671,578,300,359,
0,871,664,571,310,355,
0,858,747,564,320,352,
0,844,735,559,318,348,
0,831,724,553,315,345,
0,903,714,547,312,342,
0,912,702,542,308,393,
0,915,691,536,305,389,
0,914,682,531,303,385,
0,894,673,526,300,382,
0,876,664,520,297,377,
0,860,662,652,315,374,
0,847,739,751,311,370,
0,833,728,740,308,367,
0,822,718,729,305,363,
0,905,707,719,303,359,
0,912,696,710,300,390,
0,915,685,701,296,385,
0,911,675,692,294,382,
0,888,667,684,291,377,
0,872,659,675,289,375,
0,856,699,761,302,370,
0,842,703,749,299,366,
0,829,693,738,295,363,
0,870,683,728,294,359,
0,908,673,718,291,371,
0,911,663,708,288,372,
0,915,654,700,286,368,
0,911,646,691,284,364,
0,888,637,682,281,361,
0,872,630,673,279,358,
0,856,750,817,310,353,
0,842,737,803,307,351,
0,830,726,792,304,348,
0,892,716,781,301,344,
0,909,705,770,299,394,
0,912,693,760,295,390,
0,915,684,749,293,385,
0,904,675,739,290,382,
0,882,665,729,287,378,
0,867,657,719,286,375,
0,851,752,709,314,370,
0,838,740,700,312,367,
0,825,729,692,308,364,
0,899,719,683,305,359,
0,910,708,675,303,364,
0,913,696,667,300,359,
0,911,687,659,297,357,
0,888,678,652,295,353,
0,873,668,644,292,351,
0,856,660,638,303,348,
0,844,743,705,308,344,
0,830,732,696,305,340,
0,818,721,686,303,337,
0,903,711,677,300,335,
0,910,701,668,297,379,
0,912,688,660,294,375,
0,915,679,652,291,371,
0,907,671,644,289,367,
0,883,662,636,287,364,
0,866,711,768,323,359,
0,851,838,835,319,355,
0,839,824,822,316,352,
0,828,812,809,313,350,
0,906,799,798,311,348,
0,911,787,787,307,413,
0,915,771,775,304,408,
0,913,760,765,302,404,
0,892,750,755,299,399,
0,876,739,745,295,396,
0,860,731,736,331,391,
0,846,719,723,327,388,
0,832,711,715,323,384,
0,876,702,705,321,380,
0,908,692,696,318,377,
0,911,683,688,315,374,
0,916,671,680,312,371,
0,915,664,671,308,368,
0,899,655,664,306,364,
0,879,647,656,304,361,
0,862,742,649,316,358,
0,847,729,639,313,354,
0,835,719,632,310,351,
0,894,709,626,307,348,
0,909,699,620,304,387,
0,914,689,612,302,383,
0,910,678,606,299,379,
0,888,668,600,295,376,
0,871,659,593,294,371,
0,859,651,588,291,368,
0,842,743,582,321,364,
0,829,731,574,318,359,
0,817,719,568,316,358,
0,899,710,563,312,353,
0,911,700,557,310,388,
0,914,688,551,307,384,
0,917,679,546,304,380,
0,914,669,540,300,376,
0,889,660,536,299,373,
0,875,652,531,318,370,
0,857,768,638,323,366,
0,844,755,627,319,361,
0,831,743,619,316,359,
0,903,733,611,314,355,
0,911,723,604,312,390,
0,916,710,671,308,385,
0,917,700,662,305,382,
0,906,691,653,303,377,
0,882,681,644,300,374,
0,867,712,697,313,371,
0,851,759,868,311,367,
0,838,747,849,307,363,
0,839,736,837,305,359,
0,906,725,824,302,356,
0,912,715,812,300,378,
0,916,702,800,296,375,
0,915,692,790,294,371,
0,899,684,778,291,368,
0,879,674,768,289,364,
0,865,785,758,312,359,
0,847,814,748,308,357,
0,835,800,736,305,353,
0,868,788,727,303,350,
0,899,776,718,300,384,
0,896,764,708,297,403,
0,908,751,700,295,399,
0,903,740,691,291,396,
0,882,729,683,289,391,
0,868,719,675,287,387,
0,856,854,833,313,384,
0,838,841,896,310,380,
0,824,828,880,307,376,
0,891,815,865,304,372,
0,907,801,852,302,369,
0,905,790,839,299,366,
0,908,775,828,295,363,
0,891,764,816,293,359,
0,875,753,804,291,356,
0,861,742,793,288,353,
0,848,876,838,323,350,
0,831,860,822,319,347,
0,819,845,809,316,344,
0,896,831,798,313,340,
0,884,819,787,311,373,
0,903,806,775,308,368,
0,905,792,766,305,365,
0,886,779,755,302,361,
0,871,768,745,300,359,
0,857,757,736,316,355,
0,844,841,744,313,352,
0,828,827,732,311,348,
0,816,814,723,307,344,
0,856,801,713,305,342,
0,841,789,705,303,367,
0,897,777,696,300,363,
0,881,763,688,297,359,
0,867,752,679,294,355,
0,852,742,671,291,352,
0,839,798,664,327,349,
0,826,871,657,323,345,
0,811,857,647,319,343,
0,799,844,641,318,339,
0,883,830,633,315,335,
0,871,817,627,312,368,
0,906,804,620,309,364,
0,898,789,614,305,361,
0,880,777,608,303,358,
0,865,767,600,300,354,
0,852,860,595,319,352,
0,839,870,588,316,348,
0,824,855,581,313,344,
0,863,841,575,311,340,
0,896,828,569,307,377,
0,896,815,563,305,397,
0,909,802,559,302,392,
0,908,787,553,299,389,
0,887,775,547,295,385,
0,871,764,543,294,382,
0,859,891,537,315,377,
0,844,896,532,312,374,
0,828,878,526,308,371,
0,893,863,521,306,367,
0,899,849,516,304,385,
0,902,835,511,300,381,
0,911,822,507,298,377,
0,908,807,502,295,374,
0,888,795,497,292,369,
0,872,783,493,290,367,
0,859,892,644,305,363,
0,844,876,633,302,359,
0,829,861,624,300,355,
0,901,847,615,296,352,
0,910,833,608,294,383,
0,913,820,601,291,379,
0,916,807,594,289,375,
0,918,792,587,286,371,
0,905,781,580,284,368,
0,881,769,574,312,364,
0,867,796,568,313,359,
0,854,783,561,310,358,
0,837,771,554,307,353,
0,904,760,547,304,350,
0,913,750,542,302,388,
0,915,739,536,300,384,
0,919,728,531,296,380,
0,919,716,525,294,376,
0,905,707,519,291,373,
0,881,768,612,322,369,
0,867,819,670,318,366,
0,854,806,661,315,362,
0,862,793,651,312,359,
0,907,781,642,310,355,
0,913,769,635,307,393,
0,916,758,627,304,390,
0,918,747,619,302,385,
0,911,734,611,298,382,
0,886,723,605,295,378,
0,871,831,598,305,375,
0,857,816,591,303,371,
0,844,803,584,300,368,
0,889,791,576,297,364,
0,908,778,570,295,359,
0,913,768,564,292,356,
0,916,755,558,290,353,
0,916,744,551,287,350,
0,899,732,547,285,348,
0,879,721,632,282,344,
0,866,768,817,313,342,
0,851,755,817,311,339,
0,839,743,805,307,335,
0,898,732,790,305,332,
0,910,722,779,303,373,
0,913,711,768,300,369,
0,917,702,758,297,365,
0,915,693,748,295,361,
0,895,682,737,291,358,
0,877,673,728,289,355,
0,864,772,896,307,352,
0,849,760,909,304,348,
0,836,748,912,301,345,
0,901,737,896,298,341,
0,909,727,879,295,338,
0,911,716,864,293,335,
0,915,706,852,291,332,
0,913,696,839,287,329,
0,891,685,827,285,327,
0,875,675,825,295,323,
0,862,704,899,294,321,
0,847,695,883,291,318,
0,831,684,869,288,316,
0,903,675,852,286,312,
0,899,667,839,284,364,
0,908,658,827,281,359,
0,913,650,816,279,356,
0,911,643,804,276,353,
0,889,633,793,274,350,
0,874,625,783,290,347,
0,860,619,830,287,344,
0,847,611,816,284,340,
0,843,604,804,281,337,
0,903,598,790,280,334,
0,893,591,779,278,384,
0,909,584,768,275,379,
0,913,578,759,272,376,
0,903,572,749,271,371,
0,881,564,739,268,368,
0,867,658,730,310,364,
0,854,653,721,307,361,
0,840,644,711,304,358,
0,883,636,704,301,355,
0,908,627,694,298,373,
0,908,619,686,295,369,
0,913,611,678,293,365,
0,916,604,670,291,361,
0,911,596,662,287,358,
0,887,588,655,285,355,
0,872,711,647,310,352,
0,858,700,639,307,348,
0,845,689,633,304,345,
0,896,679,627,302,343,
0,905,671,619,299,395,
0,904,662,611,295,391,
0,911,653,606,294,387,
0,913,644,599,291,383,
0,897,636,593,289,379,
0,878,626,587,286,376,
0,864,698,670,312,371,
0,851,688,807,308,368,
0,838,678,796,305,365,
0,902,668,783,303,361,
0,911,659,770,300,385,
0,913,651,760,297,382,
0,916,642,749,295,377,
0,916,634,739,292,374,
0,899,624,729,290,371,
0,879,617,719,300,368,
0,865,768,711,298,364,
0,851,755,702,295,359,
0,839,743,694,292,356,
0,905,732,684,290,353,
0,912,723,674,287,376,
0,915,711,667,285,371,
0,918,702,659,283,368,
0,915,692,651,280,364,
0,893,681,643,279,361,
0,876,761,637,316,358,
0,863,836,679,312,355,
0,849,822,670,309,352,
0,836,809,662,307,348,
0,907,796,652,304,345,
0,908,784,643,301,344,
0,912,772,635,298,339,
0,915,761,627,295,337,
0,908,751,620,293,334,
0,884,737,614,291,331,
0,870,827,607,315,327,
0,856,812,600,312,326,
0,843,799,594,308,323,
0,846,787,588,305,319,
0,908,775,582,303,318,
0,908,764,575,300,361,
0,913,752,568,297,358,
0,915,742,563,295,353,
0,906,731,558,292,351,
0,882,719,552,290,348,
0,869,801,547,316,344,
0,854,788,542,312,341,
0,841,776,536,310,337,
0,880,764,531,307,335,
0,904,753,525,304,368,
0,903,742,519,302,383,
0,911,732,515,299,379,
0,911,721,511,295,375,
0,890,711,505,294,371,
0,875,700,502,291,368,
0,861,841,563,304,364,
0,847,827,556,302,360,
0,834,814,548,300,358,
0,895,801,543,295,354,
0,909,789,535,294,367,
0,911,777,529,291,362,
0,914,766,523,289,359,
0,911,755,518,287,355,
0,888,743,512,284,352,
0,872,764,507,284,349,
0,860,881,689,323,345,
0,846,865,712,319,343,
0,832,851,703,317,339,
0,900,838,694,314,336,
0,911,824,681,312,359,
0,914,812,673,308,355,
0,916,799,664,305,352,
0,912,787,656,304,348,
0,888,775,648,301,345,
0,873,862,641,321,342,
0,860,903,633,318,339,
0,846,908,626,315,335,
0,832,895,619,312,332,
0,904,876,611,310,329,
0,911,861,603,307,363,
0,915,847,596,304,358,
0,916,833,590,301,355,
0,907,821,583,299,352,
0,882,808,577,295,348,
0,868,887,620,320,345,
0,855,888,611,318,342,
0,841,872,603,315,339,
0,846,858,595,312,335,
0,907,844,588,309,332,
0,912,831,579,306,384,
0,916,817,574,304,378,
0,917,806,568,301,375,
0,907,793,561,299,371,
0,882,782,556,295,367,
0,868,890,550,316,364,
0,855,878,543,312,359,
0,841,863,539,310,357,
0,889,849,533,307,353,
0,909,835,527,304,387,
0,913,823,521,302,395,
0,916,809,516,299,390,
0,914,798,511,295,385,
0,891,785,506,294,382,
0,876,774,502,291,379,
0,862,899,743,312,375,
0,848,896,755,310,371,
0,835,878,744,307,368,
0,895,863,734,304,364,
0,907,849,724,301,390,
0,909,835,711,299,385,
0,913,823,703,295,380,
0,908,809,694,294,376,
0,886,798,685,291,373,
0,871,786,676,288,369,
0,857,801,668,307,366,
0,844,788,660,304,363,
0,831,777,653,302,359,
0,901,765,646,299,356,
0,910,755,638,295,374,
0,913,743,628,294,369,
0,915,734,622,291,365,
0,910,724,615,289,362,
0,886,715,608,287,359,
0,871,705,601,313,355,
0,857,830,636,310,352,
0,844,816,627,307,349,
0,831,804,620,304,345,
0,904,792,612,301,343,
0,911,780,606,299,389,
0,915,768,596,295,384,
0,915,756,590,294,380,
0,903,745,583,291,376,
0,880,735,577,288,372,
0,867,799,620,323,369,
0,852,836,749,319,366,
0,839,822,738,316,363,
0,837,809,728,312,359,
0,904,797,718,310,355,
0,896,784,708,307,388,
0,910,772,696,304,384,
0,906,761,688,302,380,
0,884,751,679,299,376,
0,870,739,671,295,372,
0,856,846,664,305,368,
0,843,866,655,302,365,
0,830,851,647,299,361,
0,875,838,639,295,359,
0,899,824,632,294,355,
0,897,812,625,291,352,
0,908,799,624,288,348,
0,892,787,692,286,345,
0,876,775,684,284,343,
0,862,764,675,281,340,
0,848,833,665,311,336,
0,835,816,657,307,334,
0,823,803,649,304,331,
0,895,791,641,301,327,
0,908,779,633,299,384,
0,907,768,627,295,380,
0,903,755,617,294,375,
0,883,745,610,291,371,
0,868,735,604,288,367,
0,855,725,625,287,364,
0,841,895,737,311,359,
0,828,880,727,307,357,
0,816,865,717,304,353,
0,900,851,707,301,351,
0,906,839,698,299,402,
0,910,824,688,295,397,
0,912,812,678,294,392,
0,900,799,670,291,388,
0,880,787,661,288,385,
0,866,806,748,312,382,
0,852,891,894,312,377,
0,839,870,879,308,374,
0,826,856,865,305,371,
0,904,841,851,303,367,
0,909,828,839,300,364,
0,913,816,826,297,359,
0,911,803,811,295,356,
0,889,792,799,292,353,
0,874,780,788,290,350,
0,861,830,863,319,347,
0,847,857,906,316,344,
0,834,839,913,312,341,
0,860,827,915,309,338,
0,907,813,906,307,335,
0,912,800,883,304,376,
0,916,788,870,301,371,
0,914,776,854,298,368,
0,891,766,840,295,364,
0,876,755,828,293,360,
0,862,869,833,312,357,
0,847,887,820,310,353,
0,835,867,808,305,351,
0,886,854,798,303,348,
0,908,839,787,300,390,
0,910,825,776,297,387,
0,915,813,766,295,384,
0,915,801,753,292,379,
0,894,789,743,290,376,
0,876,777,735,287,371,
0,863,889,727,319,368,
0,850,877,718,317,364,
0,836,859,709,313,361,
0,899,844,700,311,358,
0,910,831,692,307,355,
0,914,818,684,305,352,
0,918,806,676,302,348,
0,918,793,667,300,345,
0,902,782,659,297,342,
0,880,770,711,295,339,
0,866,895,837,312,335,
0,852,879,824,310,333,
0,839,864,812,306,331,
0,903,850,799,304,327,
0,911,836,788,301,367,
0,915,823,777,298,363,
0,917,811,766,295,359,
0,909,798,753,293,355,
0,884,786,743,291,352,
0,870,806,734,326,348,
0,856,891,724,322,345,
0,843,870,715,319,342,
0,830,856,707,316,339,
0,904,841,697,312,335,
0,908,828,689,310,382,
0,911,816,680,307,378,
0,903,803,672,304,374,
0,883,792,663,302,369,
0,868,780,655,300,366,
0,855,779,647,323,363,
0,841,790,639,319,359,
0,828,774,633,317,355,
0,844,763,627,313,353,
0,905,752,620,311,355,
0,906,741,614,308,385,
0,911,731,607,305,381,
0,911,721,600,303,377,
0,891,711,593,300,373,
0,875,702,587,297,369,
0,862,854,582,319,366,
0,847,897,575,317,362,
0,835,876,569,314,359,
0,888,862,564,311,355,
0,908,847,559,307,352,
0,910,833,553,305,350,
0,915,820,547,303,347,
0,912,807,541,300,344,
0,889,796,536,297,339,
0,873,783,531,295,337,
0,860,841,526,304,334,
0,847,827,521,300,331,
0,833,810,516,297,327,
0,897,798,512,295,325,
0,910,785,507,292,379,
0,913,774,503,289,374,
0,916,763,521,287,371,
0,913,752,595,285,367,
0,888,742,588,283,362,
0,872,732,582,294,359,
0,859,825,574,319,355,
0,846,812,568,317,352,
0,832,796,561,314,349,
0,902,783,555,311,345,
0,908,772,549,307,387,
0,911,760,543,305,384,
0,914,749,536,302,379,
0,904,739,529,300,376,
0,882,728,524,297,371,
0,868,754,598,323,368,
0,855,827,755,319,364,
0,840,813,743,317,360,
0,828,797,734,314,358,
0,905,784,723,311,354,
0,910,773,714,307,392,
0,913,761,704,305,388,
0,915,750,696,303,384,
0,903,739,808,300,381,
0,880,728,796,297,376,
0,867,763,783,321,372,
0,852,819,772,319,369,
0,839,806,761,316,366,
0,858,790,752,312,363,
0,907,777,742,310,373,
0,911,766,732,307,412,
0,915,755,722,304,408,
0,917,743,713,301,403,
0,909,733,702,299,399,
0,883,723,692,295,394,
0,870,856,796,312,391,
0,856,869,783,310,387,
0,843,854,771,307,384,
0,888,837,760,304,380,
0,906,824,750,300,419,
0,903,811,739,297,414,
0,911,799,729,295,409,
0,911,786,720,292,406,
0,886,775,708,291,401,
0,871,764,700,287,396,
0,857,796,756,321,391,
0,844,782,744,318,389,
0,831,770,734,316,385,
0,897,755,723,312,382,
0,903,745,715,310,395,
0,904,735,705,307,391,
0,911,724,696,304,387,
0,901,715,687,301,384,
0,877,705,676,299,380,
0,863,696,669,296,376,
0,850,795,809,305,371,
0,836,781,796,302,368,
0,824,769,785,300,365,
0,900,755,774,295,361,
0,899,743,763,294,366,
0,905,733,752,291,361,
0,903,723,742,288,359,
0,883,712,732,286,355,
0,865,703,721,284,352,
0,852,721,711,304,348,
0,839,833,702,301,345,
0,825,819,694,299,343,
0,814,807,686,295,339,
0,896,792,676,292,337,
0,881,779,669,290,403,
0,908,768,661,287,399,
0,910,756,654,285,395,
0,894,745,646,283,390,
0,873,735,636,280,385,
0,860,774,779,325,382,
0,846,830,780,321,379,
0,833,816,768,318,375,
0,820,803,758,316,371,
0,840,788,747,312,376,
0,877,775,736,309,395,
0,886,764,727,307,391,
0,871,753,718,304,387,
0,856,743,708,301,384,
0,839,732,696,298,379,
0,827,722,688,342,376,
0,815,711,679,338,372,
0,803,703,671,335,368,
0,792,694,664,332,365,
0,780,682,655,327,401,
0,864,673,647,325,396,
0,849,665,639,322,391,
0,835,657,633,319,388,
0,823,649,626,317,384,
0,807,641,617,314,380,
0,795,635,611,344,376,
0,783,627,604,340,373,
0,772,620,598,337,369,
0,792,612,591,334,366,
0,780,604,585,331,412,
0,840,598,579,327,407,
0,827,591,574,324,402,
0,814,583,568,322,398,
0,801,577,562,319,395,
0,787,572,556,324,390,
0,775,632,550,335,386,
0,764,624,543,333,383,
0,754,615,539,329,379,
0,743,608,534,327,376,
0,735,598,529,323,395,
0,830,590,524,319,391,
0,816,583,519,318,387,
0,803,575,513,315,384,
0,788,569,509,312,379,
0,777,563,505,352,376,
0,766,608,642,348,371,
0,755,600,633,344,368,
0,744,592,625,342,364,
0,744,585,617,338,361,
0,743,575,609,334,365,
0,816,569,603,331,361,
0,803,563,595,327,358,
0,791,556,588,326,355,
0,775,551,582,323,352,
0,765,545,604,351,348,
0,753,539,596,347,345,
0,743,534,589,344,342,
0,783,528,582,340,339,
0,855,523,575,337,335,
0,886,516,569,334,334,
0,889,511,563,331,331,
0,873,507,556,327,327,
0,860,502,551,324,326,
0,843,497,544,322,323,
0,830,576,664,348,319,
0,817,579,670,344,316,
0,805,572,662,340,314,
0,824,566,652,337,312,
0,811,558,644,335,310,
0,864,550,636,331,307,
0,849,543,628,327,304,
0,836,537,621,325,302,
0,823,531,614,322,300,
0,807,525,607,319,297,
0,796,561,600,344,295,
0,783,553,593,339,292,
0,773,547,587,336,290,
0,828,540,579,333,287,
0,816,534,574,331,347,
0,870,526,568,327,343,
0,856,519,561,323,339,
0,841,515,555,321,335,
0,828,508,550,318,332,
0,813,504,543,332,329,
0,801,540,537,347,326,
0,789,532,531,344,323,
0,777,527,527,341,319,
0,819,519,521,337,318,
0,806,513,515,335,361,
0,856,507,511,331,357,
0,842,501,505,327,353,
0,829,496,501,326,350,
0,816,491,689,322,347,
0,800,486,764,352,344,
0,788,547,750,348,339,
0,777,540,739,344,336,
0,767,534,729,341,334,
0,793,527,719,338,331,
0,816,519,710,335,368,
0,880,513,700,332,364,
0,866,508,691,327,359,
0,851,502,683,326,356,
0,838,496,675,323,353,
0,824,558,667,339,350,
0,810,630,656,335,346,
0,798,622,649,332,344,
0,823,614,641,329,339,
0,864,606,634,326,359,
0,892,596,627,323,359,
0,898,588,620,319,356,
0,880,582,612,317,353,
0,865,574,606,315,350,
0,852,568,600,312,347,
0,836,674,707,327,344,
0,823,674,721,324,339,
0,810,664,711,321,336,
0,876,655,702,319,334,
0,865,647,693,316,350,
0,898,636,684,313,345,
0,889,628,675,310,343,
0,873,620,667,307,339,
0,860,612,659,304,335,
0,846,605,651,302,333,
0,830,662,641,337,329,
0,817,652,633,334,327,
0,805,643,627,331,323,
0,896,635,619,327,321,
0,904,627,612,325,369,
0,908,616,605,321,366,
0,911,609,599,318,361,
0,899,601,591,316,358,
0,880,594,585,312,355,
0,865,587,579,326,352,
0,849,699,572,330,348,
0,835,688,566,327,344,
0,824,678,560,324,341,
0,902,669,555,321,338,
0,903,659,549,318,350,
0,908,649,543,316,347,
0,907,639,538,312,343,
0,887,632,532,310,339,
0,872,624,528,307,337,
0,859,690,697,335,334,
0,841,796,774,332,331,
0,828,783,763,327,327,
0,816,771,752,326,324,
0,880,759,741,322,321,
0,880,748,732,319,371,
0,905,734,721,316,368,
0,890,723,711,313,364,
0,874,713,704,311,360,
0,860,704,694,307,358,
0,847,696,692,337,355,
0,831,686,721,334,351,
0,818,676,711,331,347,
0,807,668,702,327,344,
0,811,659,693,324,371,
0,869,652,684,321,388,
0,861,641,675,318,384,
0,847,633,668,316,380,
0,833,626,659,312,377,
0,820,619,652,310,374,
0,808,675,644,335,370,
0,793,664,635,332,366,
0,782,655,627,327,362,
0,794,647,620,326,359,
0,782,638,614,323,382,
0,857,630,608,319,377,
0,842,620,600,316,374,
0,829,612,594,313,370,
0,816,605,588,311,367,
0,803,598,582,308,364,
0,792,664,691,326,359,
0,777,655,679,323,356,
0,767,646,669,319,352,
0,756,637,660,317,350,
0,746,628,653,315,411,
0,844,621,644,312,406,
0,830,611,636,308,401,
0,816,604,629,306,398,
0,804,596,622,304,393,
0,792,589,614,328,391,
0,781,657,719,334,387,
0,767,647,796,329,383,
0,756,639,784,327,379,
0,799,631,773,323,375,
0,787,623,763,321,391,
0,855,615,752,318,387,
0,840,605,742,315,384,
0,827,598,732,312,380,
0,814,591,722,309,376,
0,802,583,713,335,373,
0,791,649,704,332,369,
0,775,639,694,327,365,
0,765,632,684,325,361,
0,803,623,676,322,359,
0,815,615,668,319,391,
0,864,607,660,316,387,
0,849,598,652,313,384,
0,835,590,645,311,380,
0,822,583,638,307,376,
0,810,646,632,345,372,
0,798,664,624,342,368,
0,783,655,615,339,364,
0,807,646,608,335,361,
0,814,637,601,332,386,
0,876,629,595,329,384,
0,868,621,589,327,380,
0,854,611,583,323,376,
0,839,603,576,320,372,
0,828,596,571,318,369,
0,816,668,752,335,366,
0,803,657,898,332,361,
0,787,647,886,329,358,
0,830,639,871,327,355,
0,816,631,857,323,369,
0,886,623,844,319,365,
0,870,615,831,318,361,
0,856,605,819,315,359,
0,842,598,808,312,355,
0,829,591,797,309,352,
0,816,655,786,335,348,
0,803,646,775,332,345,
0,790,637,763,329,342,
0,876,628,752,326,339,
0,861,620,743,323,385,
0,899,612,733,319,381,
0,883,604,724,318,377,
0,868,595,716,315,374,
0,854,588,707,312,370,
0,841,582,698,335,367,
0,828,655,715,333,363,
0,816,646,705,329,359,
0,800,638,694,327,355,
0,847,629,685,323,352,
0,833,621,677,321,376,
0,881,612,669,318,372,
0,866,605,662,316,368,
0,852,595,654,312,365,
0,839,588,647,310,361,
0,825,603,639,340,359,
0,814,711,688,337,355,
0,798,701,678,334,352,
0,799,691,667,331,348,
0,886,681,658,327,345,
0,889,671,650,324,377,
0,908,664,642,322,374,
0,902,655,681,319,370,
0,881,644,750,316,367,
0,867,636,738,312,363,
0,854,630,728,339,359,
0,839,621,718,335,356,
0,824,614,708,332,353,
0,878,606,697,329,350,
0,908,599,688,327,376,
0,911,591,679,323,371,
0,915,584,671,320,367,
0,915,578,664,318,364,
0,897,569,655,315,359,
0,878,563,647,312,357,
0,864,659,639,339,353,
0,851,649,632,335,350,
0,834,639,625,333,347,
0,895,632,617,329,344,
0,909,623,611,327,392,
0,911,615,604,323,388,
0,915,608,598,321,384,
0,915,600,591,319,380,
0,899,591,585,315,376,
0,879,583,579,312,374,
0,866,711,745,331,369,
0,851,700,733,327,366,
0,835,690,723,326,363,
0,900,679,710,322,359,
0,910,671,701,319,396,
0,913,662,691,316,391,
0,916,653,683,313,387,
0,916,644,674,312,384,
0,898,635,665,307,380,
0,878,647,699,326,376,
0,864,824,731,323,373,
0,851,809,719,319,369,
0,835,797,710,317,366,
0,902,784,698,313,361,
0,894,773,689,312,380,
0,908,761,679,308,376,
0,911,750,671,305,371,
0,901,737,664,303,368,
0,881,727,655,300,365,
0,867,750,647,332,361,
0,854,856,783,327,359,
0,839,840,771,324,355,
0,831,827,760,321,352,
0,903,814,746,319,348,
0,896,801,736,316,355,
0,909,790,726,313,352,
0,911,777,716,311,348,
0,894,764,707,307,345,
0,877,752,698,304,342,
0,863,823,748,325,339,
0,849,843,736,322,336,
0,836,829,726,319,334,
0,886,816,716,316,331,
0,908,803,704,313,380,
0,911,791,695,311,389,
0,915,779,686,308,385,
0,915,768,678,305,381,
0,899,753,669,303,377,
0,879,743,662,300,374,
0,866,870,654,329,370,
0,851,854,646,327,367,
0,839,839,638,323,364,
0,895,826,630,319,359,
0,902,813,623,318,387,
0,904,799,615,315,384,
0,911,788,608,312,379,
0,910,776,602,310,376,
0,888,763,595,307,371,
0,872,752,589,304,368,
0,860,896,791,334,365,
0,846,887,817,331,361,
0,833,871,805,327,358,
0,899,856,790,324,355,
0,892,843,779,321,382,
0,906,830,768,319,377,
0,911,816,758,316,374,
0,906,804,748,313,370,
0,883,789,737,311,367,
0,870,778,728,333,364,
0,856,900,793,331,359,
0,843,896,782,327,356,
0,830,877,771,324,353,
0,889,863,757,321,350,
0,874,849,747,319,387,
0,907,835,737,316,384,
0,911,822,728,313,380,
0,896,809,718,311,376,
0,879,795,751,307,372,
0,864,856,740,343,369,
0,851,903,729,339,366,
0,838,902,719,335,362,
0,824,882,711,332,359,
0,895,867,699,329,355,
0,892,853,691,327,359,
0,908,839,682,323,356,
0,907,826,673,321,353,
0,886,814,665,318,350,
0,871,799,658,316,347,
0,857,881,651,340,344,
0,844,887,643,337,340,
0,831,871,636,334,337,
0,819,856,629,331,335,
0,847,842,620,327,332,
0,894,829,614,324,376,
0,891,816,607,322,373,
0,876,803,600,319,369,
0,861,792,594,316,366,
0,847,777,588,313,362,
0,835,889,697,335,359,
0,822,883,868,332,355,
0,809,867,853,327,352,
0,844,853,839,326,349,
0,864,839,824,323,389,
0,900,825,812,319,396,
0,897,813,799,317,391,
0,880,800,789,313,387,
0,865,788,779,312,384,
0,851,775,768,311,380,
0,839,897,758,339,376,
0,825,888,748,335,372,
0,813,871,738,333,369,
0,886,858,728,329,366,
0,867,844,717,327,390,
