=~=~=~=~=~=~=~=~=~=~=~= PuTTY log 2021.04.22 12:27:38 =~=~=~=~=~=~=~=~=~=~=~=
247,403,180,
0,557,505,145,399,179,
0,551,568,143,529,151,4146,09,132,373,137,359,145,
0,534,647,135,389,143,
0,591,634,135,384,143,
0,583,626,134,380,188,
0,575,617,133,376,184,
0,569,609,132,373,183,
0,563,601,152,369,181,
0,555,590,591,634,135,384,143,
0,583,626,134,380,188,
0,575,617,133,376,184,
0,569,609,132,373,183,
0,563,601,152,369,181,
0,555,595,150,366,179,
0,548,588,148,363,177,
0,542,580,147,359,176,
0,536,574,146,357,175,
0,57,647,145,430,174,
0,601,636,143,423,172,
0,593,627,143,4StartUp!
125,611,529,272,374,220,
0,604,526,271,371,220,
0,598,521,269,368,240,
0,592,517,268,366,267,
0,587,513,265,363,263,
0,581,508,263,360,262,
0,575,504,263,358,260,
0,571,500,262,356,259,
0,566,497,259,353,257,
0,561,493,258,352,255,
0,556,487,255,348,253,
0,551,483,254,345,251,
0,550,515,252,371,249,
0,583,508,249,367,246,
0,575,502,248,363,244,
0,569,496,246,359,243,
0,563,491,244,356,240,
0,556,483,242,352,239,
0,550,479,240,350,236,
0,543,473,239,347,235,
0,537,468,237,344,232,
0,531,463,235,341,231,
0,579,460,233,365,229,
0,572,455,231,361,227,
0,564,451,230,358,225,
0,557,447,228,355,224,
0,551,442,227,352,222,
0,544,437,224,348,220,
0,538,433,223,344,219,
0,531,428,222,342,216,
0,526,427,221,340,216,
0,524,480,220,385,216,
0,630,539,218,400,213,
0,620,531,216,396,211,
0,612,525,215,393,230,
0,604,519,213,389,228,
0,597,513,211,385,226,
0,590,505,210,380,224,
0,583,499,208,377,222,
0,575,494,207,374,220,
0,569,489,206,371,219,
0,563,517,204,422,217,
1,644,539,203,415,215,
1,636,531,201,412,213,
2,627,526,199,408,214,
3,619,519,199,403,211,
3,611,513,197,399,210,
4,604,505,195,395,208,
5,596,500,194,391,207,
6,590,495,193,387,206,
6,583,489,192,384,204,
6,575,547,190,444,203,
7,620,540,189,439,200,
7,612,534,188,435,251,
7,605,527,302,430,247,
7,598,520,298,425,244,
7,590,515,295,422,242,
7,583,508,292,417,240,
7,575,502,290,412,238,
7,569,496,287,409,236,
8,563,491,284,406,234,
8,557,486,283,443,231,
8,662,480,280,438,230,
8,653,476,278,433,255,
8,644,471,275,429,252,
9,636,465,272,425,250,
8,628,461,271,421,248,
8,620,455,268,415,246,
8,612,451,267,412,243,
8,606,446,263,408,241,
8,599,441,263,405,240,
7,591,451,260,440,238,
7,629,447,257,435,236,
7,621,441,255,432,236,
8,613,438,254,428,235,
7,606,433,252,423,232,
7,598,428,249,419,231,
7,591,423,248,414,229,
7,583,419,246,411,227,
7,577,415,244,407,225,
7,571,428,243,432,224,
7,611,545,241,433,222,
7,602,537,239,429,220,
7,595,531,237,424,254,
7,587,524,235,420,252,
7,580,519,233,416,249,
7,573,512,231,412,247,
7,567,505,230,408,244,
7,560,499,228,404,243,
7,554,494,227,400,240,
7,548,519,225,444,239,
7,636,574,224,439,237,
7,627,567,222,434,235,
7,620,560,220,430,232,
7,611,552,219,425,231,
7,604,546,217,422,229,
6,596,540,216,417,227,
7,590,531,214,412,225,
6,583,526,212,408,224,
6,575,519,211,405,222,
6,569,587,209,448,220,
6,651,577,207,444,219,
6,642,569,206,439,248,
6,633,563,205,434,244,
5,625,556,203,430,243,
6,617,550,201,425,240,
6,610,543,199,422,238,
6,603,536,199,417,236,
5,595,529,198,412,234,
6,588,523,196,409,231,
4,583,646,195,456,231,
4,618,655,194,451,228,
4,611,646,192,447,240,
5,603,637,191,443,238,
4,595,628,190,438,236,
4,588,620,188,434,234,
4,581,612,187,430,231,
4,574,604,185,424,231,
4,568,595,184,420,228,
4,561,589,184,417,227,
4,556,679,182,455,225,
4,600,669,181,451,223,
4,591,660,179,446,225,
3,583,651,178,441,224,
4,577,643,177,437,222,
4,571,635,176,433,220,
4,563,624,175,429,219,
3,557,616,173,423,216,
3,551,609,172,420,215,
3,545,601,172,444,214,
3,577,704,169,454,211,
3,591,694,169,448,210,
3,584,684,167,444,240,
3,577,675,167,440,237,
3,570,665,165,435,235,
3,563,657,164,431,233,
3,556,646,163,427,231,
3,551,638,162,422,229,
3,543,630,161,417,227,
3,538,659,159,462,225,
3,587,770,159,456,224,
3,582,758,158,451,222,
3,575,747,173,448,243,
3,568,736,172,443,240,
3,561,724,169,439,238,
3,555,715,168,434,236,
3,547,702,167,430,234,
3,542,693,166,424,231,
3,536,684,164,420,231,
3,530,797,163,475,229,
3,627,782,162,469,227,
2,615,769,160,463,225,
3,608,758,159,459,223,
2,600,747,159,455,221,
2,593,736,158,450,219,
2,585,726,156,446,217,
2,579,713,156,441,216,
2,572,704,155,436,214,
2,566,694,153,432,212,
2,560,728,152,454,211,
2,601,716,152,449,209,
2,591,706,157,445,209,
2,583,696,184,440,207,
1,577,687,183,435,206,
2,570,678,181,432,204,
1,563,669,179,428,203,
1,557,659,178,423,201,
2,551,651,177,419,199,
1,543,643,175,415,198,
1,539,716,175,447,196,
1,593,704,172,441,195,
1,584,695,172,437,195,
1,577,684,171,433,193,
1,571,675,169,428,192,
1,563,666,167,423,190,
1,556,657,167,420,189,
1,551,646,166,416,188,
1,543,638,164,412,185,
1,538,631,163,423,185,
1,563,664,161,432,184,
1,585,655,160,427,182,
1,577,647,159,423,231,
1,569,638,158,419,228,
1,563,630,176,415,226,
1,556,622,175,411,224,
1,550,615,173,407,223,
1,543,605,172,403,220,
1,537,599,171,399,219,
0,531,630,169,438,217,
1,601,776,167,432,215,
1,598,764,167,428,214,
1,588,752,165,423,240,
0,580,741,163,419,238,
0,574,730,162,415,236,
0,567,719,161,412,233,
0,560,710,159,408,231,
0,553,697,159,403,230,
0,547,688,157,399,227,
0,541,768,156,440,226,
0,612,764,155,435,224,
0,604,752,153,431,223,
0,594,740,152,427,222,
0,587,729,152,423,220,
0,579,719,151,418,219,
0,573,710,150,414,216,
0,566,700,148,411,215,
0,560,688,147,406,213,
0,553,679,146,402,211,
0,547,774,145,460,210,
0,651,762,144,454,214,
0,641,750,143,449,212,
0,631,739,143,444,211,
0,623,728,142,440,208,
0,615,718,141,436,207,
0,608,708,140,432,206,
0,600,699,139,428,204,
0,593,687,138,423,202,
0,586,678,137,419,200,
0,579,703,136,433,199,
0,599,692,135,428,198,
0,591,683,135,423,196,
0,582,673,134,420,194,
0,575,664,133,415,193,
0,568,655,132,412,192,
0,562,647,131,408,190,
0,556,639,131,405,189,
0,550,630,129,400,188,
0,543,622,129,408,186,
0,560,722,127,427,209,
0,596,711,127,422,227,
0,589,700,126,417,224,
0,579,691,126,414,222,
0,572,681,124,409,220,
0,566,671,124,406,218,
0,559,664,123,402,216,
0,553,655,122,398,215,
0,547,644,121,393,212,
0,540,651,120,460,211,
0,633,783,120,459,231,
0,635,771,119,454,228,
0,627,760,124,449,227,
0,615,748,122,444,224,
0,608,737,121,440,222,
0,601,727,120,435,220,
0,594,716,120,432,218,
0,587,707,119,428,216,
0,580,695,118,423,215,
0,574,811,117,491,214,
0,625,899,116,483,255,
0,615,886,115,478,253,
0,608,870,121,473,251,
0,599,855,120,468,248,
0,591,841,119,463,246,
0,584,828,118,459,243,
0,577,815,117,455,241,
0,571,803,116,451,240,
0,564,787,115,445,238,
0,559,869,115,480,236,
0,604,854,113,474,236,
0,596,839,113,469,235,
0,589,825,130,463,231,
0,579,812,128,460,230,
0,573,799,127,455,228,
0,567,787,126,450,227,
0,560,775,125,446,225,
0,553,765,124,441,223,
0,547,752,123,436,222,
0,542,875,123,464,230,
0,606,858,121,459,262,
0,597,844,120,455,259,
0,590,830,132,449,257,
0,580,816,131,445,254,
0,574,804,129,440,252,
0,567,792,129,436,249,
0,560,780,127,432,248,
0,554,768,127,428,246,
0,547,755,126,436,243,
0,580,829,125,465,241,
0,615,815,124,460,240,
0,608,802,127,455,238,
0,598,790,140,451,236,
0,591,777,139,447,233,
0,583,766,137,441,231,
0,576,755,135,438,230,
0,570,743,135,433,228,
0,563,734,134,430,227,
0,557,722,132,467,225,
0,601,StartUp!
125,547,429,115,382,192,
0,543,426,115,379,191,
0,538,423,114,376,212,
0,533,419,114,374,211,
0,528,417,113,371,209,
0,524,414,113,368,207,
0,519,411,113,366,207,
0,515,408,112,364,206,
0,511,404,111,360,204,
0,507,402,111,359,203,
0,503,399,110,355,201,
0,497,439,109,356,199,
0,547,543,108,353,198,
0,540,536,107,350,196,
0,534,530,107,347,195,
0,527,524,105,344,194,
0,521,518,108,340,193,
0,515,510,107,337,191,
0,510,504,106,334,190,
0,504,499,105,332,188,
0,499,494,104,328,187,
0,494,488,103,353,185,
0,524,483,103,350,184,
0,518,478,102,347,182,
0,512,473,101,344,180,
0,505,467,100,340,179,
0,499,463,100,337,178,
0,494,457,99,334,176,
0,489,454,99,332,176,
0,484,449,98,327,174,
0,479,447,98,327,174,
0,477,443,97,358,172,
0,544,439,97,353,172,
0,537,434,96,350,171,
0,531,430,105,347,199,
0,525,425,103,344,198,
0,519,422,124,340,195,
0,513,418,123,337,194,
0,508,414,122,334,192,
0,502,409,121,331,191,
0,496,406,120,327,189,
0,492,402,119,391,188,
0,558,398,118,387,186,
0,550,395,117,384,211,
0,542,391,127,379,220,
0,536,388,126,376,218,
0,529,384,150,372,216,
0,523,381,148,368,214,
0,517,377,147,366,212,
0,511,374,146,361,211,
0,505,371,145,358,209,
0,500,440,143,396,207,
0,562,435,143,391,206,
0,555,430,141,388,255,
0,547,425,172,384,251,
0,540,420,169,380,248,
1,534,416,167,377,247,
1,527,412,167,374,244,
1,521,408,166,370,242,
1,516,403,164,366,240,
1,510,399,163,366,239,
1,533,558,161,381,236,
1,585,550,160,377,235,
2,578,543,159,374,273,
1,569,536,158,370,269,
1,562,530,159,367,267,
2,556,524,159,364,263,
2,550,518,158,359,262,
2,543,512,156,357,259,
2,536,505,155,353,257,
2,531,499,153,382,255,
2,562,495,152,382,253,
2,556,489,152,379,251,
2,548,484,157,375,299,
2,542,479,156,371,295,
2,535,473,155,368,291,
2,529,469,153,364,289,
2,523,463,152,361,287,
2,518,460,151,358,284,
2,512,454,150,353,281,
3,506,485,148,380,280,
2,569,487,147,376,277,
2,561,481,146,372,275,
2,552,476,153,368,272,
2,546,471,152,365,270,
2,540,465,157,361,268,
2,534,460,156,359,265,
2,527,455,154,355,263,
2,521,451,152,352,261,
2,515,446,152,348,259,
2,511,496,151,377,257,
2,572,489,149,374,255,
2,565,483,147,370,265,
2,556,478,148,367,271,
2,550,472,147,363,268,
2,543,467,153,359,265,
2,537,463,152,356,263,
2,531,457,152,353,262,
2,525,452,150,350,259,
1,519,447,148,347,257,
2,513,504,147,385,255,
1,582,497,146,382,252,
1,574,492,145,377,251,
2,566,486,145,374,249,
1,559,481,155,371,247,
2,551,476,153,367,244,
2,545,470,152,364,243,
2,540,465,151,359,240,
1,534,460,150,358,239,
2,527,454,148,359,238,
1,529,500,147,398,236,
1,568,494,145,393,233,
1,561,487,144,390,231,
1,552,483,147,386,230,
2,546,478,147,383,228,
1,540,472,147,379,227,
1,534,467,145,376,225,
1,527,462,144,372,224,
1,521,455,143,369,222,
1,515,451,142,386,220,
1,558,467,141,383,219,
1,555,462,140,379,216,
2,547,457,142,375,233,
1,540,451,147,371,231,
1,533,447,148,368,228,
1,527,443,147,364,227,
1,520,438,145,361,225,
1,515,433,144,358,223,
1,510,428,143,355,221,
1,504,432,142,376,220,
1,554,428,141,371,217,
1,547,423,140,368,216,
1,540,419,142,364,252,
1,532,415,141,361,249,
1,526,411,152,358,247,
1,519,408,150,355,244,
1,515,403,149,352,242,
1,508,399,147,348,240,
1,503,396,147,345,238,
1,498,449,145,395,236,
1,552,444,143,391,234,
0,545,439,143,387,247,
0,539,433,147,384,259,
0,531,429,145,380,257,
0,524,423,146,376,255,
0,519,420,145,372,252,
0,513,415,143,369,250,
0,507,412,143,366,248,
0,502,406,142,362,246,
0,496,441,140,380,243,
0,566,435,140,376,241,
0,558,431,139,373,263,
0,551,427,140,369,262,
0,543,422,152,366,259,
0,536,417,150,363,255,
0,531,414,149,359,254,
0,524,409,147,356,252,
0,519,405,146,353,249,
0,513,399,145,350,248,
0,509,435,143,383,245,
0,551,431,143,379,243,
0,545,425,142,376,241,
0,539,421,141,371,239,
0,531,417,157,368,237,
0,524,412,156,364,235,
0,519,408,154,361,233,
0,513,404,153,358,231,
0,507,399,152,355,230,
0,502,395,151,352,227,
0,557,430,150,380,226,
0,568,425,148,376,224,
0,560,420,151,373,232,
0,553,415,150,369,231,
0,545,412,148,366,228,
0,539,408,147,363,226,
0,533,403,146,359,224,
0,527,399,145,356,222,
0,521,395,143,353,220,
0,515,391,143,388,219,
0,563,387,142,389,217,
0,556,384,140,385,216,
0,550,380,140,382,235,
0,543,376,138,377,233,
0,535,374,141,375,231,
0,528,371,140,371,228,
0,523,368,139,368,227,
0,516,364,137,364,224,
0,511,361,136,361,223,
0,505,422,135,366,221,
0,556,415,135,361,219,
0,548,412,134,359,217,
0,542,407,139,355,216,
0,536,403,137,352,214,
0,527,398,140,349,212,
0,521,394,139,346,211,
0,515,391,137,344,209,
0,510,387,135,340,207,
0,504,384,135,337,206,
0,499,383,135,387,204,
0,558,378,133,383,203,
0,550,375,132,379,230,
0,543,371,134,375,227,
0,537,368,132,371,225,
0,529,364,158,368,223,
0,523,361,157,364,220,
0,518,358,156,361,219,
0,511,355,154,358,216,
0,505,352,153,355,216,
0,501,437,152,380,213,
0,551,432,151,376,211,
0,543,427,150,373,241,
0,537,422,148,369,239,
0,531,418,147,366,237,
0,524,414,147,363,235,
0,518,409,145,359,231,
0,512,404,144,356,231,
0,506,401,143,353,228,
0,500,396,142,350,227,
0,547,452,141,369,225,
0,563,447,140,366,223,
0,556,442,139,363,226,
0,548,437,137,359,224,
0,542,432,140,355,222,
0,534,428,138,352,220,
0,527,423,137,350,218,
0,523,419,135,347,216,
0,516,415,135,344,214,
0,511,411,134,376,212,
0,577,430,132,396,211,
0,569,424,131,391,209,
0,562,420,132,388,231,
0,556,415,131,384,229,
0,548,412,140,380,227,
0,540,408,137,377,224,
0,535,403,137,374,223,
0,528,399,135,371,221,
0,523,396,135,367,219,
0,517,395,134,390,217,
0,572,416,132,384,216,
0,564,412,131,380,215,
0,558,408,131,376,236,
0,551,403,131,374,233,
0,544,399,142,369,231,
0,536,395,141,366,229,
0,530,391,140,363,227,
0,524,387,138,359,225,
0,519,384,137,356,224,
0,513,444,135,390,222,
0,566,462,135,384,220,
0,559,457,134,381,219,
0,551,451,134,377,216,
0,545,447,132,374,215,
0,540,442,133,370,213,
0,531,438,131,367,211,
0,525,433,130,364,209,
0,519,428,129,359,207,
0,513,423,128,357,206,
0,508,420,127,371,204,
0,552,415,126,367,203,
0,546,411,126,364,211,
0,540,407,135,359,209,
0,533,403,135,357,207,
0,527,399,138,353,206,
0,519,395,135,351,204,
0,513,391,135,348,201,
0,508,387,134,344,199,
0,503,384,133,342,199,
0,536,430,131,353,198,
0,560,423,131,349,196,
0,552,419,131,346,249,
0,546,414,135,343,247,
0,540,410,142,339,244,
0,532,406,141,337,242,
0,526,401,140,334,240,
0,519,398,137,332,238,
0,514,393,137,328,236,
0,508,390,135,351,233,
0,557,386,135,364,231,
0,550,382,134,359,230,
0,543,378,158,356,255,
0,536,375,156,353,254,
0,530,371,156,350,252,
0,523,368,155,347,249,
0,516,364,152,344,247,
0,511,361,152,340,244,
0,505,358,150,337,243,
0,499,359,149,376,240,
0,558,422,147,373,239,
0,551,416,147,368,236,
0,543,412,163,365,244,
0,537,408,163,361,242,
0,531,403,161,359,240,
0,524,399,159,355,238,
0,518,395,158,352,236,
0,512,391,157,349,233,
0,506,387,156,345,231,
0,502,427,155,359,230,
0,555,423,153,355,227,
0,547,417,152,351,228,
0,541,412,152,347,227,
0,535,408,150,344,225,
0,528,403,149,341,223,
0,520,399,148,338,221,
0,515,396,147,335,219,
0,509,391,145,332,217,
0,504,388,144,329,216,
0,499,489,143,380,214,
0,568,483,142,376,212,
0,560,477,141,371,211,
0,553,472,140,368,209,
0,547,466,140,364,207,
0,540,461,138,361,206,
0,532,455,137,358,204,
0,527,451,135,354,203,
0,520,446,135,352,201,
0,515,441,134,348,199,
0,542,438,133,384,198,
0,559,432,131,379,196,
0,551,428,131,375,197,
0,545,423,134,371,195,
0,539,419,137,368,193,
0,532,415,135,364,192,
0,525,411,135,360,191,
0,519,408,134,358,190,
0,513,403,132,354,188,
0,508,399,131,364,187,
0,539,446,131,376,185,
0,538,440,129,372,184,
0,531,435,128,368,188,
0,525,430,127,364,186,
0,519,425,143,361,184,
0,513,421,142,358,184,
0,505,417,140,355,182,
0,500,412,139,352,180,
0,496,408,137,348,179,
0,490,404,136,368,178,
0,579,421,135,364,176,
0,571,415,134,360,176,
0,564,411,136,356,174,
0,557,407,135,353,173,
0,551,402,135,350,172,
0,543,399,134,347,171,
0,536,395,132,344,169,
0,530,391,131,341,167,
0,524,387,129,338,167,
0,519,384,129,362,166,
0,575,380,127,358,164,
0,568,376,127,355,184,
0,561,372,126,351,182,
0,555,369,125,348,179,
0,548,366,125,344,179,
0,542,363,124,341,177,
0,535,359,123,338,176,
0,528,356,122,335,174,
0,522,353,121,332,172,
0,517,440,120,376,171,
0,551,433,120,372,169,
0,545,428,119,369,167,
0,539,423,123,364,167,
0,531,418,121,361,166,
0,526,414,126,358,164,
0,519,409,125,355,163,
0,512,406,124,352,162,
0,507,401,123,348,161,
0,502,398,121,345,159,
0,531,463,120,353,159,
0,563,456,120,351,158,
0,556,451,127,348,208,
0,548,446,127,344,206,
0,543,440,135,340,204,
0,536,435,133,337,203,
0,529,432,132,335,200,
0,523,427,131,332,199,
0,516,423,129,328,197,
0,511,419,128,343,195,
0,556,476,127,372,193,
0,558,470,126,369,192,
0,551,463,140,365,191,
0,543,458,137,361,190,
0,537,454,137,358,188,
0,531,448,135,355,187,
0,526,444,135,351,185,
0,518,440,134,348,184,
0,512,435,132,345,182,
0,507,430,131,380,180,
0,558,476,130,377,179,
0,551,471,129,374,178,
0,545,463,145,369,236,
0,538,459,143,366,233,
0,531,454,151,362,231,
0,526,449,150,359,230,
0,519,444,148,355,227,
0,512,440,146,352,225,
0,507,435,145,350,223,
0,502,467,144,373,222,
0,568,479,143,368,220,
0,560,473,142,365,229,
0,554,467,148,360,253,
0,547,462,147,358,251,
0,540,456,147,354,248,
0,535,451,146,351,246,
0,528,447,145,348,244,
0,520,442,143,345,242,
0,515,438,143,342,240,
0,510,455,142,390,238,
0,599,451,140,385,236,
0,591,446,140,382,273,
0,583,440,150,377,269,
0,575,435,148,374,267,
0,569,431,147,370,264,
0,563,426,147,367,262,
0,556,422,145,364,260,
0,548,417,143,359,257,
0,542,414,143,357,255,
0,538,519,142,369,253,
0,566,511,140,365,251,
0,559,505,140,362,248,
0,552,498,139,358,247,
0,545,492,139,354,244,
0,540,487,137,352,243,
0,534,481,136,348,241,
0,527,476,135,345,239,
0,519,472,135,342,236,
0,515,467,134,344,235,
0,560,519,132,368,232,
0,558,513,131,364,231,
0,551,507,130,361,235,
0,545,499,129,357,232,
0,539,494,129,354,231,
0,532,487,127,351,229,
0,526,483,127,348,227,
0,519,478,126,344,225,
0,513,472,124,342,223,
0,508,467,124,373,222,
0,558,481,123,376,220,
0,551,476,122,371,218,
0,544,471,121,368,217,
0,537,463,120,364,216,
0,531,460,135,360,214,
0,525,455,134,358,212,
0,519,450,133,354,210,
0,513,446,131,351,209,
0,507,440,130,348,207,
0,502,454,129,352,206,
0,577,491,127,348,204,
0,569,485,127,345,244,
0,563,480,127,343,271,
0,556,473,125,339,269,
0,548,467,127,335,267,
0,543,463,126,333,263,
0,536,457,124,331,262,
0,530,452,124,327,259,
0,523,448,122,325,257,
0,518,504,121,348,255,
0,561,497,120,345,252,
0,554,491,120,342,284,
0,547,486,123,339,280,
0,541,480,121,335,278,
0,535,473,121,332,275,
0,528,468,120,328,272,
0,523,463,119,326,270,
0,516,459,118,323,268,
0,510,454,117,320,265,
0,513,449,116,370,263,
0,557,444,115,367,260,
0,550,440,115,363,259,
0,543,435,127,359,255,
0,536,431,129,355,255,
0,531,426,127,352,252,
0,524,422,127,349,250,
0,519,418,126,345,248,
0,511,414,125,343,246,
0,505,410,124,344,243,
0,549,441,123,381,242,
0,550,436,121,377,240,
0,543,432,123,374,240,
0,536,427,121,369,239,
0,531,422,132,366,236,
0,524,417,131,362,235,
0,518,412,129,359,232,
0,512,408,128,355,231,
0,505,404,127,352,230,
0,500,401,126,381,227,
0,547,484,125,384,225,
0,540,478,124,380,224,
0,533,472,123,376,222,
0,527,467,122,372,220,
0,520,461,148,368,219,
0,515,455,147,365,217,
0,508,451,145,361,216,
0,504,446,144,359,214,
0,496,441,143,355,212,
0,492,451,142,376,211,
0,558,472,140,371,209,
0,550,467,139,368,208,
0,543,462,138,364,219,
0,537,456,137,361,217,
0,531,451,139,357,216,
0,524,446,137,353,214,
0,519,441,135,351,211,
0,513,436,135,348,210,
0,505,432,134,344,208,
0,500,432,132,373,207,
0,555,428,131,369,204,
0,548,423,131,366,214,
0,542,419,129,362,211,
0,536,415,128,359,210,
0,529,409,131,354,208,
0,523,406,129,352,207,
0,516,402,128,348,205,
0,511,398,127,345,204,
0,504,395,126,342,201,
0,507,462,125,368,199,
0,556,455,124,364,199,
0,548,450,124,361,207,
0,542,445,123,358,204,
0,536,440,128,355,203,
0,529,435,133,350,201,
0,524,430,131,348,199,
0,518,425,131,344,198,
0,512,422,129,341,197,
0,504,417,128,339,195,
0,562,413,127,371,193,
0,560,408,126,368,192,
0,552,404,126,364,197,
0,546,400,125,360,195,
0,540,396,136,358,193,
0,533,391,135,353,192,
0,527,388,134,351,191,
0,521,385,133,347,189,
0,515,382,132,344,188,
0,508,379,131,380,187,
0,571,376,129,379,184,
0,563,371,128,376,184,
0,556,368,127,371,221,
0,550,365,127,368,219,
0,543,361,139,364,216,
0,536,359,137,359,215,
0,530,355,135,358,212,
0,524,352,135,354,211,
0,519,350,134,351,209,
0,511,368,132,384,207,
0,559,409,131,379,206,
0,551,406,130,376,222,
0,545,401,131,372,240,
0,538,397,129,368,238,
0,531,391,137,364,236,
0,526,387,135,360,233,
0,519,384,135,358,231,
0,514,380,134,355,230,
0,508,376,132,352,227,
0,502,448,131,372,225,
0,553,441,130,368,224,
0,547,436,129,364,252,
0,540,432,128,361,249,
0,534,427,127,358,247,
0,527,422,137,355,244,
0,521,417,136,351,242,
0,515,412,135,348,240,
0,510,408,134,344,238,
0,504,404,133,342,236,
0,499,435,131,361,235,
0,561,431,131,358,231,
0,555,425,129,355,233,
0,548,421,134,352,231,
0,541,416,135,348,230,
0,536,411,135,345,227,
0,529,407,134,341,226,
0,523,403,132,338,224,
0,517,399,131,335,222,
0,511,395,131,332,220,
0,536,443,129,359,219,
0,537,436,127,356,217,
0,531,432,148,353,215,
0,524,428,148,350,214,
0,519,423,150,347,211,
0,512,417,148,344,210,
0,507,413,147,339,208,
0,501,409,146,337,207,
0,496,404,145,334,206,
0,491,400,143,366,204,
0,563,446,142,366,203,
0,555,440,141,363,199,
0,548,435,145,359,228,
0,542,431,143,355,226,
0,535,426,143,353,224,
0,528,420,142,349,223,
0,523,415,141,345,220,
0,516,412,140,343,219,
0,511,408,139,339,216,
0,505,408,137,391,215,
0,583,454,135,387,213,
0,575,448,135,383,211,
0,569,444,137,379,237,
0,562,439,135,376,235,
0,556,433,135,371,232,
0,549,428,135,368,231,
0,543,423,134,364,228,
0,536,419,132,360,227,
0,530,415,131,358,225,
0,524,463,131,363,224,
0,561,455,129,359,222,
0,554,451,128,355,240,
0,547,446,127,352,237,
0,541,441,127,349,235,
0,535,436,126,347,232,
0,528,431,125,343,231,
0,523,426,124,339,229,
0,516,422,123,336,227,
0,511,417,122,334,225,
0,506,478,121,358,224,
0,560,471,120,355,222,
0,551,465,120,352,254,
0,545,460,126,348,252,
0,539,455,124,344,249,
0,532,450,125,342,247,
0,527,444,124,338,244,
0,520,440,124,335,243,
0,515,435,122,332,240,
0,509,430,121,329,239,
0,504,445,120,391,236,
0,543,440,120,387,234,
0,536,435,121,383,231,
0,530,430,123,380,231,
0,524,425,124,376,228,
0,518,422,124,371,227,
0,512,416,123,368,225,
0,507,412,121,364,224,
0,501,408,120,361,221,
0,496,404,120,371,220,
0,524,448,119,376,218,
0,560,443,118,371,216,
0,553,438,135,368,236,
0,547,433,134,364,233,
0,540,428,137,361,231,
0,535,423,136,358,229,
0,527,419,135,354,227,
0,522,414,134,351,225,
0,516,410,133,348,224,
0,510,406,132,398,222,
0,579,402,131,393,220,
0,568,398,129,390,223,
0,562,395,131,385,255,
0,555,391,129,382,252,
0,548,387,128,378,250,
0,542,384,127,375,248,
0,536,380,127,371,246,
0,529,376,126,368,243,
0,524,372,124,364,241,
0,519,462,124,376,240,
0,575,492,123,372,238,
0,566,487,121,369,236,
0,559,481,135,365,233,
0,551,476,133,361,231,
0,545,470,134,359,230,
0,539,465,133,355,227,
0,532,459,132,352,226,
0,527,454,131,348,224,
0,521,449,129,345,223,
0,515,486,129,371,221,
0,576,479,127,367,219,
0,568,473,127,364,217,
0,560,468,127,359,216,
0,553,463,126,357,214,
0,547,458,128,353,212,
0,541,453,127,351,211,
0,535,448,126,346,209,
0,528,443,126,344,207,
0,523,438,124,340,206,
0,518,434,124,368,204,
0,572,429,123,365,203,
0,566,425,122,361,204,
0,559,420,124,358,202,
0,551,416,142,355,200,
0,545,412,140,352,199,
0,540,409,139,348,198,
0,533,403,138,344,196,
0,527,399,137,342,195,
0,521,396,135,355,193,
0,526,441,135,368,192,
0,550,435,134,364,191,
0,543,432,132,360,192,
0,536,427,131,358,191,
0,531,423,135,354,189,
0,524,418,134,351,188,
0,519,414,132,348,187,
0,513,408,131,344,185,
0,507,404,130,340,184,
0,502,400,129,374,183,
0,568,396,127,371,182,
0,566,392,127,367,180,
0,559,389,126,364,225,
0,551,385,125,359,224,
0,545,382,133,357,221,
0,539,379,131,353,220,
0,533,376,131,351,217,
0,527,371,130,347,216,
0,521,368,128,344,214,
0,515,408,127,371,212,
0,562,417,127,367,211,
0,552,412,125,363,209,
0,546,408,129,359,220,
0,540,403,127,356,217,
0,534,399,143,353,216,
0,527,396,142,350,214,
0,521,391,141,347,211,
0,515,387,140,343,210,
0,510,384,139,339,208,
0,504,423,137,370,207,
0,543,417,135,366,205,
0,536,413,135,363,204,
0,529,408,134,359,202,
0,523,404,133,355,201,
0,517,399,135,352,199,
0,511,396,133,350,198,
0,505,391,131,347,196,
0,499,387,131,342,195,
0,495,384,130,339,193,
0,490,458,129,364,192,
0,547,452,127,359,190,
0,539,447,127,356,238,
0,532,442,129,353,235,
0,526,437,133,350,231,
0,519,432,131,347,231,
0,514,428,131,344,228,
0,508,423,129,340,226,
0,503,418,128,337,224,
0,497,414,127,352,223,
0,514,480,126,366,221,
0,551,475,126,362,219,
0,542,470,124,359,222,
0,536,463,124,355,220,
0,529,459,126,352,217,
0,523,454,124,349,216,
0,517,449,124,345,214,
0,511,443,123,343,212,
0,505,439,121,339,211,
0,500,434,120,364,209,
0,543,452,120,359,207,
0,536,448,119,358,206,
0,529,443,169,353,206,
0,523,438,169,350,204,
0,516,433,167,347,201,
0,511,428,166,344,199,
0,504,423,164,341,199,
0,499,419,163,337,197,
0,494,415,162,335,195,
0,488,411,161,366,194,
0,547,407,159,362,192,
0,540,403,158,359,192,
0,531,399,156,355,201,
0,526,396,156,352,199,
0,519,391,154,348,197,
0,513,388,153,345,195,
0,508,384,152,343,193,
0,502,380,151,339,192,
0,496,376,150,335,191,
0,492,488,148,359,190,
0,564,487,147,355,188,
0,558,482,146,352,212,
0,549,476,147,348,221,
0,543,472,146,344,219,
0,536,466,145,342,216,
0,530,461,143,339,215,
0,524,455,143,335,214,
0,518,450,142,332,211,
0,512,445,140,329,209,
0,507,492,140,356,207,
0,542,486,139,352,206,
0,536,480,137,349,257,
0,527,475,135,345,254,
0,521,469,137,343,251,
0,515,463,136,339,248,
0,509,459,135,336,246,
0,504,454,135,334,243,
0,498,448,134,331,242,
0,493,444,132,335,240,
0,492,449,131,368,238,
0,535,444,130,364,236,
0,527,440,130,359,234,
0,520,435,130,357,231,
0,515,431,130,353,230,
0,508,425,129,350,227,
0,503,422,127,347,226,
0,497,417,127,344,224,
0,492,412,126,340,223,
0,487,425,126,376,221,
0,542,526,124,373,219,
0,547,519,124,369,217,
0,541,513,127,366,246,
0,533,507,126,363,243,
0,527,502,131,359,240,
0,520,496,130,355,239,
0,515,491,129,352,236,
0,509,485,127,349,235,
0,504,479,127,345,232,
0,498,508,126,365,231,
0,583,526,125,360,229,
0,575,519,124,358,227,
0,568,513,153,354,254,
0,559,508,151,351,251,
0,552,502,150,348,248,
0,546,496,148,344,246,
0,540,491,147,342,244,
0,534,486,146,338,242,
0,527,479,145,335,240,
0,522,556,143,371,238,
0,569,547,143,368,236,
0,563,540,142,364,235,
0,556,534,152,360,259,
0,547,527,150,358,255,
0,541,521,149,354,253,
0,535,515,148,351,251,
0,528,510,147,348,248,
0,523,504,145,345,247,
0,516,497,144,341,244,
0,511,528,143,369,243,
0,583,521,142,366,240,
0,576,515,141,363,323,
0,569,510,148,359,337,
0,561,504,147,355,332,
0,555,498,146,352,329,
0,547,492,144,349,326,
0,542,487,143,345,323,
0,536,482,143,343,319,
0,529,476,141,350,318,
0,528,472,140,369,315,
0,575,466,139,366,312,
0,569,462,137,362,310,
0,562,456,137,359,307,
0,553,452,135,355,304,
0,547,448,135,352,301,
0,541,444,134,349,299,
0,535,439,134,346,295,
0,529,435,132,343,294,
0,523,430,131,364,291,
0,547,480,130,364,289,
0,550,475,129,360,287,
0,543,470,134,358,284,
0,536,464,133,354,282,
0,528,460,132,351,280,
0,523,455,131,348,278,
0,516,449,130,344,275,
0,511,444,129,342,273,
0,505,440,127,339,271,
0,500,435,127,369,269,
0,583,430,126,365,267,
0,575,426,125,361,265,
0,568,422,124,359,263,
0,560,418,124,355,261,
0,551,414,139,352,259,
0,546,411,137,348,257,
0,540,407,135,345,255,
0,534,403,135,343,253,
0,527,399,134,339,251,
0,522,483,133,367,249,
0,551,476,131,363,247,
0,543,470,131,359,274,
0,537,464,129,355,288,
0,531,460,128,352,286,
0,523,455,131,349,283,
0,516,449,131,346,280,
0,511,444,129,343,278,
0,505,440,128,339,275,
0,500,435,127,337,273,
0,496,436,127,375,271,
0,547,432,126,371,268,
0,540,427,124,367,267,
0,535,423,132,364,263,
0,527,419,131,359,262,
0,519,414,135,356,259,
0,515,411,134,353,257,
0,509,407,132,350,255,
0,504,403,131,348,254,
0,497,399,130,344,252,
0,496,451,129,377,249,
0,562,445,127,373,248,
0,555,440,127,369,246,
0,548,435,127,366,243,
0,540,431,127,363,241,
0,534,425,129,359,240,
0,527,422,127,356,238,
0,521,417,127,353,236,
0,515,412,126,350,234,
0,510,408,125,347,233,
0,551,447,124,376,231,
0,560,441,123,372,230,
0,553,437,143,369,227,
0,547,432,144,366,226,
0,539,428,150,363,224,
0,533,423,147,359,223,
0,527,419,146,355,221,
0,520,415,145,352,220,
0,515,411,143,350,218,
0,510,406,143,368,216,
0,536,489,142,372,215,
0,529,483,140,369,214,
0,523,478,154,365,211,
0,516,472,152,361,210,
0,509,467,152,359,209,
0,504,463,150,355,207,
0,498,457,149,352,206,
0,492,452,147,349,204,
0,487,448,147,346,203,
0,483,444,145,369,201,
0,576,438,143,364,199,
0,568,433,143,360,212,
0,562,428,147,358,252,
0,555,423,145,354,249,
0,547,420,144,351,247,
0,540,415,143,348,244,
0,535,412,142,344,241,
0,528,408,141,342,240,
0,523,404,140,339,238,
0,517,530,139,368,236,
0,590,536,137,363,233,
0,582,528,135,359,234,
0,575,522,135,356,231,
0,568,516,134,353,230,
0,560,510,135,350,228,
0,552,504,133,346,225,
0,546,499,132,344,224,
0,540,494,131,340,222,
0,534,487,130,337,220,
0,527,482,129,382,219,
0,556,477,128,377,217,
0,550,472,127,374,241,
0,543,467,136,369,239,
0,536,462,135,366,236,
0,529,457,137,363,235,
0,523,452,135,359,231,
0,518,448,135,356,230,
0,512,444,134,353,228,
0,507,440,133,350,226,
0,551,434,131,375,224,
0,568,430,131,370,223,
0,560,425,131,367,224,
0,553,422,132,363,222,
0,547,417,140,359,220,
0,539,414,139,356,218,
0,532,409,137,353,216,
0,527,406,135,350,214,
0,520,403,135,347,212,
0,515,399,134,359,211,
0,574,422,132,361,209,
0,566,416,131,357,207,
0,560,412,131,354,206,
0,552,408,129,351,204,
0,546,403,131,348,203,
0,538,399,130,344,201,
0,531,396,129,341,199,
0,526,391,127,338,198,
0,519,388,127,335,196,
0,514,390,126,364,195,
0,549,455,125,360,194,
0,542,449,124,356,193,
0,536,444,126,353,220,
0,529,440,124,350,217,
0,523,435,131,347,216,
0,515,430,129,344,214,
0,510,425,128,340,211,
0,504,422,127,337,209,
0,499,417,126,335,207,
0,494,448,125,367,206,
0,551,440,124,363,204,
0,543,435,123,359,240,
0,537,432,122,355,237,
0,531,427,121,352,235,
0,524,422,125,348,231,
0,518,417,124,345,231,
0,512,414,123,343,228,
0,505,409,121,339,226,
0,500,406,120,336,224,
0,496,471,120,380,223,
0,563,463,119,376,221,
0,556,457,118,371,225,
0,548,452,120,368,224,
0,542,448,119,365,222,
0,536,443,119,361,220,
0,527,438,117,358,218,
0,521,433,116,355,216,
0,515,429,115,352,214,
0,510,424,115,348,212,
0,536,511,113,373,211,
0,547,502,113,368,209,
0,540,496,132,365,231,
0,534,491,145,361,228,
0,527,486,144,358,226,
0,521,480,143,355,224,
0,514,475,142,352,222,
0,508,470,140,348,220,
0,503,464,139,345,217,
0,497,460,138,368,216,
0,556,455,136,385,215,
0,548,449,135,380,213,
0,542,444,135,377,211,
0,536,440,134,374,209,
0,529,435,134,370,207,
0,523,432,132,367,206,
0,515,427,131,363,204,
0,510,423,130,359,202,
0,504,419,129,356,201,
0,499,415,128,384,199,
0,547,426,127,380,198,
0,540,420,126,375,211,
0,535,415,127,371,271,
0,527,412,127,368,268,
0,521,408,134,364,265,
0,516,403,132,360,263,
0,508,399,131,358,260,
0,503,396,130,354,258,
0,497,393,129,352,255,
0,492,423,127,380,254,
0,556,421,127,376,252,
0,548,415,126,371,249,
0,542,411,126,368,248,
0,536,406,124,364,246,
0,529,402,125,360,243,
0,524,398,124,358,241,
0,515,394,123,354,239,
0,510,391,122,351,237,
0,504,387,121,348,236,
0,499,385,120,364,233,
0,540,382,120,359,231,
0,532,377,118,355,295,
0,527,374,123,352,292,
0,519,371,121,349,289,
0,514,368,121,345,287,
0,508,364,120,344,284,
0,502,361,119,340,281,
0,496,359,118,337,279,
0,491,355,117,335,276,
0,519,482,116,347,274,
0,566,474,115,344,271,
0,559,467,120,339,300,
0,552,462,124,335,297,
0,545,457,151,333,295,
0,540,451,148,330,291,
0,533,448,147,327,289,
0,525,443,145,324,286,
0,519,438,143,322,284,
0,513,433,143,343,281,
0,552,429,142,371,279,
0,545,424,140,367,276,
0,539,419,155,363,280,
0,532,415,153,359,278,
0,526,411,152,356,275,
0,519,408,152,353,272,
0,515,403,150,350,271,
0,508,399,148,347,268,
0,502,396,147,344,265,
0,496,391,146,376,263,
0,560,422,145,372,262,
0,551,417,143,368,259,
0,545,412,144,364,257,
0,539,408,143,360,255,
0,532,403,143,358,254,
0,526,399,143,354,252,
0,519,395,142,351,249,
0,513,391,140,348,247,
0,507,387,139,344,245,
0,502,384,137,367,243,
0,560,380,136,362,241,
0,552,377,135,359,240,
0,545,372,159,355,241,
0,539,369,157,352,240,
0,532,366,156,348,238,
0,527,363,155,344,236,
0,519,359,153,342,233,
0,513,356,152,339,231,
0,508,353,151,335,230,
0,503,351,150,371,228,
0,551,348,148,367,227,
0,544,344,147,364,238,
0,537,342,146,359,236,
0,531,339,145,355,233,
0,526,335,154,352,231,
0,519,334,152,350,230,
0,512,331,152,346,227,
0,506,327,150,343,225,
0,500,326,148,340,224,
0,503,326,147,344,222,
0,519,323,146,342,220,
0,513,319,145,339,220,
0,507,317,144,335,219,
0,501,315,145,332,217,
0,496,312,144,329,216,
0,491,310,143,327,214,
0,484,307,142,323,212,
0,479,305,140,321,211,
0,475,303,140,334,209,
0,545,376,139,363,207,
0,545,371,137,359,206,
0,539,367,150,355,206,
0,532,363,148,352,204,
0,526,359,147,348,203,
0,519,355,145,345,201,
0,514,352,144,342,199,
0,507,348,143,339,199,
0,501,345,142,335,197,
0,496,343,141,355,195,
0,555,400,140,352,194,
0,547,396,139,349,193,
0,542,391,174,345,242,
0,535,387,172,342,240,
0,527,383,170,339,238,
0,522,379,168,335,236,
0,516,376,167,332,233,
0,509,371,166,329,231,
0,504,368,164,327,229,
0,499,395,163,368,227,
0,551,419,161,363,225,
0,545,415,160,359,258,
0,539,409,174,356,280,
0,532,404,172,352,278,
0,526,400,171,348,275,
0,519,396,169,345,271,
0,514,392,167,343,270,
0,507,388,167,339,268,
0,502,385,165,336,264,
0,496,432,163,366,263,
0,546,427,162,361,260,
0,539,422,161,359,286,
0,532,415,161,355,281,
0,526,412,159,351,280,
0,519,408,159,348,277,
0,514,403,158,344,275,
0,508,399,157,342,271,
0,502,395,156,339,270,
0,496,391,154,335,268,
0,519,387,152,375,264,
0,564,384,152,371,263,
0,557,380,155,368,263,
0,551,376,156,364,260,
0,543,372,155,359,258,
0,537,368,153,356,255,
0,531,365,152,353,254,
0,525,361,152,350,252,
0,518,359,150,347,250,
0,512,355,148,353,248,
0,534,403,147,380,246,
0,531,399,146,376,243,
0,525,395,145,372,241,
0,519,390,144,369,240,
0,513,385,147,364,238,
0,508,382,145,361,236,
0,502,377,144,358,234,
0,496,374,143,355,231,
0,490,371,142,352,231,
0,486,406,141,356,228,
0,607,560,140,355,227,
0,598,551,139,352,225,
0,591,545,137,348,282,
0,583,536,137,345,280,
0,575,530,135,341,276,
0,569,524,135,339,274,
0,563,518,135,335,271,
0,556,512,134,332,270,
0,548,507,132,329,267,
0,542,501,131,348,263,
0,560,496,131,344,263,
0,552,491,129,341,260,
0,547,486,190,338,267,
0,540,480,188,335,263,
0,534,475,185,331,262,
0,527,470,184,327,259,
0,522,464,183,326,257,
0,516,460,181,323,255,
0,510,455,179,319,253,
0,504,512,177,368,251,
0,569,505,176,364,248,
0,561,499,175,359,310,
0,555,494,173,357,312,
0,548,487,172,353,308,
0,542,481,171,350,305,
0,536,476,169,347,302,
0,529,471,168,344,300,
0,524,466,167,340,297,
0,515,461,166,337,295,
0,528,507,164,365,291,
0,569,499,163,361,289,
0,562,494,162,358,287,
0,555,488,161,355,284,
0,548,482,159,351,281,
0,542,476,159,348,280,
0,536,472,158,344,277,
0,529,466,156,341,275,
0,524,461,155,338,273,
0,516,455,153,337,271,
0,567,451,152,371,268,
0,575,448,152,368,265,
0,568,443,161,364,263,
0,560,439,172,360,262,
0,554,433,171,356,259,
0,547,429,169,353,257,
0,541,425,167,350,255,
0,535,422,167,347,254,
0,529,417,166,344,252,
0,521,414,163,376,250,
0,564,409,163,374,248,
0,557,406,161,370,246,
0,551,403,159,367,247,
0,543,399,159,363,244,
0,537,394,158,359,243,
0,531,391,156,355,241,
0,525,387,155,352,239,
0,519,384,153,349,237,
0,513,380,152,346,236,
0,507,395,152,382,233,
0,570,431,150,377,231,
0,563,425,149,375,231,
0,556,421,172,371,239,
0,550,416,169,367,236,
0,543,411,168,363,234,
0,536,407,167,359,231,
0,530,403,166,356,231,
0,524,399,164,353,228,
0,519,395,163,350,227,
0,512,462,161,366,225,
0,575,455,160,361,224,
0,568,450,159,359,242,
0,561,445,158,355,240,
0,553,440,156,352,237,
0,547,434,170,348,235,
0,540,430,167,344,233,
0,535,425,167,342,231,
0,527,420,166,339,229,
0,523,416,164,335,227,
0,520,412,163,385,225,
0,574,408,161,381,224,
0,567,404,159,377,222,
0,560,400,159,374,220,
0,553,396,169,370,218,
0,547,391,167,366,217,
0,540,388,167,363,216,
0,534,384,166,359,214,
0,527,381,164,355,212,
0,522,377,163,353,211,
0,577,420,161,377,208,
0,572,415,159,374,207,
0,564,411,159,369,206,
0,558,407,157,366,204,
0,551,403,157,363,203,
0,543,397,156,359,201,
0,538,393,154,355,199,
0,531,389,153,352,199,
0,526,385,152,349,197,
0,519,382,151,374,195,
0,584,487,150,372,194,
0,575,480,148,368,193,
0,569,475,147,365,219,
0,562,470,146,361,217,
0,556,464,145,359,215,
0,549,458,143,354,214,
0,543,454,143,351,211,
0,536,448,142,348,209,
0,531,444,141,344,207,
0,524,500,140,369,206,
0,555,542,139,366,204,
0,547,536,137,362,231,
0,541,529,137,359,240,
0,535,523,135,355,238,
0,527,516,152,352,236,
0,522,509,151,348,234,
0,516,504,150,345,231,
0,511,498,148,342,230,
0,505,492,147,339,227,
0,499,547,146,386,226,
0,581,538,144,382,224,
0,574,531,143,378,222,
0,567,525,167,375,220,
0,560,519,173,371,219,
0,553,513,171,368,216,
0,547,505,169,363,215,
0,540,500,167,359,213,
0,534,495,167,356,211,
0,527,489,166,353,209,
0,520,501,164,366,207,
0,550,495,163,361,206,
0,543,489,161,359,222,
0,537,483,159,355,220,
0,531,479,159,352,217,
0,524,473,158,348,216,
0,519,467,157,344,214,
0,512,463,156,342,212,
0,507,458,154,339,211,
0,502,454,153,335,209,
0,551,487,152,372,207,
0,553,481,151,369,205,
0,547,476,187,366,207,
0,540,471,203,361,204,
0,534,465,201,359,203,
0,527,460,199,355,201,
0,521,454,197,352,199,
0,515,449,195,348,198,
0,510,445,194,345,196,
0,504,440,192,384,195,
0,544,510,191,385,194,
0,537,504,189,381,192,
0,531,498,188,377,231,
0,524,492,186,374,230,
0,519,487,184,371,227,
0,512,481,184,368,225,
0,507,475,182,363,224,
0,502,470,180,359,222,
0,496,464,179,356,220,
0,491,467,177,377,218,
0,576,486,176,372,216,
0,568,480,175,369,214,
0,562,475,176,366,212,
0,555,469,175,362,211,
0,548,463,173,359,208,
0,542,457,172,355,207,
0,536,452,171,352,206,
0,530,448,169,348,204,
0,524,444,167,345,202,
0,519,524,167,369,200,
0,547,536,166,366,199,
0,540,529,164,362,236,
0,534,524,163,359,236,
0,527,518,162,355,233,
0,521,511,161,352,231,
0,515,504,159,349,230,
0,510,499,158,345,227,
0,504,493,157,343,225,
0,499,487,156,339,224,
0,494,505,155,382,222,
0,571,499,153,378,220,
0,563,493,152,375,248,
0,556,487,153,371,245,
0,550,482,152,368,243,
0,543,477,156,364,240,
0,537,471,155,360,239,
0,531,466,153,356,236,
0,525,461,152,353,235,
0,519,455,152,351,232,
0,514,478,150,372,231,
0,551,472,148,369,229,
0,545,467,156,366,263,
0,539,462,155,361,260,
0,532,455,153,359,258,
0,527,451,152,355,255,
0,520,446,151,352,254,
0,515,441,150,348,251,
0,509,437,148,345,249,
0,504,433,147,368,248,
0,538,532,147,371,245,
0,552,526,145,367,243,
0,546,519,143,364,241,
0,540,513,149,359,239,
0,533,508,147,357,238,
0,527,502,147,353,236,
0,520,495,145,350,233,
0,515,489,144,346,231,
0,509,483,143,344,230,
0,504,479,142,380,228,
0,556,506,141,376,226,
0,550,499,140,372,224,
0,543,494,139,368,222,
0,537,488,138,365,220,
0,531,483,139,361,219,
0,524,478,137,359,217,
0,519,472,136,355,216,
0,513,467,135,352,214,
0,507,462,135,348,212,
0,502,502,134,388,211,
0,551,495,132,384,209,
0,543,488,131,380,207,
0,536,483,137,376,257,
0,530,478,136,372,255,
0,524,472,136,369,253,
0,518,467,135,366,251,
0,512,461,135,363,248,
0,507,455,134,359,247,
0,501,451,132,355,244,
0,496,483,131,374,243,
0,558,476,131,370,240,
0,548,471,129,366,239,
0,542,465,133,363,236,
0,536,460,135,359,235,
0,529,455,160,356,233,
0,524,451,159,353,231,
0,518,445,158,349,230,
0,512,440,156,346,227,
0,506,436,156,344,225,
0,501,432,153,376,224,
0,547,428,152,372,222,
0,539,423,151,368,221,
0,532,419,150,365,219,
0,526,415,148,361,217,
0,519,412,147,359,216,
0,515,408,147,355,214,
0,508,403,145,351,212,
0,504,399,143,348,211,
0,497,396,143,366,209,
0,523,457,142,384,207,
0,551,451,141,379,206,
0,543,447,140,376,242,
0,537,441,138,371,239,
0,531,437,137,368,237,
0,524,432,136,365,235,
0,519,428,135,361,233,
0,513,422,135,358,231,
0,507,417,134,354,229,
0,502,414,132,368,227,
0,561,455,131,364,225,
0,554,449,131,360,224,
0,545,444,131,358,222,
0,540,440,130,354,220,
0,533,435,135,351,217,
0,527,431,134,348,216,
0,520,426,133,344,214,
0,515,420,132,341,212,
0,509,415,131,338,211,
0,504,417,130,364,209,
0,531,413,129,359,207,
0,524,408,127,356,206,
0,516,404,127,353,204,
0,510,400,126,350,203,
0,504,396,129,347,201,
0,499,393,127,344,199,
0,494,390,127,340,199,
0,488,385,126,337,196,
0,483,382,125,334,195,
0,480,412,124,366,194,
0,569,408,123,361,192,
0,562,403,122,359,220,
0,553,399,124,355,231,
0,547,394,124,352,230,
0,540,391,123,348,227,
0,534,387,122,345,225,
0,527,383,120,342,224,
0,522,379,120,338,222,
0,516,375,120,335,220,
0,511,432,118,352,218,
0,543,427,118,349,216,
0,536,423,116,345,215,
0,527,418,118,343,212,
0,522,414,141,339,211,
0,515,409,139,336,209,
0,510,405,137,333,207,
0,504,401,136,331,206,
0,499,396,135,327,204,
0,494,391,135,347,203,
0,508,425,134,371,200,
0,555,419,132,368,199,
0,548,415,131,364,221,
0,540,411,130,361,218,
0,534,407,134,358,216,
0,527,403,132,355,215,
0,521,399,131,352,212,
0,515,395,130,348,211,
0,510,390,129,344,209,
0,504,386,127,352,207,
0,537,382,127,348,206,
0,543,379,126,345,204,
0,536,376,127,342,204,
0,528,371,127,339,202,
0,523,368,127,336,200,
0,516,366,126,334,199,
0,511,363,125,331,198,
0,505,359,124,327,196,
0,499,355,123,324,195,
0,494,397,123,370,193,
0,556,419,121,366,192,
0,548,415,120,363,190,
0,540,409,120,359,212,
0,534,406,127,355,210,
0,527,401,128,352,207,
0,521,398,127,349,206,
0,515,393,126,346,204,
0,509,390,125,343,203,
0,504,384,124,339,201,
0,499,455,124,360,199,
0,563,449,122,357,198,
0,556,444,121,354,199,
0,547,439,156,351,213,
0,541,434,154,348,211,
0,535,430,153,344,208,
0,528,425,152,341,207,
0,523,420,150,338,206,
0,517,416,148,335,204,
0,511,411,147,332,201,
0,506,502,147,363,199,
0,547,494,145,359,199,
0,540,488,144,355,199,
0,532,483,143,352,197,
0,526,478,143,349,195,
0,519,472,142,345,194,
0,514,467,140,343,192,
0,508,462,140,339,191,
0,503,457,138,336,189,
0,497,451,137,344,188,
0,501,487,135,372,187,
0,543,480,135,369,185,
0,537,476,134,366,214,
0,529,470,133,361,211,
0,524,464,155,359,209,
0,518,460,153,355,207,
0,512,455,152,352,206,
0,505,449,151,349,204,
0,500,445,150,345,202,
0,495,440,148,375,201,
0,530,539,147,372,199,
0,544,531,146,369,198,
0,538,526,144,366,207,
0,530,519,143,361,205,
0,524,513,148,359,203,
0,518,508,147,355,201,
0,512,502,145,352,199,
0,507,496,144,348,198,
0,500,489,143,345,196,
0,496,526,142,367,195,
0,573,559,141,362,193,
0,565,551,140,359,192,
0,558,545,139,355,192,
0,550,539,137,352,190,
0,543,532,137,349,188,
0,536,526,135,345,186,
0,531,519,135,343,185,
0,525,515,134,339,184,
0,519,507,133,336,183,
0,513,502,131,360,181,
0,536,496,131,357,179,
0,529,491,130,353,179,
0,523,486,130,351,177,
0,515,481,129,347,176,
0,510,476,134,344,175,
0,504,471,132,341,174,
0,499,466,131,337,172,
0,494,462,130,335,171,
0,487,455,129,332,170,
0,483,507,128,377,169,
0,559,499,127,374,167,
0,551,494,126,370,222,
0,545,488,179,366,219,
0,537,483,178,363,217,
0,531,478,176,359,215,
0,525,472,174,356,212,
0,519,467,172,353,211,
0,513,463,172,350,209,
0,508,455,170,347,207,
0,504,465,169,379,206,
0,543,460,167,375,204,
0,536,455,166,371,211,
0,529,450,164,368,209,
0,522,446,163,364,207,
0,515,441,162,360,205,
0,510,437,160,358,204,
0,504,433,159,354,201,
0,499,428,158,352,199,
0,494,423,157,348,199,
0,549,463,156,367,197,
0,550,456,154,363,195,
0,543,451,153,359,207,
0,537,447,152,356,205,
0,529,442,152,353,203,
0,523,438,150,350,201,
0,517,432,149,347,199,
0,511,428,148,344,198,
0,505,423,147,340,196,
0,500,502,146,375,195,
0,539,541,144,376,193,
0,532,534,143,371,192,
0,526,527,143,368,196,
0,519,521,142,365,194,
0,512,515,144,361,193,
0,506,509,143,358,191,
0,500,504,142,355,189,
0,496,498,141,352,188,
0,490,492,140,348,187,
0,485,487,139,388,185,
0,561,481,137,384,184,
0,553,476,136,379,183,
0,547,471,135,376,190,
0,540,466,135,371,188,
0,532,461,142,368,187,
0,526,456,140,365,184,
0,520,451,139,361,183,
0,515,448,138,359,182,
0,509,443,137,355,180,
0,504,562,135,369,179,
0,567,553,135,366,177,
0,559,546,134,363,176,
0,552,540,135,359,175,
0,546,533,134,355,174,
0,537,527,133,352,172,
0,531,521,132,349,171,
0,526,515,131,346,169,
0,519,510,130,344,167,
0,514,504,129,340,167,
0,508,560,128,391,166,
0,558,551,127,387,165,
0,551,545,126,384,165,
0,543,539,137,379,164,
0,537,532,136,376,163,
0,529,526,135,371,161,
0,524,519,134,368,160,
0,518,515,133,366,159,
0,512,508,131,362,159,
0,507,504,131,359,157,
0,548,496,129,382,156,
0,555,491,129,379,155,
0,548,486,129,375,193,
0,542,481,129,371,191,
0,536,476,129,368,189,
0,527,471,128,364,187,
0,521,466,127,361,185,
0,515,462,126,358,184,
0,510,456,125,355,183,
0,504,452,124,369,181,
0,600,448,124,371,179,
0,591,444,123,367,178,
0,583,440,125,364,263,
0,575,435,124,359,260,
0,569,432,129,356,257,
0,560,427,127,353,254,
0,554,423,126,351,252,
0,547,419,125,348,250,
0,542,415,124,344,248,
0,536,412,123,371,246,
0,544,433,122,367,243,
0,537,428,121,364,242,
0,531,423,126,359,247,
0,526,419,124,356,244,
0,519,415,135,353,242,
0,513,411,133,350,240,
0,507,408,131,347,238,
0,502,403,131,344,236,
0,496,399,129,340,233,
0,492,399,129,344,231,
0,567,394,127,339,230,
0,560,391,126,337,276,
0,552,387,139,334,283,
0,546,384,137,331,280,
0,540,380,135,327,278,
0,531,377,135,326,275,
0,526,374,134,323,271,
0,519,371,132,319,270,
0,514,368,131,318,268,
0,508,399,131,359,265,
0,548,393,129,355,263,
0,542,390,127,352,261,
0,536,385,127,348,259,
0,529,382,129,345,256,
0,523,377,135,342,255,
0,515,374,133,339,252,
0,510,371,131,335,249,
0,504,367,131,333,248,
0,499,364,129,330,247,
0,525,412,129,367,244,
0,540,406,127,363,242,
0,533,401,127,359,240,
0,527,397,126,355,239,
0,520,393,130,352,237,
0,515,389,128,349,235,
0,507,385,127,346,232,
0,502,381,126,343,231,
0,496,377,125,339,229,
0,491,374,124,355,227,
0,574,371,123,359,225,
0,565,366,122,354,224,
0,558,363,123,351,231,
0,551,359,122,348,230,
0,545,356,145,344,227,
0,536,353,143,342,225,
0,531,351,142,338,224,
0,524,348,141,335,222,
0,519,344,140,332,220,
0,513,380,139,364,219,
0,575,476,137,359,216,
0,568,470,135,355,231,
0,561,463,135,352,267,
0,555,459,135,349,263,
0,548,454,146,345,262,
0,540,448,145,343,259,
0,534,444,143,339,257,
0,527,440,142,336,255,
0,522,435,141,334,252,
0,516,435,140,370,251,
0,553,431,139,366,248,
0,546,425,137,361,272,
0,540,421,137,358,270,
0,533,417,135,355,268,
0,527,412,135,352,264,
0,519,408,134,348,263,
0,514,404,133,345,259,
0,508,401,131,342,257,
0,503,397,131,339,255,
0,497,396,129,375,253,
0,568,391,128,371,251,
0,560,387,127,366,251,
0,553,384,139,363,248,
0,547,380,138,359,247,
0,540,376,140,355,245,
0,532,373,139,353,243,
0,526,369,137,350,240,
0,520,366,136,347,239,
0,515,363,135,344,236,
0,547,443,135,371,235,
0,582,436,134,368,232,
0,575,431,132,363,276,
0,568,426,131,359,273,
0,561,422,142,356,271,
0,554,417,140,353,268,
0,546,413,139,350,265,
0,540,408,137,347,263,
0,534,404,135,344,261,
0,527,400,135,346,259,
0,543,455,134,364,255,
0,536,448,132,360,255,
0,530,443,133,356,252,
0,524,438,131,353,251,
0,518,433,146,350,248,
0,512,428,145,347,246,
0,505,423,143,344,244,
0,500,419,142,340,241,
0,495,415,141,337,240,
0,489,412,140,369,238,
0,534,420,139,365,236,
0,527,414,137,361,235,
0,521,410,137,358,240,
0,515,406,135,353,238,
0,509,401,145,351,236,
0,504,398,143,348,234,
0,496,394,143,344,231,
0,491,391,141,342,231,
0,486,387,140,338,228,
0,481,423,139,362,227,
0,556,423,137,359,225,
0,550,419,136,355,231,
0,543,414,135,351,230,
0,536,409,135,348,227,
0,530,406,134,344,226,
0,524,401,132,342,224,
0,516,397,131,338,223,
0,511,393,130,335,220,
0,505,390,129,332,219,
0,500,385,128,374,217,
0,521,382,127,370,216,
0,515,377,127,367,242,
0,509,374,126,362,240,
0,503,371,124,359,237,
0,497,367,139,355,235,
0,492,364,137,352,233,
0,486,360,135,349,231,
0,480,358,135,345,229,
0,476,355,134,343,227,
0,505,384,133,374,225,
0,539,379,131,371,224,
0,531,374,140,367,222,
0,526,369,169,363,220,
0,519,366,167,359,217,
0,513,363,166,355,216,
0,508,359,164,352,215,
0,500,355,163,349,212,
0,495,352,161,346,211,
0,489,349,160,359,209,
0,568,440,159,380,207,
0,561,433,158,376,206,
0,555,427,156,373,204,
0,547,423,155,368,203,
0,542,418,154,365,201,
0,536,414,152,361,199,
0,529,409,152,359,199,
0,521,406,150,355,198,
0,515,401,149,352,195,
0,510,398,147,370,195,
0,595,393,147,367,193,
0,587,390,145,363,192,
0,579,385,145,359,190,
0,572,381,143,355,189,
0,566,377,143,352,188,
0,559,374,142,349,186,
0,551,371,140,345,185,
0,543,367,140,343,184,
0,538,364,139,339,182,
0,532,404,137,355,180,
0,564,440,135,351,179,
0,558,435,135,348,222,
0,551,428,135,344,233,
0,543,423,134,340,231,
0,537,419,138,337,229,
0,531,415,137,335,227,
0,526,411,135,332,225,
0,519,407,135,329,223,
0,513,403,133,327,221,
0,511,422,132,352,219,
0,623,417,131,349,217,
0,615,412,130,345,241,
0,607,408,135,342,239,
0,599,403,135,339,236,
0,591,399,159,335,235,
0,584,395,158,332,231,
0,577,391,156,329,231,
0,569,387,155,327,228,
0,563,384,153,324,226,
0,588,418,152,338,224,
0,609,413,151,335,223,
0,601,408,150,332,220,
0,594,403,148,327,219,
0,587,399,158,325,217,
0,579,395,156,322,216,
0,573,391,155,319,214,
0,566,387,153,317,212,
0,558,384,152,315,210,
0,551,380,151,323,208,
0,612,376,150,344,207,
0,611,372,148,342,205,
0,603,369,156,338,208,
0,595,364,169,334,206,
0,588,361,167,331,205,
0,580,358,167,327,203,
0,574,355,165,326,201,
0,568,352,164,322,199,
0,559,349,163,319,198,
0,553,411,161,356,196,
0,638,496,159,353,195,
0,629,489,158,350,193,
0,621,483,157,346,193,
0,614,476,156,342,192,
0,606,472,155,339,190,
0,598,466,153,335,188,
0,591,461,152,333,187,
0,583,455,152,331,185,
0,575,451,150,327,184,
0,569,447,148,366,183,
0,596,442,147,362,182,
0,589,438,147,359,190,
0,582,433,147,355,199,
0,575,428,146,351,198,
0,568,423,145,348,196,
0,561,419,144,344,195,
0,555,415,143,342,193,
0,549,412,142,339,192,
0,542,408,140,335,190,
0,536,403,140,371,188,
0,591,399,139,368,187,
0,583,396,137,364,231,
0,577,391,156,360,228,
0,570,387,153,357,226,
0,563,384,153,353,224,
0,557,381,152,350,222,
0,551,377,152,347,220,
0,543,374,150,344,218,
0,536,371,148,341,216,
0,560,368,147,352,214,
0,598,364,146,348,212,
0,591,361,145,345,267,
0,583,358,152,342,263,
0,575,354,159,338,262,
0,569,352,157,335,259,
0,563,348,155,332,257,
0,556,345,154,329,255,
0,550,342,152,327,252,
0,542,339,152,329,249,
0,595,387,150,352,248,
0,591,384,148,348,246,
0,583,379,155,344,248,
0,577,375,153,341,246,
0,569,370,155,337,243,
0,563,367,153,335,241,
0,556,363,152,332,240,
0,550,359,151,327,238,
0,542,355,150,326,236,
0,536,353,148,364,233,
0,592,350,147,363,231,
0,584,346,145,359,230,
0,577,343,144,356,227,
0,571,339,143,352,226,
0,563,336,143,348,224,
0,557,334,142,345,223,
0,551,331,140,342,220,
0,543,327,139,339,219,
0,536,326,138,335,217,
0,531,413,136,350,216,
0,585,428,135,347,214,
0,577,423,135,343,211,
0,571,418,134,339,210,
0,563,414,132,336,209,
0,557,408,134,333,207,
0,551,404,132,330,206,
0,543,399,131,327,204,
0,537,396,131,324,203,
0,530,391,129,321,201,
0,525,402,128,353,199,
0,606,398,127,350,198,
0,598,393,127,347,199,
0,590,390,127,343,197,
0,583,385,126,339,195,
0,575,380,125,335,194,
0,569,377,124,333,192,
0,563,374,123,330,192,
0,556,370,122,327,190,
0,547,367,121,324,189,
0,551,472,120,353,187,
0,583,466,120,350,185,
0,575,461,119,347,187,
0,568,455,121,344,185,
0,561,451,120,340,184,
0,555,444,120,336,183,
0,548,440,119,334,182,
0,543,435,118,331,180,
0,536,431,116,327,179,
0,529,426,115,326,178,
0,594,476,115,354,176,
0,594,471,114,351,175,
0,587,465,116,348,207,
0,579,460,120,344,206,
0,572,454,126,341,204,
0,566,449,124,337,201,
0,559,444,124,335,199,
0,552,440,123,332,199,
0,546,435,121,327,197,
0,539,431,120,382,195,
0,596,427,120,387,193,
0,588,422,118,383,220,
0,582,418,118,379,294,
0,574,414,117,376,290,
0,568,408,131,371,287,
0,560,404,129,368,284,
0,554,400,128,364,282,
0,547,397,127,360,280,
0,541,393,126,358,277,
0,534,390,125,356,275,
0,598,386,124,352,271,
0,591,383,123,350,270,
0,583,379,124,347,268,
0,575,376,123,344,265,
0,569,371,132,340,263,
0,563,368,131,337,261,
0,556,365,130,334,259,
0,550,361,129,332,257,
0,543,359,127,328,255,
0,536,438,127,358,253,
0,608,447,126,353,250,
0,600,441,124,351,248,
0,591,437,129,347,246,
0,584,432,128,344,244,
0,577,427,131,340,242,
0,571,422,131,337,240,
0,564,417,129,334,239,
0,558,414,127,331,237,
0,551,409,127,327,235,
0,550,406,126,355,233,
0,588,401,125,352,231,
0,580,398,124,348,230,
0,574,393,126,345,227,
0,567,390,138,342,226,
0,560,385,135,339,224,
0,553,382,135,335,223,
0,547,378,134,332,221,
0,541,375,133,328,220,
0,535,371,131,327,218,
0,603,451,131,358,216,
0,604,446,129,353,214,
0,596,440,135,351,239,
0,589,435,135,348,236,
0,582,432,134,344,235,
0,575,425,132,341,231,
0,568,421,131,337,231,
0,561,417,130,334,228,
0,555,412,129,331,227,
0,548,408,127,364,225,
0,608,404,127,369,223,
0,600,400,126,366,220,
0,591,396,128,361,227,
0,583,392,127,359,225,
0,577,389,127,355,224,
0,570,384,127,352,222,
0,563,381,125,348,220,
0,557,377,124,344,218,
0,551,374,124,342,216,
0,544,371,123,359,215,
0,584,367,121,356,213,
0,577,364,120,353,235,
0,570,360,127,350,255,
0,563,358,127,346,253,
0,556,354,130,344,251,
0,551,351,129,339,248,
0,543,348,127,336,247,
0,537,344,127,334,244,
0,531,342,126,331,242,
0,526,339,124,358,240,
0,571,335,124,354,238,
0,563,333,123,351,236,
0,556,331,124,347,234,
0,550,327,123,344,231,
0,543,326,129,340,231,
0,536,322,127,337,228,
0,531,319,127,334,227,
0,525,317,126,331,225,
0,519,315,125,327,223,
0,515,354,124,358,221,
0,587,350,123,353,220,
0,579,346,121,350,217,
0,572,343,121,347,216,
0,566,339,124,344,215,
0,559,335,124,340,212,
0,552,332,124,337,211,
0,545,329,122,334,209,
0,540,326,121,331,207,
0,534,323,120,327,207,
0,527,342,120,356,205,
0,590,339,118,353,204,
0,583,335,118,350,231,
0,575,332,116,347,229,
0,568,327,133,344,227,
0,562,326,131,340,225,
0,556,321,131,335,223,
0,548,319,129,333,222,
0,543,316,127,330,220,
0,536,313,127,348,217,
0,563,322,126,355,216,
0,563,319,125,352,214,
0,556,316,124,348,215,
0,549,313,123,345,213,
0,543,311,122,342,211,
0,536,308,121,339,209,
0,531,305,120,335,207,
0,524,303,120,332,206,
0,519,300,119,329,204,
0,513,354,118,366,204,
0,579,488,116,361,201,
0,569,483,115,358,207,
0,563,476,125,355,221,
0,556,472,124,352,219,
0,549,466,126,348,217,
0,543,461,125,345,216,
0,536,455,124,341,214,
0,530,450,123,337,211,
0,524,445,121,335,209,
0,519,440,120,368,208,
0,573,435,120,364,207,
0,563,432,118,361,210,
0,557,428,123,358,207,
0,551,423,121,354,206,
0,543,419,147,351,204,
0,537,415,145,348,203,
0,531,409,144,344,201,
0,525,406,143,340,199,
0,519,401,142,337,198,
0,514,399,140,364,196,
0,569,396,140,359,195,
0,560,392,138,357,199,
0,553,389,137,353,199,
0,547,385,139,351,197,
0,540,382,142,347,195,
0,535,379,141,344,194,
0,527,374,140,340,192,
0,522,371,139,337,191,
0,516,368,137,335,190,
0,511,492,135,373,188,
0,579,484,135,369,187,
0,571,480,134,366,262,
0,563,473,133,362,259,
0,556,468,133,359,257,
0,550,463,131,355,255,
0,543,458,131,352,252,
0,537,451,129,348,250,
0,531,448,128,345,248,
0,525,443,127,355,246,
0,549,439,127,355,243,
0,560,433,126,352,241,
0,553,430,127,348,245,
0,547,425,127,344,243,
0,541,421,126,342,241,
0,535,417,125,339,239,
0,527,413,124,335,237,
0,522,408,123,332,235,
0,516,404,122,329,233,
0,511,403,121,356,231,
0,555,414,120,352,230,
0,547,409,120,350,227,
0,540,405,120,346,249,
0,534,401,119,343,247,
0,527,397,135,339,244,
0,521,393,135,336,243,
0,515,390,134,334,240,
0,510,385,132,329,239,
0,504,382,131,327,236,
0,499,379,131,380,235,
0,571,375,129,376,231,
0,561,371,127,372,231,
0,554,368,127,369,228,
0,547,365,127,365,227,
0,541,361,133,361,225,
0,535,359,132,359,223,
0,528,355,131,355,221,
0,523,352,129,352,220,
0,516,349,128,348,217,
0,511,348,127,350,216,
0,575,345,127,347,215,
0,566,343,125,344,268,
0,559,339,131,340,308,
0,552,336,134,337,305,
0,546,334,145,335,303,
0,540,331,144,332,300,
0,534,327,143,329,297,
0,527,325,142,326,295,
0,521,323,140,323,292,
0,516,376,140,354,289,
0,566,371,138,351,287,
0,556,368,137,348,285,
0,550,364,173,344,281,
0,543,359,172,341,280,
0,536,357,170,337,277,
0,531,353,167,335,275,
0,525,350,167,332,273,
0,519,346,166,327,271,
0,513,344,164,342,268,
0,527,369,163,353,266,
0,544,366,161,351,263,
0,536,362,160,347,263,
0,529,359,159,344,259,
0,524,355,164,340,257,
0,518,352,163,337,255,
0,512,348,161,335,254,
0,506,344,160,332,252,
0,501,340,159,327,249,
0,496,401,158,358,248,
0,566,438,157,354,246,
0,563,433,156,351,243,
0,555,428,155,348,246,
0,547,423,152,344,243,
0,542,419,153,340,241,
0,536,415,152,338,240,
0,529,411,151,335,238,
0,523,406,150,332,236,
0,517,401,148,327,234,
0,512,398,147,353,232,
0,566,393,146,349,231,
0,558,390,145,345,229,
0,550,387,143,343,227,
0,543,383,143,339,225,
0,536,379,142,336,224,
0,530,376,141,334,222,
0,524,371,140,331,220,
0,519,368,139,327,219,
0,512,364,137,323,217,
0,508,499,137,358,216,
0,559,508,135,353,214,
0,551,503,135,351,233,
0,543,496,140,348,234,
0,536,491,138,344,231,
0,531,486,156,340,230,
0,524,480,153,337,227,
0,519,475,152,335,225,
0,513,468,152,332,224,
0,507,463,150,327,222,
0,502,459,148,361,220,
0,569,454,147,358,218,
0,561,449,146,354,216,
0,553,445,152,351,215,
0,547,440,153,348,212,
0,540,436,152,344,211,
0,534,432,152,342,209,
0,527,428,150,338,207,
0,521,422,148,335,207,
0,515,419,147,341,205,
0,531,415,146,348,204,
0,553,410,145,344,201,
0,546,407,143,342,230,
0,538,403,143,338,227,
0,531,399,142,335,225,
0,526,396,140,332,224,
0,519,391,139,329,222,
0,513,388,138,327,220,
0,508,384,137,323,218,
0,503,380,135,361,216,
0,559,391,135,358,215,
0,563,387,134,355,212,
0,556,384,132,352,213,
0,547,380,131,348,211,
0,540,376,132,344,209,
0,534,372,131,342,207,
0,527,369,131,339,206,
0,521,366,129,335,204,
0,516,363,129,332,203,
0,511,394,127,348,200,
0,551,390,127,345,199,
0,544,385,126,342,198,
0,538,382,125,339,201,
0,530,377,124,335,199,
0,524,374,125,332,197,
0,518,370,124,329,196,
0,512,367,123,327,195,
0,507,363,122,323,193,
0,501,359,121,319,192,
0,496,355,120,355,191,
0,551,352,120,351,189,
0,545,350,119,348,223,
0,538,347,118,344,231,
0,530,344,125,341,230,
0,524,341,149,337,227,
0,518,339,147,335,225,
0,512,335,147,332,224,
0,507,332,145,328,222,
0,500,329,143,325,220,
0,496,327,143,364,218,
0,557,323,142,359,216,
0,550,321,140,356,215,
0,543,319,139,353,212,
0,536,316,160,350,211,
0,529,313,159,347,209,
0,523,312,157,344,207,
0,517,309,156,340,206,
0,511,307,155,337,204,
0,505,304,153,340,203,
0,520,302,152,349,201,
0,559,300,151,345,199,
0,551,297,150,343,199,
0,545,295,148,339,198,
0,537,294,147,335,195,
0,531,291,146,333,194,
0,524,289,145,330,192,
0,519,287,143,327,191,
0,513,284,143,324,190,
0,508,337,142,358,188,
0,574,392,140,354,187,
0,568,388,139,351,185,
0,561,384,172,348,215,
0,555,380,169,344,212,
0,546,376,167,341,210,
0,540,372,167,337,207,
0,534,369,165,335,207,
0,527,366,163,332,204,
0,521,361,162,329,203,
0,515,358,161,387,201,
0,557,355,159,383,199,
0,550,352,159,379,198,
0,543,348,161,376,219,
0,537,344,159,371,216,
0,529,342,158,368,214,
0,523,339,156,364,212,
0,517,335,156,361,211,
0,511,332,154,358,208,
0,505,329,153,355,207,
0,500,376,152,371,205,
0,559,371,151,367,203,
0,551,368,150,364,202,
0,545,364,188,359,204,
0,539,359,186,357,202,
0,531,356,184,353,199,
0,524,353,182,351,199,
0,519,350,181,348,196,
0,513,347,179,344,195,
0,507,344,178,342,194,
0,502,383,176,355,192,
0,572,377,175,352,191,
0,566,374,174,348,191,
0,559,370,172,344,189,
0,551,367,171,342,188,
0,543,363,169,339,185,
0,537,359,167,335,184,
0,531,355,167,333,183,
0,525,352,166,330,182,
0,519,349,164,327,180,
0,519,401,163,347,179,
0,568,396,162,344,178,
0,560,392,163,340,178,
0,553,388,166,337,176,
0,545,384,164,334,175,
0,539,380,163,332,174,
0,532,376,161,327,172,
0,527,373,159,326,172,
0,520,369,159,323,171,
0,515,366,158,320,169,
0,568,412,156,344,167,
0,574,408,155,341,167,
0,568,403,154,337,207,
0,560,399,154,335,205,
0,551,395,193,332,204,
0,545,391,190,328,201,
0,539,387,188,326,199,
0,532,384,187,323,198,
0,527,380,184,319,196,
0,521,399,184,353,195,
0,628,470,182,355,193,
0,619,463,180,351,192,
0,611,459,179,348,190,
0,603,454,177,344,188,
0,593,449,177,342,187,
0,587,444,175,338,185,
0,579,440,174,335,184,
0,573,435,172,332,183,
0,567,430,172,329,181,
0,560,427,169,352,179,
0,555,420,168,348,178,
0,548,416,167,344,191,
0,543,412,171,340,217,
0,536,408,169,337,215,
0,529,403,167,335,213,
0,523,400,167,332,211,
0,518,396,166,327,209,
0,512,392,164,326,207,
0,507,389,163,323,205,
0,502,395,161,347,204,
0,555,389,160,343,201,
0,548,385,159,339,228,
0,542,382,158,336,225,
0,536,378,157,333,224,
0,527,376,176,330,221,
0,521,371,175,327,219,
0,515,368,173,324,217,
0,510,365,172,321,216,
0,504,361,170,319,214,
0,499,359,169,352,211,
0,537,355,167,348,210,
0,531,352,170,344,208,
0,524,349,195,341,207,
0,518,347,193,337,205,
0,511,344,192,335,204,
0,504,340,190,332,201,
0,499,337,188,327,199,
0,494,335,187,326,198,
0,489,332,185,323,196,
0,538,361,184,336,195,
0,557,358,182,332,193,
0,551,354,180,329,204,
0,543,351,179,327,203,
0,537,348,182,323,201,
0,529,344,179,321,199,
0,524,340,177,319,197,
0,518,337,176,316,195,
0,512,335,175,313,194,
0,507,361,174,345,192,
0,560,433,172,356,191,
0,551,428,171,352,189,
0,545,423,195,348,244,
0,539,419,193,345,241,
0,532,415,192,342,240,
0,524,411,190,339,238,
0,519,407,188,335,235,
0,513,402,187,332,233,
0,507,398,185,329,231,
0,502,428,184,368,229,
0,566,447,182,364,227,
0,558,441,181,359,225,
0,551,436,185,355,225,
0,544,432,184,352,224,
0,539,428,217,350,222,
0,531,423,215,346,220,
0,524,419,213,343,217,
0,519,415,211,339,216,
0,513,411,209,337,214,
0,508,408,207,367,212,
0,575,402,206,363,211,
0,568,399,204,359,277,
0,560,395,203,355,280,
0,553,391,201,352,278,
0,547,387,199,348,275,
0,539,384,198,345,272,
0,532,380,196,343,270,
0,527,376,195,339,267,
0,520,373,193,336,265,
0,515,415,192,371,263,
0,555,408,190,368,260,
0,547,404,188,364,259,
0,541,399,187,359,255,
0,535,396,185,356,254,
0,528,391,184,353,252,
0,521,388,183,351,250,
0,515,384,182,348,248,
0,510,380,180,344,246,
0,504,377,179,341,243,
0,555,376,177,365,241,
0,584,371,176,361,240,
0,577,367,175,357,238,
0,571,364,177,353,236,
0,563,360,217,350,235,
0,557,358,216,348,232,
0,548,376,212,344,231,
0,542,505,211,341,228,
0,536,499,209,338,227,
0,530,492,207,344,225,
0,565,487,206,355,224,
0,558,480,204,350,222,
0,551,475,202,347,231,
0,544,470,200,344,230,
0,538,464,199,340,228,
0,531,460,198,337,226,
0,524,455,195,335,224,
0,519,451,194,332,222,
0,513,446,192,329,220,
0,508,441,192,359,219,
0,579,437,190,355,217,
0,572,432,188,351,217,
0,565,428,255,348,241,
0,558,423,252,344,240,
0,551,419,249,341,238,
0,545,415,248,338,236,
0,537,411,246,335,233,
0,531,502,243,332,231,
0,525,496,241,329,229,
0,519,489,239,367,227,
0,563,483,237,363,225,
0,556,477,236,359,227,
0,550,472,257,355,224,
0,543,467,281,352,223,
0,536,462,279,348,221,
0,531,457,275,345,219,
0,523,452,272,342,217,
0,518,448,271,339,216,
0,511,443,268,336,214,
0,508,439,266,359,212,
0,583,434,263,355,210,
0,575,429,262,352,213,
0,568,424,259,348,211,
0,561,420,257,344,209,
0,555,416,255,342,207,
0,548,412,254,339,206,
0,540,408,252,335,204,
0,535,505,249,332,203,
0,527,567,248,329,201,
0,537,559,246,365,199,
0,557,551,243,361,199,
0,550,543,241,358,239,
0,543,537,240,354,236,
0,536,531,238,351,234,
0,531,525,236,348,231,
0,524,519,235,344,230,
0,518,513,231,341,227,
0,511,508,231,338,226,
0,506,503,229,351,224,
0,572,575,227,354,222,
0,563,568,225,351,220,
0,556,559,224,347,279,
0,550,551,316,344,275,
0,543,545,312,340,273,
0,536,539,310,337,271,
0,531,532,307,334,268,
0,523,527,304,331,265,
0,518,520,301,327,263,
0,512,515,298,370,261,
0,615,510,295,366,259,
0,606,504,294,363,255,
0,598,497,291,359,255,
0,591,492,288,355,252,
0,583,487,286,352,251,
0,576,482,284,348,248,
0,570,477,281,345,247,
0,561,618,279,343,243,
0,556,608,276,339,241,
0,550,601,275,364,240,
0,606,593,272,359,238,
0,598,585,287,358,236,
0,591,577,359,353,235,
0,583,571,355,350,232,
0,576,563,352,347,231,
0,569,557,349,344,230,
0,563,551,345,340,227,
0,555,544,342,337,225,
0,549,539,339,335,224,
0,543,754,335,384,222,
0,646,772,333,380,220,
0,636,760,330,376,219,
0,628,745,327,371,216,
0,620,735,325,368,216,
0,612,724,322,365,214,
0,606,715,319,361,211,
0,596,704,317,359,210,
0,589,695,313,355,208,
0,583,686,312,352,207,
0,575,677,308,368,205,
0,573,668,306,364,204,
0,567,660,304,360,234,
0,560,649,304,356,231,
0,554,641,302,353,230,
0,547,633,300,350,227,
0,542,626,297,347,226,
0,535,619,295,344,224,
0,528,611,291,341,222,
0,524,604,290,354,220,
0,575,598,287,364,217,
0,574,591,286,359,216,
0,568,583,284,356,244,
0,560,575,387,352,242,
0,553,569,382,349,240,
0,547,563,378,345,238,
0,541,558,375,343,236,
0,533,551,371,339,234,
0,527,545,367,337,231,
0,521,540,364,359,230,
0,524,535,359,355,227,
0,518,528,357,352,227,
0,512,524,354,348,270,
0,507,516,351,344,267,
0,501,511,348,341,264,
0,496,507,345,338,263,
0,492,502,342,335,259,
0,485,496,339,332,257,
0,480,492,335,329,255,
0,476,488,334,376,253,
0,572,487,331,371,251,
0,563,483,327,368,248,
0,558,478,406,364,247,
0,551,472,456,359,245,
0,543,467,489,356,243,
0,537,463,483,353,241,
0,531,459,478,351,239,
0,524,455,473,348,237,
0,518,451,467,344,235,
0,513,447,463,364,233,
0,579,443,457,359,231,
0,572,439,454,356,233,
0,564,434,449,353,231,
0,558,430,445,349,230,
0,551,427,440,346,227,
0,544,423,437,344,225,
0,538,419,433,340,224,
0,531,415,429,337,222,
0,524,555,424,334,220,
0,525,547,420,371,218,
0,556,540,417,368,216,
0,548,534,414,364,244,
0,542,526,492,359,242,
0,536,519,567,356,240,
0,529,513,560,353,238,
0,524,508,552,350,236,
0,518,502,547,347,233,
0,511,497,540,344,231,
0,505,492,534,347,230,
0,556,486,527,364,227,
0,551,481,522,360,225,
0,545,476,517,358,246,
0,539,470,512,354,243,
0,532,465,507,350,241,
0,526,460,502,347,240,
0,519,455,497,344,237,
0,514,451,492,340,236,
0,507,447,487,337,233,
0,502,442,482,376,231,
0,507,438,478,374,229,
0,501,433,473,369,227,
0,496,430,568,366,227,
0,490,423,561,363,225,
0,486,420,555,358,224,
0,480,416,548,355,222,
0,476,412,542,352,220,
0,472,409,536,348,219,
0,465,406,529,345,216,
0,461,428,524,375,215,
0,524,427,519,371,213,
0,518,422,513,367,233,
0,512,417,508,364,252,
0,506,412,503,359,249,
0,500,408,498,355,248,
0,495,403,494,352,244,
0,489,399,488,350,243,
0,484,396,484,347,240,
0,478,393,479,344,239,
0,472,390,474,364,236,
0,531,387,470,360,235,
0,526,384,465,358,286,
0,519,380,461,353,281,
0,513,376,457,351,280,
0,508,374,453,347,276,
0,502,370,449,344,274,
0,496,367,445,340,271,
0,491,364,441,337,270,
0,484,361,436,335,267,
0,480,359,433,361,263,
0,483,356,429,358,262,
0,477,353,425,355,288,
0,472,351,422,352,286,
0,467,348,419,348,283,
0,463,344,415,344,280,
0,457,342,412,341,278,
0,454,339,408,338,275,
0,449,336,405,335,273,
0,444,334,401,335,271,
0,519,332,398,350,268,
0,527,329,395,347,265,
0,520,327,391,344,263,
0,514,324,388,339,262,
0,508,321,476,335,259,
0,503,319,528,333,257,
0,497,316,523,331,255,
0,492,315,516,327,253,
0,487,312,511,324,252,
0,480,310,504,367,249,
0,524,307,499,370,247,
0,517,305,494,366,245,
0,511,303,489,363,243,
0,505,300,487,359,241,
0,499,299,560,355,239,
0,494,295,553,352,237,
0,488,294,547,349,236,
0,483,291,541,345,233,
0,478,290,535,343,231,
0,472,287,527,354,230,
0,513,286,523,351,227,
0,507,284,517,347,226,
0,500,281,512,344,230,
0,495,280,507,340,228,
0,489,278,502,337,226,
0,484,275,497,334,224,
0,479,273,492,331,223,
0,473,271,487,327,221,
0,468,270,483,326,220,
0,463,304,477,353,217,
0,500,300,472,350,216,
0,495,297,467,347,225,
0,489,295,463,344,224,
0,483,291,464,340,222,
0,478,288,460,336,220,
0,473,286,455,334,217,
0,467,284,451,331,216,
0,463,280,448,327,214,
0,459,279,444,324,212,
0,452,282,439,358,210,
0,449,280,435,354,209,
0,446,276,431,351,253,
0,441,274,427,348,250,
0,437,271,423,344,248,
0,433,269,420,340,246,
0,429,267,416,337,243,
0,425,265,413,334,241,
0,422,263,409,331,239,
0,418,262,407,328,238,
0,504,330,419,334,235,
0,556,326,491,331,233,
0,548,323,486,327,246,
0,542,319,480,326,243,
0,536,316,476,323,240,
0,529,313,471,319,239,
0,524,310,465,316,237,
0,518,307,461,313,235,
0,512,304,456,312,232,
0,506,339,452,324,231,
0,519,385,448,327,228,
0,513,381,443,324,227,
0,507,377,439,321,289,
0,502,373,435,319,287,
0,496,369,431,316,284,
0,491,364,427,312,281,
0,486,361,423,310,279,
0,480,358,419,307,276,
0,476,354,415,304,274,
0,471,446,412,331,271,
0,473,459,579,327,269,
0,467,453,571,323,275,
0,463,448,563,321,299,
0,458,443,557,318,295,
0,454,439,551,315,292,
0,449,432,545,312,290,
0,444,428,540,308,287,
0,440,423,534,307,285,
0,436,419,527,304,283,
0,432,559,523,342,280,
0,521,616,516,337,278,
0,515,608,511,335,275,
0,509,600,535,332,272,
0,504,591,529,327,271,
0,497,584,523,326,268,
0,492,575,518,322,266,
0,487,569,512,319,263,
0,481,563,507,316,262,
0,476,556,502,313,260,
0,471,630,497,345,258,
0,513,620,491,342,255,
0,508,611,487,339,254,
0,502,604,482,335,252,
0,496,596,478,332,249,
0,491,589,473,329,248,
0,486,579,468,326,246,
0,480,573,464,323,243,
0,475,567,460,319,242,
0,470,560,455,319,240,
0,463,553,452,345,239,
0,459,547,448,342,236,
0,455,541,444,339,240,
0,449,536,440,335,238,
0,445,529,435,332,236,
0,441,524,432,329,233,
0,436,516,500,326,231,
0,432,511,561,323,231,
0,428,505,555,319,228,
0,423,532,549,348,227,
0,541,625,543,347,225,
0,534,616,536,343,224,
0,527,609,529,339,222,
0,520,601,524,336,220,
0,515,593,519,334,219,
0,508,586,513,331,216,
0,504,577,596,327,216,
0,497,571,646,324,214,
0,492,563,638,321,211,
0,487,558,630,339,211,
0,481,551,622,335,209,
0,476,545,613,332,216,
0,472,539,606,329,243,
0,466,532,600,327,241,
0,461,527,687,323,239,
0,456,521,677,321,236,
0,452,514,668,318,235,
0,448,508,660,315,231,
0,444,504,652,312,231,
0,440,499,644,337,228,
0,463,494,637,333,227,
0,457,487,627,330,224,
0,452,483,620,327,223,
0,448,479,614,324,221,
0,443,474,796,321,219,
0,439,468,783,318,217,
0,434,463,771,315,216,
0,430,459,761,312,214,
0,425,455,751,310,212,
0,423,524,761,352,211,
0,556,516,833,347,209,
0,550,510,818,344,234,
0,543,504,806,340,231,
0,536,499,793,337,230,
0,530,493,825,334,227,
0,524,486,812,332,226,
0,518,481,800,327,224,
0,512,476,790,325,222,
0,507,471,779,323,220,
0,502,582,768,355,219,
0,495,575,758,352,216,
0,489,568,745,348,216,
0,484,560,736,344,215,
0,480,553,727,342,212,
0,475,547,718,338,211,
0,470,539,709,335,209,
0,464,532,700,332,207,
0,460,527,692,328,206,
0,455,521,684,335,204,
0,473,515,676,334,203,
0,467,510,668,331,201,
0,463,504,886,327,201,
0,457,499,904,324,199,
0,452,493,891,321,199,
0,448,487,876,319,197,
0,444,481,862,316,195,
0,440,476,849,313,194,
0,435,472,836,311,193,
0,432,468,825,335,192,
0,524,484,813,331,190,
0,519,479,799,327,189,
0,513,473,788,324,188,
0,508,468,902,322,188,
0,502,463,910,319,185,
0,496,459,915,316,184,
0,491,453,918,313,184,
0,486,449,920,310,182,
0,480,444,916,307,180,
0,475,444,895,345,179,
0,496,440,877,342,178,
0,487,435,861,338,177,
0,483,431,848,335,176,
0,477,427,836,332,175,
0,472,423,824,328,174,
0,467,419,813,326,172,
0,462,415,802,323,171,
0,457,411,792,319,169,
0,453,408,781,317,168,
0,449,468,771,339,167,
0,481,463,761,335,167,
0,475,457,894,332,211,
0,469,452,908,329,223,
0,463,448,913,327,220,
0,459,442,913,323,219,
0,454,438,894,319,216,
0,449,432,877,318,215,
0,445,428,864,315,213,
0,440,423,851,312,211,
0,436,419,839,348,209,
0,535,415,903,344,207,
0,526,411,912,342,227,
0,519,407,913,338,224,
0,513,403,899,335,222,
0,508,399,880,332,220,
0,502,396,866,329,218,
0,496,391,854,326,216,
0,491,388,866,323,215,
0,486,385,877,344,212,
0,481,425,863,348,211,
0,480,420,849,345,209,
0,473,415,833,342,246,
0,468,412,822,339,243,
0,463,408,810,335,240,
0,459,403,799,332,238,
0,455,399,788,329,236,
0,450,394,778,326,235,
0,446,391,768,323,231,
0,441,393,759,359,230,
0,481,407,748,356,228,
0,476,402,739,352,227,
0,468,398,728,349,225,
0,463,393,719,346,222,
0,459,390,711,343,220,
0,454,386,703,339,219,
0,448,383,694,337,217,
0,444,378,686,333,216,
0,440,375,679,330,214,
0,435,372,671,345,212,
0,499,368,664,342,210,
0,493,366,655,339,208,
0,486,363,647,335,224,
0,480,359,639,332,222,
0,476,356,633,329,220,
0,470,354,627,327,218,
0,465,351,620,323,216,
0,460,348,614,319,215,
0,455,344,608,318,212,
0,451,352,602,350,211,
0,508,348,595,345,209,
0,502,345,590,343,218,
0,494,342,583,339,216,
0,487,339,613,335,214,
0,483,336,615,333,211,
0,478,334,608,330,210,
0,472,332,600,327,208,
0,467,327,593,323,207,
0,463,326,587,321,205,
0,458,384,580,348,204,
0,563,380,574,344,201,
0,556,376,568,342,202,
0,547,371,561,338,199,
0,540,368,556,335,199,
0,535,364,551,332,197,
0,527,361,545,329,195,
0,523,358,540,326,194,
0,516,353,536,323,193,
0,511,350,531,348,192,
0,519,419,526,366,190,
0,543,415,521,361,188,
0,536,410,516,358,188,
0,527,406,511,355,185,
0,522,401,585,352,184,
0,516,397,612,348,183,
0,511,393,604,345,182,
0,505,390,598,342,180,
0,499,384,590,339,179,
0,494,433,583,348,177,
0,519,470,576,344,176,
0,515,463,571,342,175,
0,509,459,564,338,233,
0,502,453,556,335,230,
0,496,448,551,332,228,
0,491,444,543,329,226,
0,486,439,539,327,224,
0,480,434,533,323,222,
0,476,428,527,319,220,
0,471,440,523,335,219,
0,504,435,517,331,216,
0,497,430,611,327,215,
0,492,425,851,324,213,
0,484,421,869,321,211,
0,479,417,855,319,209,
0,473,412,841,316,207,
0,469,408,829,313,206,
0,463,404,817,312,204,
0,460,399,806,308,203,
0,455,476,795,341,201,
0,526,470,783,337,199,
0,519,464,772,335,243,
0,512,460,763,332,262,
0,505,455,750,327,259,
0,500,449,740,326,255,
0,495,444,731,323,254,
0,489,440,722,319,252,
0,483,435,713,317,249,
0,479,430,704,313,248,
0,473,425,696,343,245,
0,468,422,688,339,243,
0,463,417,679,335,243,
0,457,412,671,333,241,
0,454,409,790,330,239,
0,449,405,872,327,236,
0,444,401,858,324,235,
0,440,397,845,321,233,
0,436,393,831,318,231,
0,432,388,820,339,230,
0,433,418,808,362,227,
0,438,414,797,359,225,
0,432,409,786,355,224,
0,428,404,859,352,222,
0,423,400,840,348,220,
0,419,396,828,345,219,
0,415,391,816,342,216,
0,412,388,803,339,215,
0,408,385,792,335,214,
0,405,387,782,340,212,
0,536,511,899,337,210,
0,550,504,891,334,208,
0,543,498,876,331,243,
0,535,492,862,327,241,
0,528,487,846,325,238,
0,523,481,833,323,236,
0,516,476,822,319,234,
0,511,471,809,317,231,
0,505,465,798,315,231,
0,499,460,787,340,228,
0,495,455,777,337,227,
0,489,450,768,334,224,
0,484,446,756,331,262,
0,478,441,747,327,259,
0,473,437,736,325,255,
0,468,432,726,322,254,
0,463,428,717,319,252,
0,459,423,708,316,249,
0,454,419,700,313,248,
0,451,462,692,350,246,
0,578,455,684,346,243,
0,570,451,675,343,241,
0,563,446,668,339,240,
0,554,440,660,336,238,
0,547,435,652,334,235,
0,542,432,644,331,233,
0,536,427,638,327,231,
0,529,423,631,324,230,
0,524,417,624,322,227,
0,518,487,617,329,226,
0,554,481,611,327,224,
0,547,476,605,323,223,
0,540,470,599,321,221,
0,532,464,592,318,220,
0,527,460,585,316,217,
0,520,455,579,312,216,
0,515,449,574,310,214,
0,509,445,568,307,212,
0,504,440,563,305,211,
0,499,499,557,339,209,
0,494,492,551,336,207,
0,488,487,547,333,225,
0,483,481,542,329,223,
0,477,476,536,327,221,
0,472,471,530,323,219,
0,467,465,525,321,216,
0,463,460,519,318,215,
0,459,455,515,316,212,
0,454,449,511,319,211,
0,499,446,507,352,209,
0,509,440,547,348,207,
0,504,436,768,344,206,
0,497,432,804,341,204,
0,491,428,789,337,203,
0,486,423,778,335,201,
0,480,419,767,332,199,
0,475,415,756,329,198,
0,470,411,746,326,197,
0,465,480,737,352,195,
0,591,542,728,348,194,
0,582,536,718,345,192,
0,575,528,708,342,229,
0,568,521,700,339,227,
0,559,516,689,335,225,
0,551,510,680,332,223,
0,546,504,672,329,221,
0,540,499,664,327,219,
0,534,494,657,323,217,
0,527,555,649,347,216,
0,548,547,643,343,214,
0,542,540,635,339,211,
0,536,533,628,336,209,
0,528,527,621,333,207,
0,521,520,613,330,207,
0,515,515,607,327,204,
0,511,510,771,324,203,
0,504,504,759,321,201,
0,499,497,748,319,199,
0,495,492,738,383,198,
0,604,486,728,377,196,
0,595,481,718,374,198,
0,588,476,709,369,196,
0,581,471,700,367,195,
0,572,466,689,363,193,
0,566,462,680,359,192,
0,559,456,671,356,190,
0,552,452,664,353,188,
0,547,448,656,350,188,
0,540,443,673,348,186,
0,535,438,670,345,184,
0,528,433,662,343,249,
0,523,430,653,339,247,
0,518,425,646,336,243,
0,511,422,636,334,241,
0,505,417,628,331,239,
0,499,414,622,327,237,
0,495,409,615,326,235,
0,489,406,608,324,233,
0,485,406,601,347,231,
0,480,401,595,344,230,
0,476,398,589,340,243,
0,471,395,583,337,240,
0,465,391,577,335,239,
0,460,387,569,332,236,
0,455,384,564,327,233,
0,451,381,559,326,231,
0,448,377,553,323,230,
0,444,403,548,342,228,
0,551,515,543,339,226,
0,543,508,537,335,224,
0,537,503,532,333,269,
0,531,496,527,330,267,
0,525,491,653,327,263,
0,518,486,642,323,262,
0,512,480,634,321,259,
0,506,475,626,319,257,
0,500,470,619,316,255,
0,496,465,611,319,252,
0,490,459,604,316,251,
0,485,454,598,312,249,
0,480,449,590,310,259,
0,475,445,583,307,255,
0,470,440,577,305,254,
0,463,435,569,303,251,
0,460,432,563,300,249,
0,455,428,557,299,247,
0,451,423,551,295,245,
0,447,429,546,343,243,
0,509,423,540,338,240,
0,503,419,668,335,239,
0,497,414,831,332,237,
0,492,410,818,329,236,
0,486,407,806,326,233,
0,480,403,792,323,231,
0,474,399,780,319,230,
0,469,395,769,317,227,
0,464,391,759,315,226,
0,460,444,749,339,224,
0,459,438,739,335,223,
0,454,432,729,332,221,
0,449,428,719,329,219,
0,444,423,711,327,217,
0,440,419,703,323,216,
0,435,415,691,319,214,
0,431,411,684,318,212,
0,427,406,675,315,210,
0,423,402,668,312,209,
0,419,473,660,339,207,
0,418,466,652,335,206,
0,415,461,646,331,207,
0,411,455,638,327,206,
0,408,451,631,326,204,
0,403,446,624,322,203,
0,399,441,615,319,201,
0,396,436,653,316,199,
0,393,432,644,313,198,
0,390,428,636,337,196,
0,486,436,628,339,195,
0,479,430,620,335,193,
0,473,425,613,332,230,
0,467,421,606,329,227,
0,463,417,600,327,225,
0,458,412,684,323,224,
0,451,408,671,320,221,
0,447,404,663,318,219,
0,443,400,654,315,217,
0,438,413,647,344,216,
0,466,492,638,340,214,
0,460,484,631,336,212,
0,455,479,623,333,211,
0,451,473,663,330,209,
0,446,467,654,327,207,
0,440,462,646,324,206,
0,435,457,636,321,204,
0,432,452,627,319,201,
0,427,448,620,316,199,
0,423,455,613,343,199,
0,422,449,606,339,197,
0,417,443,599,335,198,
0,414,439,592,332,196,
0,409,434,587,328,195,
0,406,430,580,326,193,
0,401,425,575,323,192,
0,398,421,568,319,190,
0,394,417,561,317,188,
0,391,413,556,315,187,
0,424,508,551,344,185,
0,505,500,545,340,184,
0,499,493,652,337,205,
0,494,487,721,333,203,
0,487,481,711,331,201,
0,483,476,701,327,199,
0,476,472,692,324,198,
0,472,465,681,321,196,
0,466,461,671,319,194,
0,461,455,664,316,193,
0,508,466,655,334,192,
0,542,460,647,331,190,
0,536,454,639,327,192,
0,529,449,795,324,190,
0,523,444,847,321,188,
0,516,440,833,319,187,
0,510,435,820,316,185,
0,504,431,806,313,184,
0,499,427,794,311,182,
0,493,423,783,339,181,
0,487,420,772,340,179,
0,483,415,761,337,178,
0,478,411,752,332,242,
0,473,408,742,329,240,
0,468,403,732,327,238,
0,463,399,723,323,236,
0,457,396,714,321,233,
0,453,391,704,318,231,
0,448,388,696,316,229,
0,444,436,687,339,227,
0,481,528,679,335,225,
0,475,519,671,332,224,
0,470,513,664,327,222,
0,464,508,655,326,220,
0,460,502,647,323,218,
0,455,496,641,319,216,
0,448,491,633,317,215,
0,444,486,625,314,212,
0,440,480,619,312,211,
0,435,475,612,331,209,
0,521,470,605,327,207,
0,515,463,599,324,263,
0,509,459,592,319,289,
0,504,455,587,318,287,
0,497,449,580,315,284,
0,492,445,575,312,281,
0,486,440,568,310,280,
0,480,436,562,307,276,
0,475,432,556,304,274,
0,470,428,551,334,271,
0,496,423,546,331,269,
0,491,419,541,327,284,
0,485,415,536,323,280,
0,480,411,531,320,279,
0,475,408,525,318,275,
0,470,403,520,315,273,
0,463,399,515,312,271,
0,459,396,510,310,268,
0,454,391,505,307,266,
0,497,451,500,324,263,
0,540,446,496,321,262,
0,534,439,492,319,259,
0,527,434,487,315,257,
0,520,430,484,312,255,
0,515,425,480,310,254,
0,509,420,476,307,252,
0,503,416,471,304,249,
0,497,412,467,302,247,
0,492,408,463,334,245,
0,487,404,459,339,243,
0,481,399,455,335,241,
0,476,395,600,332,240,
0,472,391,591,327,238,
0,467,387,583,325,236,
0,462,384,575,322,234,
0,457,381,569,319,231,
0,451,377,562,316,231,
0,448,374,556,313,228,
0,443,418,551,335,227,
0,553,521,543,331,225,
0,545,515,537,327,224,
0,539,507,532,324,227,
0,532,502,527,321,224,
0,527,496,521,318,223,
0,520,489,515,316,221,
0,515,484,511,312,220,
0,508,480,504,311,217,
0,502,474,499,307,216,
0,497,470,495,337,214,
0,492,463,489,334,212,
0,487,460,484,331,218,
0,481,454,480,327,216,
0,477,449,618,324,214,
0,472,444,609,321,212,
0,467,440,602,318,211,
0,462,435,595,316,209,
0,455,431,586,313,207,
0,451,427,579,311,206,
0,448,423,573,332,204,
0,448,419,567,327,203,
0,443,415,560,324,208,
0,439,411,600,321,206,
0,435,407,591,319,204,
0,431,403,585,316,203,
0,427,399,578,312,201,
0,423,396,639,310,199,
0,418,391,628,307,199,
0,414,388,620,305,196,
0,411,446,613,345,195,
0,407,440,606,342,193,
0,403,435,599,339,192,
0,399,429,591,334,191,
0,396,425,585,332,190,
0,392,420,578,328,188,
0,390,415,572,326,187,
0,386,412,566,323,185,
0,382,408,558,319,184,
0,379,403,551,331,183,
0,417,399,547,343,182,
0,414,396,540,339,180,
0,409,391,536,335,223,
0,405,387,529,332,220,
0,401,384,524,329,218,
0,397,380,519,326,216,
0,393,376,514,323,215,
0,390,374,508,319,212,
0,385,370,503,318,211,
0,381,368,604,344,209,
0,506,468,596,339,207,
0,499,463,588,336,205,
0,493,457,582,333,215,
0,487,451,604,329,212,
0,482,446,596,327,211,
0,476,441,589,323,209,
0,472,436,583,321,207,
0,467,432,575,318,206,
0,460,428,568,315,204,
0,455,450,561,343,202,
0,451,444,556,339,199,
0,447,440,549,335,231,
0,442,435,543,333,230,
0,438,428,537,329,227,
0,433,423,531,326,225,
0,429,419,527,323,223,
0,425,415,520,319,222,
0,421,412,516,318,220,
0,415,408,509,315,217,
0,412,498,504,336,216,
0,427,491,499,333,214,
0,422,485,495,330,262,
0,417,480,489,327,259,
0,413,473,485,323,255,
0,409,467,480,319,254,
0,406,463,476,317,252,
0,401,457,472,315,249,
0,398,452,467,312,248,
0,393,448,463,309,245,
0,420,508,459,347,243,
0,420,500,454,343,240,
0,416,495,450,339,239,
0,412,489,447,336,237,
0,408,483,513,332,236,
0,403,476,519,329,233,
0,399,472,514,327,231,
0,396,467,508,323,230,
0,391,462,503,321,227,
0,387,457,496,330,225,
0,440,526,491,339,224,
0,434,519,486,335,222,
0,430,513,481,333,227,
0,425,507,476,330,225,
0,420,499,472,327,224,
0,415,494,467,323,222,
0,412,488,462,320,220,
0,408,483,457,318,219,
0,403,478,453,315,216,
0,399,473,448,335,215,
0,479,511,444,332,213,
0,472,504,440,329,211,
0,467,499,436,326,243,
0,462,493,433,323,240,
0,457,486,430,319,239,
0,452,481,426,317,236,
0,448,476,423,314,235,
0,443,471,419,312,231,
0,438,465,416,309,231,
0,433,560,412,333,228,
0,472,583,409,329,226,
0,465,575,406,327,224,
0,460,568,403,323,223,
0,455,560,399,319,221,
0,451,552,397,317,219,
0,446,545,394,313,217,
0,441,540,391,312,216,
0,436,534,388,308,214,
0,431,527,385,306,212,
0,428,543,383,331,210,
0,492,536,380,327,208,
0,485,530,376,324,221,
0,480,524,390,321,219,
0,475,519,560,319,217,
0,469,511,575,315,215,
0,464,505,568,312,214,
0,460,499,561,310,211,
0,455,495,555,307,209,
0,448,489,548,304,207,
0,444,580,541,337,206,
0,440,572,536,334,204,
0,436,565,529,331,203,
0,432,558,524,327,201,
0,428,551,519,324,199,
0,423,543,513,321,199,
0,419,537,508,318,197,
0,415,531,503,315,195,
0,412,524,497,312,194,
0,407,519,493,318,193,
0,425,620,487,331,191,
0,422,611,483,327,189,
0,417,603,478,324,188,
0,412,595,473,321,187,
0,408,588,468,319,185,
0,404,579,464,316,184,
0,400,572,460,312,183,
0,397,566,455,310,182,
0,393,559,452,307,180,
0,389,552,448,345,179,
0,457,547,443,344,177,
0,451,540,439,341,176,
0,446,534,435,337,175,
0,441,527,432,335,174,
0,436,521,428,332,172,
0,432,515,423,327,172,
0,428,510,420,325,171,
0,423,504,416,322,169,
0,419,499,413,319,167,
0,414,495,409,339,167,
0,521,489,406,336,165,
0,515,484,438,333,191,
0,509,480,647,330,199,
0,503,475,638,327,198,
0,497,468,629,324,195,
0,492,464,621,320,194,
0,487,460,614,318,192,
0,481,455,607,315,191,
0,476,451,600,312,189,
0,470,491,593,341,188,
0,536,483,583,337,185,
0,529,479,577,335,203,
0,524,473,572,331,199,
0,518,467,566,327,199,
0,511,461,560,325,196,
0,506,455,553,321,195,
0,500,451,547,319,193,
0,495,447,542,316,192,
0,489,443,536,313,190,
0,484,439,531,338,188,
0,512,434,524,335,187,
0,506,430,519,332,224,
0,500,426,514,329,221,
0,495,422,509,326,220,
0,489,417,504,323,217,
0,483,414,499,319,216,
0,479,409,495,316,214,
0,473,406,490,313,211,
0,469,403,486,321,210,
0,500,486,480,337,208,
0,510,480,476,334,206,
0,504,474,472,331,236,
0,498,468,467,327,233,
0,492,463,463,326,231,
0,487,457,459,322,229,
0,481,452,455,319,227,
0,476,448,450,316,225,
0,472,443,447,313,224,
0,467,438,443,339,222,
0,504,448,438,335,220,
0,497,442,434,332,217,
0,492,438,431,329,268,
0,487,433,427,327,266,
0,481,428,423,323,263,
0,476,423,419,321,261,
0,471,419,415,318,259,
0,465,415,412,315,256,
0,461,411,409,312,254,
0,455,430,407,334,252,
0,478,463,402,331,250,
0,472,457,403,327,287,
0,467,452,580,324,295,
0,463,448,572,321,291,
0,457,442,566,319,289,
0,452,436,559,316,286,
0,448,432,552,312,284,
0,444,428,547,310,281,
0,440,423,540,307,279,
0,435,446,535,342,276,
0,463,440,527,339,274,
0,457,435,522,335,271,
0,452,432,516,332,269,
0,448,427,511,329,267,
0,443,422,506,326,264,
0,439,416,501,323,263,
0,433,412,496,319,260,
0,430,408,492,317,259,
0,425,404,487,314,255,
0,422,412,482,343,255,
0,448,408,476,339,252,
0,443,403,665,336,251,
0,438,399,708,333,249,
0,433,396,699,329,248,
0,428,391,689,327,245,
0,423,387,680,323,243,
0,419,384,671,319,241,
0,415,381,664,318,240,
0,412,378,655,319,238,
0,412,452,647,352,236,
0,496,447,638,348,234,
0,491,441,631,345,236,
0,484,436,624,342,234,
0,480,432,616,339,231,
0,473,428,609,335,230,
0,469,422,603,332,228,
0,463,417,596,328,227,
0,459,413,590,326,225,
0,454,408,583,342,224,
0,455,460,577,343,222,
0,462,454,569,339,220,
0,457,449,563,335,238,
0,451,444,558,333,236,
0,448,440,552,329,233,
0,443,434,547,327,231,
0,439,428,542,323,230,
0,434,423,536,319,227,
0,430,419,531,318,225,
0,425,428,526,344,224,
0,512,440,520,339,222,
0,504,435,515,335,220,
0,497,430,510,333,220,
0,492,425,505,330,217,
0,486,421,500,327,216,
0,481,416,496,323,215,
0,476,411,491,320,212,
0,471,408,487,318,211,
0,465,403,483,315,209,
0,460,443,479,339,208,
0,560,436,473,335,207,
0,551,432,487,332,231,
0,544,428,663,327,230,
0,537,423,653,326,227,
0,531,418,644,323,225,
0,526,414,636,319,223,
0,519,408,628,316,221,
0,514,404,621,313,220,
0,508,399,614,311,217,
0,504,475,607,350,216,
0,497,468,600,347,214,
0,491,463,591,344,261,
0,486,457,585,339,258,
0,481,452,579,337,255,
0,476,448,572,334,254,
0,472,443,567,331,252,
0,467,436,560,327,249,
0,462,432,555,324,247,
0,457,428,548,323,246,
0,453,483,543,354,243,
0,537,476,537,351,240,
0,529,471,531,348,239,
0,523,465,526,344,236,
0,517,460,520,341,235,
0,511,455,515,337,232,
0,505,451,511,335,231,
0,499,444,505,331,229,
0,495,440,500,327,227,
0,489,435,496,355,225,
0,511,465,492,353,224,
0,547,460,487,350,222,
0,538,455,481,347,220,
0,531,449,477,344,217,
0,526,444,472,340,216,
0,519,440,468,337,215,
0,514,435,463,335,213,
0,508,430,566,331,211,
0,503,425,559,327,209,
0,497,422,551,352,208,
0,500,421,545,348,207,
0,493,417,540,345,205,
0,487,413,739,342,216,
0,483,408,729,338,214,
0,478,404,719,335,211,
0,472,400,709,332,209,
0,468,397,700,329,207,
0,463,391,691,326,207,
0,459,388,682,323,205,
0,455,385,674,347,203,
0,519,382,665,343,201,
0,511,378,657,339,199,
0,504,375,647,336,199,
0,499,371,639,334,198,
0,494,368,633,331,196,
0,487,366,626,327,195,
0,483,363,620,324,193,
0,478,359,612,321,192,
0,472,355,606,319,191,
0,468,487,600,348,190,
0,536,481,592,344,188,
0,527,475,587,341,201,
0,521,470,579,338,199,
0,515,464,572,335,196,
0,509,460,568,332,195,
0,504,455,561,327,193,
0,498,449,556,326,192,
0,493,444,550,322,191,
0,487,439,544,319,189,
0,483,435,540,342,188,
0,478,430,534,339,185,
0,472,425,529,335,230,
0,467,422,523,332,227,
0,462,417,518,329,225,
0,457,414,513,327,223,
0,452,409,508,323,221,
0,448,405,504,319,219,
0,444,400,499,317,217,
0,440,396,494,348,216,
0,500,455,489,345,214,
0,546,449,486,342,211,
0,537,444,481,339,236,
0,531,440,684,335,231,
0,525,435,675,332,231,
0,519,430,665,329,228,
0,513,425,657,327,227,
0,508,420,648,323,224,
0,502,415,639,319,223,
0,496,420,634,344,221,
0,582,497,625,339,219,
0,573,491,619,336,217,
0,564,485,611,334,216,
0,558,480,603,331,213,
0,551,474,596,327,211,
0,544,468,590,324,209,
0,539,463,583,321,207,
0,532,457,577,319,207,
0,527,452,571,316,205,
0,520,519,566,332,204,
0,607,575,560,327,201,
0,598,568,553,324,212,
0,589,560,547,321,268,
0,582,553,540,319,263,
0,575,547,536,316,262,
0,568,541,530,313,259,
0,561,535,525,311,257,
0,555,527,519,307,255,
0,548,521,515,305,252,
0,543,568,510,353,251,
0,536,561,504,350,248,
0,531,553,500,347,247,
0,524,547,728,344,244,
0,518,540,714,339,242,
0,513,534,704,337,240,
0,507,527,695,334,238,
0,502,521,686,331,236,
0,497,515,678,327,235,
0,492,509,669,324,231,
0,487,504,660,345,231,
0,497,498,653,343,229,
0,491,493,645,339,239,
0,484,487,636,335,236,
0,480,483,628,333,233,
0,475,478,621,329,231,
0,470,472,615,327,230,
0,465,468,608,324,227,
0,461,462,600,321,226,
0,456,457,595,348,224,
0,492,454,588,349,223,
0,551,449,582,345,221,
0,543,446,575,343,250,
0,536,440,568,339,248,
0,529,437,715,336,245,
0,523,432,706,334,243,
0,517,428,696,331,241,
0,512,423,687,327,239,
0,506,419,679,324,236,
0,500,435,671,361,235,
0,496,523,662,356,232,
0,490,516,654,353,231,
0,485,510,646,350,233,
0,479,504,636,347,231,
0,473,499,629,344,229,
0,469,493,622,340,227,
0,463,487,615,337,225,
0,460,482,608,334,224,
0,455,476,601,332,222,
0,451,492,595,335,220,
0,499,487,588,332,219,
0,492,481,665,328,216,
0,487,476,675,326,216,
0,480,470,664,323,215,
0,475,465,655,319,212,
0,469,460,647,317,211,
0,464,455,639,315,209,
0,460,451,632,312,207,
0,455,445,625,309,207,
0,451,496,617,344,205,
0,463,490,611,341,204,
0,458,484,742,338,236,
0,453,479,807,335,238,
0,447,473,792,332,236,
0,443,468,780,327,233,
0,439,463,769,326,231,
0,435,458,758,323,228,
0,430,454,748,319,227,
0,427,448,739,316,225,
0,423,486,729,359,223,
0,503,480,719,355,221,
0,496,473,711,352,239,
0,491,468,702,348,237,
0,484,463,691,345,234,
0,479,459,683,342,231,
0,473,454,675,339,230,
0,468,448,667,335,228,
0,463,444,659,333,226,
0,459,439,652,348,224,
0,504,518,644,350,223,
0,551,511,637,347,220,
0,544,505,631,344,231,
0,538,499,624,340,230,
0,530,494,615,337,227,
0,524,487,608,334,225,
0,518,483,601,331,223,
0,512,478,595,327,221,
0,507,472,589,325,220,
0,502,466,583,356,217,
0,496,461,577,353,216,
0,494,455,572,350,214,
0,488,451,566,346,227,
0,483,448,643,344,225,
0,477,442,713,339,223,
0,472,438,703,336,221,
0,467,433,694,334,219,
0,463,429,684,331,217,
0,457,425,676,327,216,
0,454,488,668,352,214,
0,547,481,659,348,211,
0,539,476,652,344,211,
0,532,471,643,342,258,
0,526,465,636,338,255,
0,519,460,627,335,253,
0,513,455,620,332,251,
0,507,450,613,329,248,
0,502,446,606,327,247,
0,496,440,600,323,244,
0,492,463,593,355,242,
0,508,458,587,352,240,
0,502,453,580,348,239,
0,496,448,575,344,236,
0,491,443,568,342,235,
0,484,439,561,339,231,
0,480,433,556,335,231,
0,475,430,550,332,228,
0,470,425,544,329,227,
0,464,420,540,327,225,
0,460,463,535,345,223,
0,540,457,687,342,221,
0,532,452,676,338,222,
0,526,447,668,335,220,
0,519,442,659,332,219,
0,513,438,649,328,216,
0,507,432,641,326,215,
0,502,428,633,323,213,
0,496,423,625,319,211,
0,491,419,619,318,210,
0,486,521,611,355,208,
0,488,515,604,351,207,
0,483,509,598,347,247,
0,478,503,591,344,243,
0,473,497,584,340,241,
0,467,491,577,337,239,
0,462,486,571,335,237,
0,457,480,564,332,235,
0,453,475,559,328,233,
0,448,470,553,335,231,
0,484,536,547,358,229,
0,487,529,542,355,227,
0,482,523,536,352,225,
0,476,516,531,348,224,
0,470,510,526,345,222,
0,465,504,519,342,220,
0,460,499,515,339,217,
0,455,494,510,335,216,
0,451,487,505,333,214,
0,446,483,501,346,212,
0,500,512,496,344,211,
0,495,506,547,339,209,
0,488,500,541,337,208,
0,483,495,535,334,207,
0,476,489,528,331,205,
0,472,483,521,327,203,
0,466,479,515,325,201,
0,462,473,510,322,199,
0,455,468,504,319,199,
0,452,489,500,347,198,
0,537,496,495,342,195,
0,531,491,490,339,198,
0,524,484,486,335,196,
0,519,480,481,333,195,
0,511,474,478,329,193,
0,505,468,472,327,192,
0,499,463,467,323,190,
0,494,459,463,321,189,
0,489,455,460,318,188,
0,484,550,455,356,186,
0,479,540,452,352,184,
0,473,533,449,348,233,
0,469,527,444,345,231,
0,463,520,441,342,228,
0,458,515,438,339,226,
0,454,508,433,335,224,
0,449,503,430,333,222,
0,444,497,426,330,220,
0,440,492,423,327,218,
0,436,487,419,332,216,
0,432,480,415,327,215,
0,428,476,413,324,233,
0,423,470,409,321,231,
0,420,465,407,319,230,
0,415,460,403,316,227,
0,412,455,399,313,225,
0,408,451,396,311,223,
0,405,447,393,308,221,
0,401,442,391,315,220,
0,470,472,387,355,217,
0,513,466,384,350,216,
0,507,461,382,348,228,
0,501,455,379,344,227,
0,495,451,376,340,224,
0,487,446,374,337,223,
0,483,441,370,335,220,
0,478,436,367,332,218,
0,472,432,364,328,216,
0,467,428,363,344,215,
0,550,463,359,348,212,
0,542,457,357,344,211,
0,536,452,355,340,227,
0,529,448,352,337,225,
0,523,442,350,334,223,
0,515,438,348,331,221,
0,510,433,351,327,219,
0,504,428,348,325,217,
0,499,423,344,322,216,
0,493,423,343,340,214,
0,504,421,340,337,211,
0,497,417,338,333,215,
0,492,413,335,330,222,
0,487,409,333,327,220,
0,481,405,331,324,218,
0,475,401,328,321,216,
0,471,398,326,319,214,
0,465,395,323,316,212,
0,461,391,322,313,210,
0,456,471,319,354,209,
0,452,463,318,350,207,
0,448,458,316,346,211,
0,444,452,313,343,209,
0,440,448,312,339,207,
0,435,443,309,336,206,
0,430,438,307,334,205,
0,425,433,305,331,203,
0,422,429,303,327,201,
0,418,424,301,324,199,
0,423,420,299,343,198,
0,500,415,297,339,196,
0,495,412,332,335,199,
0,489,408,419,332,197,
0,483,403,414,329,195,
0,479,399,409,326,194,
0,472,396,404,323,192,
0,467,391,400,319,191,
0,462,388,396,318,189,
0,457,385,393,316,188,
0,548,488,390,340,187,
0,583,480,386,336,185,
0,575,475,383,333,192,
0,569,470,493,330,190,
0,562,463,487,327,188,
0,556,459,481,323,187,
0,547,454,475,321,185,
0,542,449,470,319,184,
0,536,444,465,316,182,
0,529,440,460,332,181,
0,524,460,455,334,179,
0,518,454,451,331,179,
0,513,449,447,327,234,
0,507,444,443,323,231,
0,502,440,439,320,230,
0,496,435,434,318,227,
0,489,430,430,315,226,
0,484,426,425,312,224,
0,480,422,422,310,222,
0,476,429,418,348,220,
0,563,470,414,344,217,
0,556,463,411,340,216,
0,550,457,407,337,220,
0,543,452,403,334,217,
0,536,448,399,331,216,
0,530,443,396,327,214,
0,523,438,391,325,211,
0,517,433,388,322,210,
0,511,428,385,319,208,
0,506,424,383,344,207,
0,617,420,379,340,205,
0,608,415,376,336,220,
0,600,411,372,333,219,
0,593,407,370,330,216,
0,586,403,367,327,215,
0,579,399,364,324,213,
0,571,396,359,321,211,
0,563,391,358,319,208,
0,558,388,355,316,207,
0,551,385,352,350,206,
0,563,381,349,346,204,
0,556,377,347,342,203,
0,549,374,344,339,201,
0,543,371,341,335,199,
0,537,368,339,332,198,
0,531,364,335,329,196,
0,524,361,333,327,195,
0,519,359,330,323,193,
0,513,355,327,321,192,
0,508,396,326,348,191,
0,503,391,323,344,189,
0,497,386,320,340,188,
0,492,382,329,337,188,
0,487,379,369,334,185,
0,483,375,366,331,184,
0,478,371,363,327,183,
0,472,367,359,326,181,
0,467,364,355,323,180,
0,463,359,352,339,179,
0,543,358,348,341,177,
0,536,355,345,337,176,
0,530,351,343,334,223,
0,524,348,339,331,220,
0,518,345,395,327,219,
0,512,343,390,325,216,
0,505,339,385,321,215,
0,499,337,381,319,213,
0,494,335,377,316,211,
0,489,387,374,349,209,
0,567,472,371,344,207,
0,559,465,367,342,206,
0,552,459,364,337,205,
0,545,453,412,334,204,
0,540,448,408,332,201,
0,533,444,404,327,199,
0,527,439,399,326,199,
0,519,434,395,322,196,
0,514,430,391,319,195,
0,509,488,388,340,193,
0,504,505,384,337,192,
0,499,499,472,334,218,
0,494,492,501,330,216,
0,488,486,495,327,214,
0,483,480,489,324,211,
0,479,476,484,321,210,
0,473,471,499,319,207,
0,467,465,509,316,206,
0,463,460,504,313,204,
0,459,558,499,340,203,
0,518,550,493,337,200,
0,512,543,487,334,252,
0,506,535,541,329,248,
0,500,527,719,327,246,
0,495,522,708,323,244,
0,489,516,699,320,241,
0,483,510,689,318,240,
0,478,504,679,315,238,
0,472,499,670,312,236,
0,479,513,662,335,233,
0,487,507,654,332,231,
0,481,501,646,329,259,
0,476,494,639,326,255,
0,470,488,631,323,254,
0,465,483,624,319,252,
0,460,478,616,317,249,
0,455,473,610,315,248,
0,450,468,601,312,244,
0,446,463,595,339,243,
0,543,577,589,344,240,
0,536,569,583,342,239,
0,529,562,576,338,239,
0,523,553,571,334,236,
0,517,547,564,331,235,
0,511,540,559,327,232,
0,505,535,553,325,231,
0,498,527,547,323,229,
0,493,522,541,319,227,
0,487,527,536,345,225,
0,499,559,531,342,223,
0,494,551,525,339,221,
0,487,545,519,335,220,
0,483,536,515,332,219,
0,478,530,611,327,217,
0,472,524,603,326,215,
0,467,519,595,323,214,
0,462,512,588,319,211,
0,457,507,579,317,210,
0,453,574,573,359,208,
0,467,566,567,355,207,
0,462,558,560,352,205,
0,457,551,555,348,204,
0,452,543,548,344,202,
0,448,536,543,341,199,
0,444,531,537,338,199,
0,440,524,531,335,198,
0,434,519,526,332,196,
0,430,513,519,329,194,
0,426,508,515,355,193,
0,493,502,509,351,192,
0,487,496,505,348,231,
0,481,492,500,344,229,
0,476,485,496,340,227,
0,472,480,491,337,225,
0,466,475,487,334,223,
0,461,471,482,332,221,
0,455,465,478,327,219,
0,451,461,472,326,217,
0,469,495,468,332,216,
0,482,488,464,329,214,
0,476,483,460,327,244,
0,471,476,455,323,242,
0,465,471,452,319,240,
0,460,465,449,318,238,
0,455,460,445,315,236,
0,451,455,441,312,233,
0,445,451,438,310,231,
0,440,448,433,339,230,
0,487,481,430,352,227,
0,481,476,425,348,226,
0,476,471,524,344,241,
0,470,463,517,342,239,
0,464,459,511,337,237,
0,460,454,505,335,235,
0,455,448,500,332,232,
0,450,444,495,328,231,
0,444,440,489,326,229,
0,440,435,483,366,227,
0,534,433,550,361,225,
0,527,429,600,358,223,
0,520,425,591,355,238,
0,514,420,585,352,236,
0,508,415,578,347,233,
0,503,412,572,344,231,
0,497,408,565,340,230,
0,492,404,559,338,227,
0,485,401,552,335,225,
0,480,460,545,350,224,
0,577,476,540,347,222,
0,569,470,534,344,250,
0,563,465,574,339,255,
0,556,457,566,336,254,
0,550,453,560,333,252,
0,543,448,553,329,249,
0,537,444,655,327,248,
0,531,439,670,324,245,
0,524,434,659,321,243,
0,518,488,651,345,240,
0,512,482,642,343,238,
0,507,476,635,339,237,
0,502,471,627,335,235,
0,496,464,620,333,232,
0,491,459,612,329,231,
0,487,455,606,326,229,
0,481,449,599,323,227,
0,476,444,591,320,225,
0,470,440,583,318,224,
0,465,481,578,344,221,
0,462,476,572,339,220,
0,457,470,566,336,243,
0,453,464,560,334,240,
0,448,458,555,331,238,
0,444,453,548,327,236,
0,440,448,543,324,234,
0,436,444,537,321,231,
0,432,439,532,318,230,
0,428,435,526,342,228,
0,529,515,520,364,226,
0,521,509,515,359,224,
0,515,504,511,356,254,
0,510,497,632,353,251,
0,504,491,831,350,248,
0,498,484,817,345,247,
0,492,480,805,343,244,
0,487,473,793,339,243,
0,481,469,782,336,240,
0,476,464,769,356,239,
0,543,496,758,352,236,
0,536,491,748,349,233,
0,528,484,739,346,231,
0,523,479,728,343,230,
0,516,472,719,339,228,
0,511,467,711,335,227,
0,505,462,702,333,224,
0,499,457,694,329,223,
0,495,452,685,327,221,
0,488,507,675,347,220,
0,483,502,668,344,217,
0,478,496,659,340,216,
0,472,490,652,337,214,
0,467,484,644,334,212,
0,463,478,638,330,211,
0,459,472,631,327,209,
0,454,467,624,324,207,
0,449,462,616,321,206,
0,445,457,611,319,204,
0,440,591,603,347,203,
0,546,595,596,343,200,
0,539,587,590,339,231,
0,532,579,583,336,228,
0,526,572,578,334,226,
0,520,563,572,329,224,
0,515,556,567,327,223,
0,508,550,561,323,220,
0,504,543,556,320,219,
0,497,537,550,318,216,
0,502,531,543,344,215,
0,546,526,538,341,213,
0,540,519,534,337,222,
0,533,514,527,335,220,
0,527,508,523,332,219,
0,521,502,518,327,216,
0,515,496,513,325,215,
0,509,492,509,322,213,
0,504,487,504,319,211,
0,498,481,499,339,209,
0,599,519,495,354,207,
0,598,513,489,351,206,
0,591,507,486,348,236,
0,583,502,481,344,233,
0,575,496,477,341,231,
0,569,488,473,337,230,
0,563,483,469,334,227,
0,556,478,465,331,225,
0,550,473,461,327,224,
0,543,468,457,335,222,
0,554,463,452,332,220,
0,547,460,448,329,219,
0,541,455,445,326,262,
0,535,450,441,323,259,
0,528,446,438,319,257,
0,523,440,434,317,255,
0,518,436,431,315,252,
0,512,432,428,312,250,
0,507,428,423,309,248,
0,501,462,421,366,247,
0,554,489,507,361,243,
0,547,483,500,358,263,
0,540,479,495,354,275,
0,534,473,489,351,271,
0,527,467,484,348,270,
0,521,461,480,344,268,
0,516,455,475,341,265,
0,510,451,470,337,263,
0,504,447,465,335,260,
0,499,442,460,356,258,
0,493,438,455,352,255,
0,487,433,451,349,270,
0,483,429,446,345,268,
0,478,424,442,343,265,
0,473,420,438,339,263,
0,468,415,433,335,260,
0,463,412,430,333,258,
0,460,408,425,329,255,
0,455,404,422,327,254,
0,451,401,419,344,252,
0,476,398,415,340,249,
0,472,394,492,337,248,
0,466,391,683,334,245,
0,461,387,671,331,243,
0,455,384,664,327,241,
0,451,380,655,324,240,
0,447,376,647,321,238,
0,443,374,639,319,236,
0,439,371,632,330,234,
0,480,446,624,336,231,
0,475,440,615,334,230,
0,470,435,608,331,284,
0,464,431,600,327,281,
0,460,427,594,324,279,
0,454,422,588,321,276,
0,449,416,581,318,274,
0,445,412,575,315,271,
0,440,408,568,312,269,
0,435,404,563,359,267,
0,529,474,558,359,264,
0,522,468,550,356,262,
0,515,463,544,353,269,
0,510,458,539,350,267,
0,504,452,534,347,263,
0,498,448,528,344,262,
0,493,441,523,339,259,
0,487,437,518,335,257,
0,483,432,513,334,255,
0,478,451,508,353,253,
0,502,461,504,350,251,
0,496,455,497,347,249,
0,490,451,493,344,254,
0,484,446,488,339,252,
0,480,440,483,337,249,
0,474,435,480,334,248,
0,469,430,475,329,246,
0,463,425,471,327,243,
0,460,422,467,324,241,
0,455,495,463,347,240,
0,531,487,459,344,238,
0,524,482,454,339,257,
0,518,476,449,336,254,
0,512,472,446,334,252,
0,507,466,441,331,249,
0,501,461,438,327,248,
0,496,455,434,324,246,
0,489,449,431,321,243,
0,484,445,427,319,241,
0,480,519,423,345,239,
0,574,511,420,342,237,
0,568,505,415,339,280,
0,560,499,412,335,277,
0,553,494,409,332,275,
0,547,487,406,329,271,
0,540,481,403,327,270,
0,535,476,399,323,268,
0,528,472,396,319,265,
0,523,466,393,326,263,
0,517,502,391,344,260,
0,516,496,387,339,259,
0,511,489,384,336,255,
0,505,484,381,334,254,
0,500,479,379,331,252,
0,495,473,376,327,249,
0,489,467,372,324,248,
0,484,462,370,321,246,
0,480,457,367,318,243,
0,475,452,365,344,241,
0,470,448,362,342,240,
0,484,443,359,338,238,
0,479,439,356,335,249,
0,473,434,353,332,248,
0,468,430,351,329,246,
0,463,425,348,326,243,
0,459,420,346,323,241,
0,455,416,344,319,239,
0,450,412,342,317,237,
0,446,451,339,344,236,
0,536,508,337,339,233,
0,527,502,335,336,231,
0,523,496,530,333,252,
0,516,490,529,330,249,
0,510,484,524,327,248,
0,504,480,518,324,245,
0,499,472,512,321,243,
0,493,467,507,318,241,
0,487,462,501,315,239,
0,483,457,496,352,237,
0,565,452,491,348,235,
0,556,448,484,344,233,
0,549,444,480,342,255,
0,542,440,483,339,254,
0,536,435,492,335,252,
0,529,430,487,332,249,
0,524,425,481,329,248,
0,518,421,476,326,246,
0,512,417,472,323,243,
0,508,451,467,345,241,
0,575,446,463,342,239,
0,566,440,457,339,246,
0,559,435,452,335,243,
0,551,431,448,332,241,
0,545,427,444,329,239,
0,539,422,440,327,237,
0,533,416,436,323,236,
0,527,412,432,319,233,
0,521,408,428,319,231,
0,515,481,424,331,230,
0,519,476,421,327,227,
0,512,470,415,324,249,
0,507,464,412,322,247,
0,502,460,409,319,244,
0,496,455,406,316,242,
0,492,449,402,313,240,
0,486,444,399,311,238,
0,481,440,396,307,236,
0,476,435,392,339,235,
0,527,504,389,348,231,
0,561,497,386,345,230,
0,552,492,382,342,239,
0,545,486,379,338,236,
0,540,480,376,335,233,
0,533,475,373,332,231,
0,527,470,369,329,230,
0,521,463,367,326,228,
0,515,459,364,323,226,
0,510,489,361,348,225,
0,505,560,359,344,223,
0,500,551,355,341,221,
0,494,545,352,338,235,
0,488,539,350,335,231,
0,483,532,347,332,230,
0,479,526,344,329,228,
0,473,520,342,326,226,
0,468,513,339,322,224,
0,463,508,336,319,222,
0,460,566,334,354,221,
0,570,558,332,350,219,
0,562,551,329,347,217,
0,553,543,327,344,216,
0,547,537,324,340,214,
0,540,531,322,337,211,
0,534,525,319,334,211,
0,527,519,318,332,209,
0,522,512,316,327,207,
0,516,507,313,324,206,
0,511,502,312,352,204,
0,539,496,310,348,203,
0,532,491,307,345,228,
0,524,486,423,342,225,
0,519,480,417,339,224,
0,512,475,412,335,221,
0,507,470,408,332,220,
0,502,465,404,329,217,
0,496,460,400,326,216,
0,491,455,396,323,214,
0,486,519,393,352,212,
0,491,513,390,349,210,
0,485,508,386,345,209,
0,479,502,382,343,207,
0,473,496,378,339,206,
0,469,490,375,336,204,
0,464,485,371,333,201,
0,460,480,368,330,199,
0,455,473,365,327,199,
0,451,468,361,353,198,
0,447,463,359,353,196,
0,454,459,355,350,195,
0,448,454,352,346,209,
0,443,449,349,344,207,
0,439,444,346,339,204,
0,435,440,344,336,203,
0,431,436,340,334,201,
0,427,432,337,331,199,
0,423,427,335,327,198,
0,419,444,332,344,196,
0,529,483,329,339,195,
0,520,478,327,335,193,
0,515,472,324,333,192,
0,507,467,321,329,191,
0,502,462,319,327,189,
0,496,456,316,324,188,
0,491,451,313,321,187,
0,486,448,312,319,185,
0,480,441,310,315,184,
0,475,473,307,344,183,
0,536,467,305,340,182,
0,527,462,303,337,197,
0,521,457,300,334,224,
0,515,452,298,331,221,
0,508,448,295,327,219,
0,503,443,294,325,217,
0,497,438,292,321,216,
0,492,433,291,319,214,
0,487,428,289,316,211,
0,482,472,287,345,210,
0,539,465,285,342,208,
0,531,460,349,339,227,
0,526,455,345,335,225,
0,518,449,341,332,223,
0,512,444,337,329,220,
0,506,440,335,327,219,
0,500,435,332,323,217,
0,495,431,328,320,216,
0,489,425,326,319,214,
0,484,478,323,352,211,
0,491,472,319,348,210,
0,486,466,318,345,219,
0,479,460,315,342,217,
0,473,455,312,339,215,
0,468,451,308,335,212,
0,463,446,306,332,211,
0,460,440,304,329,209,
0,455,436,301,327,207,
0,450,431,299,347,206,
0,478,497,295,355,204,
0,496,492,295,352,203,
0,490,486,292,348,223,
0,483,480,289,344,221,
0,478,475,287,342,219,
0,472,470,285,339,216,
0,467,464,283,335,215,
0,463,460,281,332,212,
0,457,454,280,329,211,
0,452,480,278,339,209,
0,511,514,275,335,207,
0,507,508,274,332,206,
0,500,502,271,329,219,
0,494,496,271,327,216,
0,487,491,268,323,215,
0,483,484,267,320,212,
0,478,480,265,318,211,
0,472,474,263,316,209,
0,467,470,262,312,207,
0,463,463,260,349,206,
0,512,458,259,345,204,
0,506,454,257,342,203,
0,500,448,255,339,210,
0,493,444,263,335,208,
0,487,440,390,333,206,
0,483,435,385,329,204,
0,477,431,382,327,203,
0,472,427,377,324,201,
0,467,423,374,321,199,
0,463,432,371,352,198,
0,474,428,367,348,196,
0,468,423,364,345,235,
0,463,419,359,342,231,
0,457,415,357,339,230,
0,453,411,353,335,227,
0,448,407,350,333,225,
0,444,403,347,329,224,
0,440,399,344,327,222,
0,435,395,342,323,220,
0,432,457,339,345,217,
0,495,452,335,342,216,
0,488,448,365,339,220,
0,483,441,414,335,218,
0,476,437,409,332,216,
0,472,432,404,329,214,
0,466,428,399,327,212,
0,462,423,396,323,210,
0,455,419,391,321,209,
0,451,414,389,318,207,
0,491,451,385,335,205,
0,518,446,382,332,204,
0,512,441,379,329,211,
0,505,435,376,327,209,
0,499,432,371,323,207,
0,493,427,368,320,206,
0,487,422,364,318,204,
0,483,418,361,315,202,
0,478,414,358,312,199,
0,472,423,355,335,199,
0,554,476,352,348,198,
0,556,471,349,344,196,
0,550,464,347,341,217,
0,543,460,344,337,215,
0,535,455,340,335,213,
0,528,449,337,332,211,
0,523,445,334,328,209,
0,516,440,332,326,207,
0,511,435,329,323,206,
0,505,495,327,348,204,
0,500,487,324,344,202,
0,495,481,321,339,199,
0,490,476,319,336,211,
0,485,471,316,334,209,
0,479,465,313,331,207,
0,473,460,311,327,206,
0,469,455,429,324,204,
0,463,451,423,322,203,
0,460,446,419,319,200,
0,455,466,415,344,199,
0,518,460,411,339,198,
0,511,455,527,335,197,
0,505,450,519,333,195,
0,499,445,513,329,193,
0,492,440,507,327,192,
0,487,435,501,323,191,
0,482,432,496,321,189,
0,476,427,491,318,188,
0,472,423,486,316,186,
0,467,437,481,347,185,
0,495,432,476,342,184,
0,488,428,472,339,199,
0,483,423,467,335,198,
0,478,419,463,332,196,
0,472,414,456,329,195,
0,466,410,452,327,193,
0,461,406,448,323,191,
0,456,402,444,321,190,
0,452,399,440,318,188,
0,448,469,436,354,187,
0,452,463,432,350,185,
0,448,458,429,346,244,
0,443,453,425,344,242,
0,438,448,422,339,240,
0,433,443,416,337,238,
0,429,439,413,334,235,
0,425,433,409,331,233,
0,421,429,406,327,231,
0,417,425,403,335,229,
0,500,423,399,347,227,
0,512,419,396,344,225,
0,507,415,392,340,224,
0,500,411,390,337,222,
0,495,407,386,335,220,
0,487,403,382,332,218,
0,483,399,379,327,216,
0,478,395,376,326,214,
0,472,391,372,323,212,
0,467,388,370,344,211,
0,521,448,367,339,209,
0,515,441,364,336,207,
0,508,436,361,333,216,
0,503,432,359,330,215,
0,497,428,382,327,214,
0,490,423,377,324,211,
0,484,419,374,321,209,
0,480,414,369,318,207,
0,475,410,367,316,206,
0,470,463,363,335,204,
0,554,497,359,331,203,
0,547,491,356,327,220,
0,540,486,353,324,219,
0,534,480,351,321,217,
0,527,475,371,319,215,
0,519,470,367,316,212,
0,515,463,364,313,211,
0,508,459,359,311,209,
0,504,454,356,308,207,
0,498,464,353,347,206,
0,499,458,350,342,204,
0,494,452,348,339,220,
0,488,448,344,335,217,
0,483,444,414,332,216,
0,479,439,423,329,214,
0,472,435,419,327,211,
0,467,430,415,323,210,
0,463,425,411,321,208,
0,458,422,407,318,207,
0,454,483,403,359,204,
0,495,476,399,354,203,
0,489,471,396,351,201,
0,483,465,391,348,199,
0,478,460,388,344,199,
0,473,455,384,342,197,
0,467,450,380,339,195,
0,462,445,377,335,193,
0,457,440,374,332,192,
0,452,435,370,334,191,
0,527,432,368,347,189,
0,543,426,364,344,188,
0,536,422,361,340,220,
0,529,417,358,337,218,
0,524,414,355,334,216,
0,518,409,352,331,214,
0,510,406,348,327,211,
0,504,402,345,324,210,
0,499,398,343,322,208,
0,494,395,340,350,207,
0,494,479,337,347,205,
0,487,472,335,343,204,
0,483,466,332,339,259,
0,478,460,329,336,255,
0,473,455,327,333,254,
0,468,451,325,330,252,
0,462,446,321,327,248,
0,457,441,319,324,246,
0,453,436,317,321,244,
0,449,476,315,348,243,
0,527,489,312,344,240,
0,521,482,311,340,239,
0,515,477,308,337,236,
0,509,472,306,334,235,
0,504,466,304,332,231,
0,497,461,302,327,231,
0,491,455,299,326,228,
0,486,451,296,323,227,
0,480,447,295,319,225,
0,476,513,293,354,223,
0,526,506,291,350,221,
0,519,499,288,345,246,
0,513,493,287,343,243,
0,508,487,309,339,241,
0,502,482,306,336,239,
0,495,476,304,334,236,
0,489,472,300,331,234,
0,483,466,297,327,232,
0,479,461,295,324,231,
0,474,519,292,335,228,
0,491,513,289,332,227,
0,486,505,307,327,241,
0,480,499,323,324,239,
0,475,494,319,322,237,
0,470,488,317,319,235,
0,463,483,315,316,232,
0,459,478,311,313,231,
0,454,472,308,312,228,
0,449,467,305,317,227,
0,532,537,303,345,225,
0,540,529,300,342,223,
0,534,521,297,338,283,
0,527,515,295,335,280,
0,521,510,292,332,277,
0,515,504,291,327,275,
0,508,498,287,326,272,
0,503,492,285,323,270,
0,497,487,283,319,267,
0,492,482,281,347,265,
0,532,536,279,344,263,
0,526,529,277,340,260,
0,519,522,291,336,259,
0,513,515,287,333,255,
0,508,510,285,330,254,
0,502,504,283,327,252,
0,495,499,280,324,250,
0,489,493,278,321,248,
0,484,487,275,319,246,
0,480,515,273,347,243,
0,475,527,271,343,241,
0,470,520,270,339,259,
0,465,512,268,335,259,
0,460,507,265,332,257,
0,455,501,263,329,255,
0,451,495,263,327,252,
0,446,489,260,323,251,
0,441,484,259,320,248,
0,437,480,257,318,246,
0,433,475,255,339,243,
0,429,470,254,335,241,
0,425,463,252,332,240,
0,421,459,250,328,238,
0,417,454,248,326,236,
0,414,449,248,323,234,
0,409,444,246,319,231,
0,406,440,244,317,231,
0,402,436,243,315,228,
0,399,432,241,312,227,
0,420,428,240,353,225,
0,515,423,238,350,223,
0,508,419,236,347,225,
0,503,415,369,343,224,
0,497,411,487,339,222,
0,491,407,481,336,220,
0,486,403,476,334,219,
0,479,399,470,330,217,
0,473,396,463,327,215,
0,469,391,460,327,214,
0,515,448,455,345,211,
0,519,443,450,343,210,
0,512,436,446,339,211,
0,506,432,441,335,209,
0,500,427,438,332,207,
0,495,423,433,329,206,
0,489,418,429,326,204,
0,483,414,425,323,203,
0,478,409,420,319,200,
0,472,406,417,350,199,
0,577,467,413,350,198,
0,568,462,409,347,196,
0,561,455,406,344,203,
0,554,451,401,339,201,
0,547,446,399,335,199,
0,542,440,395,333,199,
0,536,436,391,329,196,
0,527,432,387,327,195,
0,521,427,384,324,193,
0,516,463,382,335,192,
0,511,545,377,331,191,
0,505,539,423,327,195,
0,499,530,488,325,214,
0,495,524,483,321,211,
0,489,518,478,319,210,
0,484,512,472,316,207,
0,480,506,467,313,206,
0,473,500,462,311,204,
0,468,495,457,307,203,
0,463,490,453,352,200,
0,502,484,448,348,199,
0,496,480,444,344,231,
0,489,473,440,342,227,
0,484,468,491,337,225,
0,480,463,635,335,224,
0,473,459,625,332,222,
0,469,454,617,327,220,
0,463,449,608,326,218,
0,458,445,601,323,216,
0,455,473,595,344,214,
0,488,467,588,339,212,
0,483,462,582,337,225,
0,478,455,646,334,224,
0,472,450,637,329,222,
0,467,446,628,327,220,
0,462,440,621,323,217,
0,457,436,614,320,216,
0,451,432,605,318,214,
0,447,428,599,316,211,
0,448,491,591,347,210,
0,462,484,584,344,208,
0,455,479,579,340,240,
0,451,472,572,336,238,
0,447,467,566,333,236,
0,441,461,560,331,233,
0,438,455,555,327,231,
0,433,451,548,324,230,
0,428,447,542,321,227,
0,423,441,536,345,225,
0,561,550,531,343,224,
0,551,542,526,339,222,
0,545,536,520,336,243,
0,539,527,515,332,240,
0,532,521,511,329,238,
0,526,515,505,327,236,
0,519,510,501,323,234,
0,515,504,496,321,231,
0,508,499,491,318,230,
0,502,499,487,361,227,
0,505,522,482,358,225,
0,499,515,478,353,224,
0,495,510,473,351,222,
0,489,503,469,346,220,
0,484,497,465,344,219,
0,480,492,460,340,217,
0,475,486,456,337,216,
0,470,481,452,334,214,
0,463,476,448,331,211,
0,459,472,444,352,210,
0,561,466,440,348,208,
0,553,461,436,344,255,
0,547,456,432,341,254,
0,540,451,429,337,252,
0,535,446,425,334,249,
0,527,441,422,331,247,
0,522,438,419,327,245,
0,516,433,415,325,243,
0,509,429,412,322,240,
0,504,521,408,350,238,
0,519,513,404,346,236,
0,513,508,401,343,234,
0,508,502,398,339,231,
0,502,494,395,335,231,
0,496,488,391,332,228,
0,491,483,388,329,227,
0,486,478,385,327,225,
0,481,473,384,323,223,
0,475,467,380,321,221,
0,543,463,376,356,220,
0,579,459,374,353,217,
0,572,454,371,350,222,
0,565,449,368,346,220,
0,558,443,365,342,218,
0,551,439,362,339,216,
0,545,434,359,335,215,
0,539,430,356,332,213,
0,533,425,355,329,211,
0,526,422,352,359,209,
0,601,478,348,359,207,
0,591,472,346,356,206,
0,585,466,434,353,237,
0,577,461,429,350,235,
0,571,455,424,346,233,
0,563,449,420,343,231,
0,558,444,415,339,229,
0,551,440,480,336,227,
0,544,435,529,334,225,
0,537,449,521,370,223,
0,531,491,515,366,221,
0,526,484,510,362,231,
0,519,480,504,359,253,
0,515,474,650,355,250,
0,509,467,639,352,248,
0,504,462,632,348,246,
0,498,457,624,345,243,
0,493,452,617,342,241,
0,487,448,610,339,240,
0,482,539,601,360,237,
0,492,556,594,357,235,
0,487,548,588,353,233,
0,481,542,580,350,231,
0,477,536,575,347,229,
0,472,527,568,344,227,
0,467,521,563,340,225,
0,463,515,556,337,224,
0,457,510,551,334,222,
0,452,504,545,332,220,
0,448,499,539,354,218,
0,482,493,533,351,216,
0,476,487,527,347,242,
0,471,483,523,344,240,
0,465,478,518,340,238,
0,461,472,512,337,236,
0,455,467,508,334,233,
0,451,462,503,331,231,
0,447,457,497,327,230,
0,441,452,494,326,227,
0,492,527,487,337,225,
0,515,520,483,334,224,
0,510,515,615,331,229,
0,504,508,607,327,227,
0,498,503,600,325,225,
0,492,496,592,321,224,
0,487,491,585,319,221,
0,482,484,579,316,220,
0,476,480,572,313,217,
0,471,475,566,350,216,
0,526,470,558,354,214,
0,519,464,551,351,212,
0,512,460,547,348,216,
0,506,455,551,344,214,
0,500,450,546,341,212,
0,495,444,540,337,211,
0,489,440,535,334,209,
0,484,435,529,331,207,
0,480,432,524,327,206,
0,472,428,519,359,204,
0,475,444,512,355,202,
0,470,438,507,352,209,
0,464,433,502,348,233,
0,460,429,497,345,231,
0,455,424,492,342,230,
0,451,419,487,338,227,
