=~=~=~=~=~=~=~=~=~=~=~= PuTTY log 2021.04.22 11:24:04 =~=~=~=~=~=~=~=~=~=~=~=
,61,
0,858,306,302,31,554,
0,844,3055,30824,436,,
0,880,342,332,46,536,
0,880,339,327,45,530,
0,865,335,326,45,524,
0,851,332,322,44,519,
0,837,329,319,44,513,
0,824,436,316,45,508,
0,814,433,315,45,503,
0,801,428,312,44,497,
0,790,423,310,44,492,
0,779,419,307,44,487,
0,812,415,340,44,544,
0²bbbbbj
0,851,407,334,43,531,
0,836,403,331,StartUp!
126,833,483,344,52,555,
0,824,480,342,51,551,
0,817,476,339,51,547,
0,807,473,337,51,543,
0,798,470,335,51,539,
0,789,525,333,51,534,
0,780,519,331,50,529,
0,774,515,328,50,526,
0,766,512,327,50,521,
0,758,508,324,49,518,
0,747,502,321,49,512,
0,860,496,339,48,560,
0,844,491,336,48,553,
0,833,486,333,48,547,
0,819,480,329,48,540,
0,807,476,327,47,535,
0,795,484,324,47,528,
0,783,478,321,47,523,
0,771,473,319,46,517,
0,760,467,316,46,511,
0,749,464,313,45,505,
0,785,460,339,45,553,
0,846,455,335,44,547,
0,831,451,332,44,542,
0,817,446,329,44,536,
0,805,441,327,44,529,
0,792,438,324,44,524,
0,783,472,321,43,518,
0,771,466,319,43,512,
0,760,461,316,43,506,
0,750,455,313,42,500,
0,739,451,339,41,547,
0,846,449,336,41,543,
0,835,444,333,41,536,
0,822,440,330,41,531,
0,809,436,327,41,524,
0,796,432,324,43,519,
0,784,486,321,46,513,
0,773,480,319,46,508,
0,761,475,316,45,504,
0,752,470,313,45,497,
0,743,464,321,44,555,
0,855,460,350,44,547,
0,839,455,347,44,540,
0,825,449,344,44,534,
0,812,445,339,43,527,
0,799,440,337,46,523,
0,787,537,334,63,516,
0,775,531,331,63,511,
0,764,526,327,63,505,
0,753,519,325,62,499,
0,743,513,324,62,557,
1,857,508,366,61,551,
1,841,502,363,60,543,
1,828,496,359,60,538,
1,818,491,356,60,531,
2,805,486,353,59,526,
2,793,561,350,70,519,
2,780,552,347,70,514,
3,769,545,344,68,508,
3,758,539,340,68,503,
3,748,533,337,67,504,
3,807,528,371,67,560,
3,850,523,367,66,553,
3,835,516,364,66,547,
3,822,511,359,65,540,
3,809,505,356,65,536,
3,797,515,353,67,530,
4,784,566,350,67,524,
3,774,559,348,66,518,
3,764,552,344,65,513,
4,753,545,342,65,507,
4,743,540,372,64,568,
4,857,533,368,63,561,
4,843,527,364,63,555,
4,829,521,361,63,548,
4,816,517,358,63,542,
4,803,511,355,73,536,
4,792,505,352,76,529,
4,779,500,348,75,524,
4,768,495,345,74,519,
4,757,489,342,73,513,
4,746,485,377,73,604,
4,868,480,374,71,595,
3,856,475,370,71,587,
3,843,470,367,71,580,
3,829,465,364,71,573,
3,816,460,359,71,568,
3,803,528,356,72,560,
3,792,521,353,71,553,
3,779,515,350,71,547,
3,768,511,348,71,542,
3,757,505,345,71,594,
3,880,499,370,70,585,
3,864,494,367,69,579,
4,849,489,363,68,573,
3,835,483,359,68,567,
3,823,479,358,67,560,
3,814,519,354,81,554,
3,800,512,351,79,547,
3,788,506,348,79,542,
3,776,500,344,78,536,
3,766,495,342,78,535,
3,835,489,364,77,585,
3,875,483,359,76,578,
3,860,480,357,76,572,
3,846,475,353,76,565,
3,831,470,350,75,558,
3,819,465,347,76,551,
3,806,460,344,76,547,
3,793,455,341,75,541,
3,782,451,338,75,535,
3,774,447,335,74,529,
3,763,443,364,73,583,
3,880,438,359,72,575,
3,864,434,356,72,569,
3,851,430,353,71,562,
3,836,425,350,71,556,
3,824,432,347,71,550,
3,811,463,344,71,543,
3,798,457,340,70,537,
3,787,452,337,69,531,
3,775,448,335,69,526,
3,764,444,359,68,575,
3,875,439,355,67,568,
3,860,433,352,67,560,
2,849,430,350,67,553,
2,835,425,346,66,547,
3,822,421,343,75,542,
3,809,440,339,75,536,
2,797,435,337,73,529,
3,785,430,334,73,524,
3,774,425,331,71,518,
3,763,423,352,71,582,
2,873,418,351,71,574,
2,859,414,348,71,568,
2,844,411,344,70,560,
3,830,407,342,70,556,
2,817,403,338,69,549,
2,804,399,335,70,543,
2,792,396,333,70,536,
2,783,393,329,69,531,
1,772,390,327,68,525,
2,761,387,324,67,567,
2,854,384,359,67,591,
1,858,380,355,67,584,
1,844,377,352,66,577,
1,831,375,348,65,571,
2,817,371,345,65,564,
2,805,452,342,65,558,
1,792,477,339,65,551,
1,780,472,335,64,547,
2,769,466,333,63,540,
1,758,461,330,63,535,
1,839,455,357,63,588,
1,860,451,353,62,579,
1,845,446,350,62,573,
1,831,441,347,62,566,
1,818,437,344,60,560,
1,806,455,340,63,553,
1,793,463,337,63,547,
1,781,459,334,63,540,
1,769,455,331,63,535,
1,759,449,328,62,529,
1,752,446,361,62,583,
1,863,440,358,61,575,
1,847,435,354,60,571,
1,834,431,351,60,564,
1,821,427,348,60,558,
1,812,423,345,65,551,
1,799,422,342,65,545,
1,787,417,339,63,539,
0,775,414,335,63,533,
0,764,409,333,63,527,
1,753,407,356,63,566,
1,872,401,352,62,558,
0,857,399,349,62,551,
1,844,396,345,61,545,
1,830,391,343,61,539,
0,816,388,339,60,533,
1,804,478,336,60,527,
0,792,472,334,60,522,
0,780,466,331,60,516,
0,771,461,327,59,511,
0,760,455,326,59,568,
0,865,451,363,58,588,
0,857,446,359,57,580,
0,843,441,356,57,574,
0,830,437,353,56,567,
0,817,432,350,56,560,
1,804,476,347,60,553,
0,792,468,344,59,547,
0,780,463,339,59,541,
0,769,458,337,59,536,
0,758,454,334,58,531,
0,856,449,350,57,580,
0,863,444,346,57,574,
0,848,439,344,56,567,
0,838,435,340,56,560,
0,824,430,337,56,553,
0,812,459,334,59,547,
0,799,452,331,58,540,
0,787,448,327,57,535,
0,775,443,326,57,529,
0,764,440,323,56,523,
0,779,435,327,56,567,
0,867,430,324,56,560,
0,852,425,321,56,553,
0,839,422,319,55,548,
0,825,417,316,55,542,
0,812,414,313,60,536,
0,799,444,312,60,529,
0,791,440,308,59,524,
0,779,435,307,59,518,
0,768,430,304,58,513,
0,756,425,325,57,563,
0,867,421,321,57,556,
0,852,416,318,57,549,
0,838,412,315,56,543,
0,825,409,312,56,536,
0,812,406,310,56,531,
0,799,467,307,56,524,
0,787,462,304,56,519,
0,775,457,302,55,515,
0,765,451,300,55,509,
0,753,448,297,54,563,
0,867,442,319,54,556,
0,851,438,318,53,548,
0,837,433,315,52,542,
0,824,429,312,52,536,
0,811,423,308,51,529,
0,799,459,306,57,524,
0,786,453,304,57,518,
0,775,449,301,56,512,
0,764,444,298,56,507,
0,752,440,295,56,567,
0,865,435,326,55,558,
0,850,431,323,54,553,
0,836,426,319,54,546,
0,823,422,316,54,540,
0,813,417,315,53,534,
0,800,528,312,60,527,
0,788,534,308,60,521,
0,776,527,306,60,516,
0,765,520,304,59,510,
0,755,515,301,58,504,
0,797,509,321,57,551,
0,852,504,318,57,545,
0,838,499,315,57,539,
0,824,494,312,56,532,
0,812,488,310,56,527,
0,799,511,307,57,522,
0,787,583,304,57,516,
0,775,575,302,56,511,
0,767,569,300,56,505,
0,755,563,297,56,499,
0,745,556,323,55,558,
0,856,550,319,55,551,
0,842,543,316,54,544,
0,828,536,313,54,538,
0,816,531,311,53,532,
0,803,527,307,53,526,
0,791,543,304,55,519,
0,779,536,302,55,514,
0,768,530,299,54,508,
0,756,524,296,54,504,
0,745,519,332,53,560,
0,862,513,327,52,551,
0,847,507,326,52,545,
0,836,502,322,51,539,
0,824,496,319,51,532,
0,810,492,316,51,527,
0,798,497,313,59,520,
0,786,492,311,59,515,
0,775,487,307,58,509,
0,763,483,305,57,504,
0,752,478,303,57,573,
0,871,472,331,57,564,
0,856,468,327,56,558,
0,841,463,324,56,552,
0,828,459,321,56,546,
0,814,455,319,55,540,
0,802,483,316,56,534,
0,792,478,313,55,527,
0,781,472,311,55,521,
0,769,467,308,54,516,
0,759,462,305,54,511,
0,816,456,327,54,572,
0,866,451,324,52,564,
0,851,448,321,52,558,
0,838,444,319,52,551,
0,824,440,316,51,545,
0,812,435,312,55,539,
0,799,432,310,54,532,
0,787,428,307,54,527,
0,775,423,304,54,523,
0,764,420,303,53,516,
0,756,416,324,52,582,
0,873,412,321,51,575,
0,859,408,318,51,568,
0,844,406,315,51,561,
0,831,401,312,50,555,
0,818,474,310,53,548,
0,805,515,306,53,542,
0,793,511,304,52,536,
0,781,504,301,51,529,
0,769,499,299,51,524,
0,759,494,332,51,580,
0,871,487,327,50,574,
0,856,483,325,50,568,
0,841,478,322,49,560,
0,831,472,319,49,554,
0,818,467,317,49,548,
0,806,560,315,56,541,
0,793,552,312,55,536,
0,782,546,308,55,529,
0,770,540,306,54,524,
0,760,534,309,54,591,
0,875,528,327,53,582,
0,860,523,325,52,575,
0,846,517,322,52,568,
0,831,511,319,52,561,
0,819,505,316,51,557,
0,806,500,313,60,551,
0,793,495,311,59,543,
0,784,489,308,59,537,
0,773,484,305,57,532,
0,762,480,303,57,527,
0,839,475,316,56,560,
0,860,470,313,56,552,
0,846,465,310,56,546,
0,832,460,307,56,540,
0,819,457,304,55,534,
0,807,452,302,55,527,
0,794,448,299,54,521,
0,783,444,296,54,516,
0,771,440,295,53,512,
0,760,435,291,53,507,
0,822,432,313,52,568,
0,856,427,312,52,561,
0,844,423,307,51,554,
0,831,419,305,51,547,
0,817,415,303,51,541,
0,806,439,300,51,536,
0,793,465,297,51,529,
0,780,460,295,51,523,
0,769,455,292,51,518,
0,759,451,289,50,512,
0,748,447,315,49,558,
0,857,441,312,49,551,
0,843,437,308,49,545,
0,829,432,305,48,540,
0,816,428,303,48,534,
0,803,423,301,51,527,
0,795,512,298,50,521,
0,782,505,295,49,515,
0,771,499,293,49,510,
0,760,494,291,49,504,
0,749,489,310,48,562,
0,871,483,314,48,555,
0,856,478,311,48,547,
0,841,474,308,47,542,
0,828,470,305,47,535,
0,815,463,303,47,529,
0,802,470,300,48,523,
0,790,464,297,47,519,
0,778,460,295,47,513,
0,768,455,292,46,507,
0,759,451,291,46,531,
0,851,446,327,46,551,
0,856,441,324,45,543,
0,842,437,321,45,537,
0,828,432,319,44,531,
0,815,428,316,44,525,
0,803,457,312,53,519,
0,791,454,310,52,513,
0,779,448,307,52,508,
0,768,444,304,51,503,
0,756,439,302,51,518,
0,840,435,333,51,553,
0,856,430,329,50,546,
0,843,425,327,49,540,
0,831,421,324,49,534,
0,819,417,321,48,527,
0,806,438,319,56,521,
0,793,444,316,56,515,
0,782,438,312,55,510,
0,770,433,310,54,504,
0,760,429,307,54,499,
0,752,427,345,54,536,
0,860,421,342,53,529,
0,845,417,339,52,524,
0,831,413,335,52,518,
0,819,409,332,52,513,
0,806,417,329,51,508,
0,793,518,327,51,502,
0,782,511,324,51,496,
0,772,504,321,51,492,
0,761,499,319,50,487,
0,751,494,345,49,552,
0,867,487,341,49,545,
0,852,483,337,49,539,
0,839,478,335,48,532,
0,825,474,332,48,526,
0,812,469,327,48,520,
0,799,504,326,49,515,
0,787,498,323,49,509,
0,775,492,319,48,504,
0,764,487,317,48,499,
0,754,481,345,48,550,
0,868,476,345,47,555,
0,857,471,342,47,547,
0,843,466,339,46,541,
0,829,461,335,46,535,
0,816,455,332,46,528,
0,803,487,329,47,523,
0,792,483,327,46,517,
0,780,477,323,46,511,
0,768,473,319,46,505,
0,758,467,318,45,543,
0,857,463,337,45,561,
0,857,457,334,44,556,
0,844,453,331,44,550,
0,830,448,327,44,543,
0,816,444,326,44,536,
0,807,473,323,44,531,
0,795,467,319,43,524,
0,783,462,317,43,519,
0,771,455,314,43,513,
0,760,451,312,42,508,
0,776,447,353,41,570,
0,862,442,349,41,563,
0,847,439,346,41,556,
0,833,434,343,40,550,
0,820,430,339,40,543,
0,807,425,336,44,537,
0,795,433,334,44,532,
0,783,428,331,43,527,
0,771,423,327,43,521,
0,764,420,326,42,515,
0,752,416,341,42,571,
0,867,412,337,41,563,
0,851,408,334,41,557,
0,838,404,331,41,551,
0,824,401,327,40,543,
0,811,398,325,40,537,
0,799,435,322,41,531,
0,786,430,319,40,526,
0,775,425,316,40,519,
0,764,421,313,39,515,
0,752,416,342,39,572,
0,867,412,337,39,564,
0,852,408,334,39,558,
0,841,404,332,39,551,
0,828,399,329,39,543,
0,815,396,326,39,538,
0,803,423,323,42,532,
0,790,418,319,41,526,
0,779,414,317,41,519,
0,768,409,315,40,515,
0,756,406,312,40,566,
0,871,402,329,39,560,
0,860,398,326,39,552,
0,846,394,323,39,546,
0,831,391,319,39,542,
0,819,387,317,39,536,
0,806,384,315,48,529,
0,793,381,312,47,523,
0,785,377,310,47,518,
0,773,375,307,46,512,
0,763,371,304,46,507,
0,794,368,348,45,555,
0,864,365,344,45,547,
0,849,362,341,44,541,
0,835,359,337,44,536,
0,822,358,335,44,528,
0,809,380,332,44,523,
0,796,454,328,44,517,
0,784,448,326,44,512,
0,773,444,323,43,507,
0,762,440,319,43,502,
0,781,435,350,43,582,
0,870,430,345,42,574,
0,855,425,342,41,567,
0,840,421,339,41,560,
0,827,417,335,40,553,
0,814,413,333,43,547,
0,801,430,329,42,541,
0,790,425,327,41,535,
0,777,422,323,41,529,
0,766,417,321,41,524,
0,755,414,343,40,568,
0,872,409,339,39,561,
0,857,405,335,39,556,
0,843,401,332,39,550,
0,830,398,330,39,543,
0,819,393,327,39,537,
0,807,488,324,40,531,
0,795,483,321,39,525,
0,783,477,318,39,519,
0,771,472,316,39,513,
0,760,467,313,39,579,
0,883,462,335,39,571,
0,869,457,333,39,564,
0,855,452,329,38,557,
0,840,448,327,38,551,
0,827,444,323,38,544,
0,814,440,321,42,540,
0,801,435,318,41,534,
0,790,430,315,41,527,
0,781,425,313,41,522,
0,769,422,311,40,518,
0,823,417,337,39,583,
0,869,414,334,39,577,
0,855,409,331,39,569,
0,839,406,327,39,563,
0,827,402,325,39,556,
0,814,399,322,43,551,
0,801,396,319,42,543,
0,789,392,316,41,537,
0,777,389,313,41,532,
0,767,385,311,41,527,
0,806,383,331,39,581,
0,868,379,327,39,574,
0,857,376,324,39,567,
0,843,372,321,39,560,
0,829,369,319,39,553,
0,816,371,316,39,547,
0,804,423,313,39,540,
0,792,419,310,39,535,
0,780,415,307,38,528,
0,769,411,305,38,523,
0,758,408,337,38,584,
0,874,403,334,38,577,
0,860,399,331,37,569,
0,845,395,327,36,565,
0,831,391,324,36,558,
0,818,387,321,37,552,
0,806,434,319,41,545,
0,796,429,316,41,540,
0,784,424,313,41,534,
0,774,419,312,40,527,
0,761,415,319,39,591,
0,879,412,342,39,583,
0,863,407,338,39,576,
0,848,404,335,39,569,
0,835,399,332,39,563,
0,822,396,328,39,557,
0,808,423,326,39,550,
0,796,417,323,39,545,
0,784,413,319,39,540,
0,773,409,317,38,534,
0,761,404,315,38,547,
0,839,400,352,38,585,
0,861,396,348,37,578,
0,847,391,344,37,571,
0,833,388,341,36,564,
0,819,385,337,36,558,
0,807,456,335,39,551,
0,795,451,332,39,545,
0,783,447,328,38,539,
0,771,441,326,38,533,
0,760,437,323,38,527,
0,825,432,339,37,583,
0,869,428,336,37,577,
0,855,423,333,36,571,
0,840,419,330,36,564,
0,830,415,327,35,558,
0,817,412,325,36,551,
0,804,414,322,35,545,
0,792,409,319,35,539,
0,780,406,316,35,532,
0,769,401,313,35,527,
0,759,398,350,35,553,
0,881,396,346,34,547,
0,865,391,343,34,540,
0,851,387,339,34,534,
0,836,384,336,33,528,
0,824,380,334,34,524,
0,811,449,331,34,518,
0,799,444,327,34,512,
0,790,439,326,33,507,
0,778,434,323,33,502,
0,768,430,337,33,556,
0,883,425,339,32,549,
0,867,420,335,31,542,
0,852,415,332,31,536,
0,839,412,329,31,529,
0,825,409,327,31,524,
0,812,470,323,33,518,
0,799,463,319,33,512,
0,787,459,318,33,507,
0,775,454,316,33,503,
0,765,449,331,32,531,
0,880,444,342,31,551,
0,864,440,339,31,543,
0,852,435,335,31,537,
0,839,430,333,31,531,
0,825,425,329,31,526,
0,813,464,327,36,519,
0,799,459,323,35,514,
0,788,454,321,35,508,
0,776,450,318,35,504,
0,765,445,316,35,535,
0,850,440,337,35,571,
0,867,435,334,34,564,
0,852,431,331,34,559,
0,839,427,327,33,551,
0,825,423,324,33,545,
0,813,447,323,48,540,
0,803,455,319,48,534,
0,791,449,317,47,527,
0,779,444,314,46,522,
0,768,440,312,46,516,
0,769,435,338,46,568,
0,880,431,334,45,560,
0,864,426,332,45,553,
0,850,423,327,44,547,
0,836,419,325,44,541,
0,824,415,323,48,535,
0,811,415,319,47,530,
0,798,412,316,47,524,
0,786,408,313,46,519,
0,775,403,312,46,513,
0,766,399,343,46,568,
0,880,396,339,45,561,
0,864,391,335,45,555,
0,850,388,332,44,547,
0,836,385,328,44,542,
0,823,382,326,48,536,
0,810,411,323,48,529,
0,798,408,319,48,523,
0,785,403,317,47,518,
0,775,399,315,47,512,
0,763,395,339,47,551,
0,875,391,335,46,546,
0,860,387,331,45,540,
0,846,384,327,45,533,
0,835,380,326,44,527,
0,822,376,323,44,521,
0,809,401,319,44,515,
0,797,397,317,45,510,
0,785,392,315,44,504,
0,773,389,312,44,499,
0,762,385,309,43,504,
0,864,382,327,43,512,
0,865,378,325,43,506,
0,851,375,321,42,500,
0,837,371,319,41,495,
0,824,368,316,41,491,
0,812,412,313,50,486,
0,799,406,311,49,481,
0,790,401,308,49,476,
0,777,398,306,49,472,
0,766,393,304,48,467,
0,787,390,329,48,534,
0,870,385,326,47,527,
0,855,382,323,47,521,
0,840,377,319,47,515,
0,827,376,316,46,510,
0,814,376,313,48,504,
0,801,460,312,48,498,
0,790,454,308,48,493,
0,777,449,305,47,489,
0,767,444,303,47,484,
0,774,440,327,47,545,
0,871,435,323,46,539,
0,861,430,319,46,532,
0,846,425,318,45,526,
0,833,422,315,44,519,
0,819,417,312,54,515,
0,807,414,309,53,508,
0,795,409,306,52,504,
0,783,406,304,52,497,
0,771,402,301,51,492,
0,760,398,331,51,551,
0,875,395,327,51,545,
0,859,391,323,50,540,
0,844,387,319,50,534,
0,831,384,317,49,527,
0,818,380,315,49,521,
0,808,473,312,51,515,
0,796,467,310,50,510,
0,783,462,307,50,504,
0,773,457,304,49,499,
0,761,452,302,49,521,
0,875,448,319,48,515,
0,862,443,316,48,508,
0,847,439,313,48,503,
0,834,434,310,47,497,
0,820,430,307,47,492,
0,807,467,304,51,487,
0,795,460,302,51,483,
0,783,455,300,51,478,
0,771,451,297,50,473,
0,764,446,295,49,468,
0,803,441,319,49,513,
0,870,436,317,49,507,
0,855,432,313,48,502,
0,840,428,311,48,496,
0,827,423,308,48,490,
0,814,468,305,51,485,
0,801,463,303,51,480,
0,790,457,300,50,475,
0,777,453,297,49,470,
0,767,448,295,49,465,
0,793,444,320,49,518,
0,873,439,317,48,511,
0,859,434,314,48,505,
0,847,430,312,47,499,
0,834,425,310,47,494,
0,821,420,307,47,488,
0,807,443,304,47,483,
0,796,438,301,47,478,
0,783,433,299,46,472,
0,772,428,295,46,467,
0,761,425,333,46,550,
0,876,421,328,45,542,
0,862,417,326,44,536,
0,847,412,323,44,529,
0,833,408,319,44,525,
0,820,404,317,44,519,
0,807,440,313,48,513,
0,798,435,312,47,508,
0,787,430,309,47,503,
0,775,425,307,47,496,
0,764,421,304,46,560,
0,880,417,327,45,551,
0,864,412,323,45,544,
0,849,408,320,44,539,
0,835,405,318,44,532,
0,822,401,315,44,527,
0,809,463,312,46,519,
0,797,457,309,46,515,
0,785,452,306,45,510,
0,774,448,304,44,504,
0,763,443,301,44,499,
0,880,439,327,44,555,
0,868,433,324,43,548,
0,854,429,321,43,542,
0,839,424,318,43,536,
0,826,420,315,42,529,
0,814,470,312,50,523,
0,800,463,310,49,518,
0,788,460,307,49,511,
0,777,455,304,48,506,
0,766,450,302,48,500,
0,815,445,321,48,560,
0,867,440,319,47,555,
0,851,435,316,47,548,
0,838,432,312,46,542,
0,824,427,311,46,536,
0,816,425,307,53,530,
0,803,466,305,52,524,
0,791,460,303,51,519,
0,779,455,300,51,512,
0,768,451,297,51,507,
0,757,446,327,51,568,
0,876,441,323,50,561,
0,860,438,319,49,555,
0,846,433,317,49,548,
0,831,428,314,48,542,
0,819,423,312,51,536,
0,807,467,308,52,531,
0,795,462,305,51,525,
0,783,455,304,51,519,
0,774,451,301,50,513,
0,763,447,312,50,551,
0,883,441,315,49,543,
0,866,437,312,49,536,
0,852,432,310,48,531,
0,839,428,306,48,524,
0,824,423,304,48,519,
0,812,420,301,54,512,
0,799,416,298,53,507,
0,787,412,295,52,502,
0,775,408,294,52,496,
0,764,404,295,51,515,
0,870,400,313,51,540,
0,855,396,310,51,534,
0,844,393,307,50,527,
0,830,390,305,50,522,
0,817,386,302,49,516,
0,804,444,300,50,510,
0,792,440,297,50,504,
0,780,434,294,49,499,
0,768,430,291,49,494,
0,758,426,289,49,507,
0,836,422,323,48,545,
0,854,417,319,48,539,
0,839,413,317,47,532,
0,825,408,313,47,527,
0,813,405,312,47,521,
0,800,408,308,50,515,
0,788,423,306,50,510,
0,780,419,304,49,504,
0,768,415,301,49,499,
0,757,410,299,48,494,
0,747,406,329,48,540,
0,856,401,326,48,534,
0,841,398,323,47,527,
0,828,395,319,47,521,
0,814,391,316,46,515,
0,802,399,313,47,510,
0,790,519,311,47,504,
0,777,512,308,46,500,
0,767,505,305,46,495,
0,755,500,303,46,489,
0,745,495,327,45,547,
0,860,489,328,45,540,
0,845,483,326,44,534,
0,831,479,323,44,527,
0,818,473,319,44,521,
0,806,468,317,47,515,
0,793,500,313,48,510,
0,781,494,312,47,504,
0,770,489,308,47,499,
0,759,484,306,46,494,
0,748,480,319,46,553,
0,876,473,331,46,547,
0,860,468,327,45,540,
0,846,463,324,44,534,
0,831,459,322,44,527,
0,823,454,319,44,522,
0,810,495,316,49,516,
0,797,488,313,49,510,
0,785,483,311,48,504,
0,774,478,308,48,499,
0,763,472,305,47,514,
0,845,467,331,47,550,
0,866,463,327,46,543,
0,851,459,324,46,536,
0,838,454,321,46,530,
0,824,449,318,45,524,
0,812,475,316,47,519,
0,799,475,312,47,513,
0,787,469,310,46,508,
0,778,463,307,46,503,
0,768,459,305,46,497,
0,766,454,333,45,557,
0,873,449,329,45,550,
0,859,444,327,44,543,
0,844,440,323,44,537,
0,831,435,321,44,531,
0,817,432,318,56,525,
0,805,455,315,55,519,
0,792,450,312,54,513,
0,781,445,310,54,508,
0,769,440,307,53,504,
0,760,436,328,52,559,
0,876,431,325,52,551,
0,865,427,323,51,544,
0,851,423,319,51,538,
0,836,419,317,51,532,
0,823,415,314,54,526,
0,810,483,312,53,519,
0,798,477,308,52,515,
0,785,472,305,51,508,
0,775,467,303,51,504,
0,763,463,312,51,563,
0,875,457,310,51,556,
0,860,452,306,50,550,
0,846,448,304,50,544,
0,831,443,301,49,538,
0,819,439,299,49,532,
0,806,494,295,49,526,
0,797,487,294,48,520,
0,784,482,291,48,515,
0,774,477,289,47,509,
0,762,472,287,47,553,
0,867,467,311,47,561,
0,864,462,307,46,554,
0,849,457,304,46,547,
0,835,453,302,46,541,
0,823,448,300,45,536,
0,809,470,296,60,529,
0,798,463,294,59,524,
0,785,459,291,59,519,
0,774,454,289,58,513,
0,763,448,287,57,508,
0,791,444,316,57,543,
0,867,440,312,57,536,
0,852,435,310,56,530,
0,838,431,307,56,524,
0,824,427,304,55,518,
0,812,492,302,55,512,
0,799,508,299,55,507,
0,787,504,295,54,502,
0,775,497,294,54,496,
0,764,492,291,53,491,
0,778,487,312,53,549,
0,869,481,310,52,543,
0,855,476,307,51,537,
0,840,472,304,51,531,
0,830,466,302,51,525,
0,817,461,299,54,519,
0,804,489,295,53,513,
0,792,484,294,52,508,
0,780,479,291,52,502,
0,769,473,288,51,497,
0,759,468,318,51,521,
0,870,463,313,51,515,
0,855,459,311,51,509,
0,840,455,308,50,504,
0,827,450,305,49,497,
0,814,445,302,49,494,
0,801,441,300,51,487,
0,790,436,297,51,483,
0,780,432,295,51,479,
0,769,428,292,50,473,
0,759,423,290,50,540,
0,875,419,313,49,535,
0,860,415,311,49,527,
0,845,412,307,48,521,
0,831,408,305,48,515,
0,818,406,302,48,510,
0,806,460,300,49,504,
0,793,455,296,49,499,
0,781,449,294,49,494,
0,770,444,291,48,489,
0,759,440,289,48,484,
0,870,435,319,48,542,
0,865,431,318,47,535,
0,850,427,315,47,527,
0,836,422,312,46,522,
0,824,417,309,46,516,
0,811,449,306,46,511,
0,798,444,304,46,504,
0,785,440,300,46,499,
0,774,435,298,45,494,
0,763,431,295,45,488,
0,798,427,319,44,492,
0,867,422,316,44,486,
0,852,417,313,44,481,
0,838,413,310,44,477,
0,824,409,307,43,472,
0,812,451,305,50,467,
0,803,531,303,49,463,
0,790,525,300,48,458,
0,779,519,297,48,454,
0,768,513,295,48,449,
0,756,508,320,47,507,
0,868,502,316,47,500,
0,854,497,313,46,495,
0,839,492,311,46,489,
0,825,487,308,46,483,
0,812,481,305,46,479,
0,800,476,303,55,475,
0,788,472,300,54,470,
0,776,467,297,53,464,
0,765,462,295,52,460,
0,757,457,295,52,519,
0,874,452,313,51,512,
0,858,448,311,51,507,
0,844,444,307,51,500,
0,830,440,305,51,495,
0,817,435,302,50,489,
0,804,484,300,53,484,
0,792,480,296,52,480,
0,780,475,295,51,474,
0,769,469,291,51,469,
0,758,463,289,51,529,
0,875,459,324,51,523,
0,859,455,321,50,517,
0,844,449,318,49,511,
0,834,444,316,49,505,
0,820,440,313,48,499,
0,807,479,310,48,494,
0,796,472,307,48,488,
0,783,467,304,48,483,
0,772,462,302,47,478,
0,761,457,300,47,473,
0,816,454,322,47,535,
0,860,448,319,46,528,
0,846,444,316,46,523,
0,832,440,313,45,516,
0,819,435,310,44,512,
0,807,431,307,47,506,
0,794,449,305,46,500,
0,785,444,303,46,496,
0,774,440,300,46,490,
0,763,435,297,46,484,
0,752,431,328,45,556,
0,867,427,324,44,549,
0,852,423,322,44,543,
0,838,419,319,44,536,
0,824,415,316,43,530,
0,812,412,313,51,524,
0,799,421,310,50,518,
0,787,416,307,49,512,
0,775,412,304,49,508,
0,764,408,302,49,503,
0,753,404,323,48,556,
0,864,400,321,48,548,
0,853,397,318,47,542,
0,839,393,315,47,536,
0,825,390,312,47,529,
0,813,387,309,47,524,
0,800,450,307,48,518,
0,788,445,304,47,512,
0,776,441,301,47,507,
0,765,436,299,46,501,
0,754,432,300,46,562,
0,867,428,318,45,555,
0,852,423,315,45,550,
0,838,419,312,44,543,
0,824,415,308,44,536,
0,812,410,307,44,531,
0,803,500,304,49,524,
0,790,494,301,48,519,
0,778,487,299,48,513,
0,768,483,295,48,508,
0,756,478,294,48,511,
0,833,472,323,47,550,
0,860,467,319,47,543,
0,844,463,316,46,536,
0,831,458,313,46,531,
0,817,454,311,45,524,
0,806,454,308,48,519,
0,793,451,305,48,514,
0,781,446,303,47,508,
0,769,441,300,47,503,
0,761,436,298,47,497,
0,751,432,325,46,550,
0,864,428,321,46,542,
0,849,423,319,45,536,
0,835,419,316,44,529,
0,822,415,312,44,524,
0,809,436,310,51,518,
0,797,472,307,50,512,
0,784,467,304,50,506,
0,774,461,302,49,500,
0,762,455,299,49,496,
0,752,451,324,48,502,
0,864,446,321,48,495,
0,849,441,318,48,489,
0,839,437,316,47,485,
0,825,432,312,47,480,
0,812,428,310,53,476,
0,799,543,307,52,470,
0,787,536,304,52,465,
0,775,529,302,51,461,
0,765,523,299,51,455,
0,754,519,321,51,527,
0,872,512,327,50,520,
0,857,507,324,49,514,
0,843,501,321,49,508,
0,829,496,318,49,504,
0,816,491,315,48,499,
0,803,513,312,62,493,
0,794,506,311,61,487,
0,782,500,307,60,483,
0,771,495,305,60,477,
0,760,489,302,60,504,
0,856,484,312,59,521,
0,853,479,308,59,515,
0,839,473,305,57,508,
0,825,471,303,57,504,
0,812,465,300,57,497,
0,799,508,298,57,492,
0,788,515,295,56,487,
0,775,509,292,56,483,
0,765,504,291,56,478,
0,753,497,287,55,472,
0,843,492,323,55,524,
0,847,487,319,54,518,
0,833,481,316,54,512,
0,819,476,313,53,505,
0,807,472,312,53,500,
0,795,546,308,62,495,
0,783,560,305,61,489,
0,771,555,303,61,484,
0,760,547,300,60,479,
0,749,541,297,60,473,
0,751,536,334,59,510,
0,844,528,329,59,505,
0,830,523,327,58,499,
0,816,517,323,57,494,
0,803,511,321,57,488,
0,794,505,319,57,483,
0,782,583,316,56,478,
0,771,575,312,56,472,
0,760,568,310,56,467,
0,749,561,307,55,463,
0,738,556,329,55,531,
0,851,548,325,54,524,
0,836,543,322,54,518,
0,823,537,319,53,512,
0,809,531,316,52,507,
0,797,526,313,52,501,
0,785,608,311,53,496,
0,774,600,307,53,491,
0,761,592,305,52,486,
0,754,585,303,51,481,
0,743,578,300,51,529,
0,844,571,327,51,521,
0,829,564,323,51,515,
0,816,558,319,50,509,
0,803,551,318,49,504,
0,790,545,315,49,497,
0,779,564,312,54,492,
0,767,557,309,53,487,
0,755,550,306,52,482,
0,745,543,304,51,477,
0,735,537,301,51,472,
0,847,531,327,51,527,
0,833,526,323,51,521,
0,823,519,321,50,515,
0,809,515,318,49,510,
0,797,509,315,49,504,
0,785,551,312,57,498,
0,773,544,310,56,492,
0,762,537,307,56,487,
0,751,531,304,56,483,
0,740,527,302,56,478,
0,764,521,327,55,536,
0,835,515,323,54,530,
0,821,509,319,54,524,
0,807,504,318,54,519,
0,795,499,315,52,513,
0,783,494,312,52,508,
0,775,527,310,52,502,
0,763,521,307,51,496,
0,752,515,304,51,492,
0,742,510,302,51,487,
0,732,504,323,51,540,
0,838,498,319,50,534,
0,824,493,317,49,527,
0,811,489,314,49,520,
0,798,484,312,49,515,
0,785,480,308,49,510,
0,775,523,305,51,504,
0,763,515,303,51,499,
0,752,510,300,51,494,
0,742,504,297,50,488,
0,731,499,296,50,555,
0,843,493,336,49,547,
0,828,487,333,49,540,
0,814,482,329,48,534,
0,801,477,327,48,527,
0,789,472,323,48,521,
0,777,615,321,48,515,
0,766,608,318,48,510,
0,755,600,315,48,504,
0,743,59StartUp!
126,896,504,340,56,502,
0,883,499,339,56,498,
0,876,495,335,56,496,
0,865,492,334,56,491,
0,855,488,332,55,487,
0,844,484,329,55,483,
0,834,492,327,56,479,
0,827,487,326,56,476,
0,817,484,323,55,472,
0,808,480,321,55,468,
0,796,476,319,54,463,
0,783,471,316,54,460,
0,876,466,318,54,521,
0,896,462,315,53,515,
0,878,457,312,52,509,
0,863,453,310,52,504,
0,849,449,307,51,498,
0,835,496,304,51,492,
0,822,489,302,51,487,
0,809,483,299,51,482,
0,797,479,296,50,476,
0,785,473,295,50,472,
0,805,469,316,49,528,
0,891,463,312,49,524,
0,875,459,309,48,518,
0,860,454,307,48,512,
0,846,449,304,48,505,
0,836,444,302,48,500,
0,823,494,299,47,495,
0,809,488,295,47,489,
0,798,483,294,47,484,
0,785,477,291,46,480,
0,774,475,313,47,547,
0,895,470,311,46,540,
0,879,465,307,46,534,
0,864,460,305,45,527,
0,849,455,302,45,521,
0,835,451,300,47,515,
0,823,579,295,60,511,
0,810,571,294,60,505,
0,798,563,291,59,500,
0,789,556,290,59,495,
0,777,550,289,58,559,
0,890,543,332,57,551,
0,883,537,327,57,543,
0,867,531,325,56,537,
0,854,525,322,56,531,
0,839,519,319,63,526,
0,826,569,316,77,519,
1,813,561,313,76,513,
1,801,555,311,76,508,
1,789,547,308,75,503,
2,777,541,305,74,506,
3,887,535,353,73,561,
3,876,528,350,73,554,
3,864,523,348,71,547,
3,850,517,344,71,541,
4,836,511,341,71,535,
4,824,598,338,73,528,
5,810,588,335,71,523,
5,798,580,332,71,517,
6,786,574,329,71,512,
6,775,568,326,71,507,
6,830,562,370,70,569,
6,884,555,366,70,563,
6,868,548,363,69,556,
6,855,543,359,68,551,
6,840,536,355,67,544,
6,827,531,352,81,539,
7,814,563,350,80,532,
6,804,555,347,79,526,
6,792,548,344,79,520,
6,781,542,341,78,515,
7,770,536,380,78,566,
7,891,529,376,77,559,
7,874,524,371,76,551,
7,859,519,368,76,545,
7,845,513,365,75,539,
7,831,508,361,79,533,
7,819,588,358,80,527,
7,806,580,355,79,522,
7,794,573,352,79,516,
7,783,567,349,79,511,
6,771,560,355,78,572,
7,888,552,376,77,564,
6,871,546,371,76,558,
6,857,540,368,76,551,
6,844,534,365,76,545,
6,830,527,361,75,539,
6,817,603,358,79,532,
6,804,595,355,78,527,
6,792,589,352,78,520,
6,780,582,348,78,515,
6,769,575,347,76,583,
6,889,568,371,76,575,
6,878,561,368,76,570,
6,863,555,364,75,563,
6,849,548,361,74,557,
5,839,543,359,73,551,
6,825,585,355,79,544,
5,812,577,352,78,538,
6,799,570,349,77,532,
5,788,563,345,76,527,
5,776,556,343,76,534,
5,844,550,376,76,588,
5,879,545,371,75,580,
5,864,539,368,75,574,
5,850,532,364,73,567,
5,835,527,359,73,560,
5,824,545,358,79,555,
5,810,580,354,78,548,
5,798,573,352,77,543,
4,788,567,348,76,536,
5,777,560,345,76,531,
4,766,553,366,75,579,
4,892,547,362,75,572,
5,875,540,359,74,566,
5,860,534,355,73,559,
4,846,527,352,72,551,
4,833,524,349,75,546,
4,819,552,345,75,540,
4,807,545,343,73,534,
4,795,539,339,73,527,
4,783,533,337,72,524,
4,772,527,376,71,582,
4,896,521,371,71,574,
4,883,515,368,71,568,
4,868,509,364,70,560,
4,854,504,361,70,553,
3,839,499,358,71,547,
3,827,560,355,76,541,
4,814,553,352,75,536,
3,801,547,348,74,529,
4,790,542,345,73,524,
3,778,536,359,73,583,
3,894,529,385,72,575,
3,885,523,382,71,568,
3,870,517,378,71,563,
3,855,511,375,71,556,
3,841,505,371,70,550,
3,828,555,368,71,543,
3,817,547,365,71,537,
3,805,540,361,70,531,
3,793,534,359,70,526,
3,782,527,355,69,545,
3,866,521,384,68,579,
3,889,516,380,67,572,
3,873,511,376,67,566,
3,859,505,372,67,559,
3,845,500,369,66,553,
3,831,543,366,67,547,
3,819,556,362,67,542,
3,806,550,359,67,536,
3,793,543,355,66,530,
3,782,536,353,65,524,
2,787,531,380,65,553,
2,889,524,376,64,547,
3,873,518,371,63,540,
2,859,512,368,63,535,
2,845,507,364,63,528,
2,831,540,361,63,523,
2,818,564,358,63,516,
2,806,560,355,62,511,
2,793,551,352,62,505,
2,782,546,349,61,500,
2,773,540,387,60,563,
2,892,533,384,60,559,
2,876,527,379,60,551,
2,862,521,376,59,545,
2,851,515,372,59,539,
2,837,510,369,63,534,
1,824,583,366,62,527,
2,811,575,363,62,521,
2,799,569,359,61,515,
1,787,562,356,61,510,
2,775,556,390,60,573,
2,891,551,391,60,565,
1,874,543,387,60,558,
1,860,537,384,59,551,
1,846,531,380,59,545,
1,831,526,376,57,540,
1,819,571,372,60,535,
1,807,563,369,60,528,
1,797,556,367,59,523,
1,785,550,364,58,517,
1,774,543,359,58,564,
1,875,536,387,57,574,
1,873,531,384,57,567,
1,859,524,380,56,560,
1,845,519,376,56,553,
1,831,515,373,56,547,
1,819,547,369,60,541,
1,806,540,366,60,535,
1,793,533,363,60,529,
1,782,527,359,59,524,
1,771,520,356,58,519,
1,866,515,391,57,581,
1,882,508,387,57,574,
1,871,504,384,57,567,
1,856,497,380,56,560,
1,842,492,376,56,553,
0,829,535,373,56,547,
0,816,536,369,55,540,
1,803,528,366,55,535,
0,792,524,363,54,529,
1,780,518,359,54,523,
0,792,513,408,54,590,
0,888,506,403,52,583,
0,871,500,399,52,577,
0,856,495,396,52,571,
0,843,489,391,51,563,
0,829,484,390,51,558,
0,819,519,385,51,551,
0,807,513,382,50,544,
0,795,507,379,50,539,
0,783,502,376,49,533,
0,771,496,420,49,604,
0,891,490,415,49,596,
0,874,485,411,48,588,
0,860,481,407,48,582,
0,845,476,403,48,575,
0,831,472,399,48,568,
0,819,487,396,47,561,
0,806,481,391,47,556,
0,794,476,388,47,551,
0,782,471,385,46,544,
0,774,465,382,46,600,
0,885,461,434,46,595,
0,886,456,430,45,588,
0,870,452,425,45,581,
0,856,448,420,44,574,
0,841,444,416,44,568,
0,828,455,412,44,561,
0,816,451,408,44,555,
0,803,446,404,43,548,
0,792,441,401,43,543,
0,780,438,398,42,601,
0,882,433,446,42,614,
0,882,429,440,41,606,
0,867,425,436,41,599,
0,856,422,433,41,591,
0,842,418,428,40,584,
0,829,425,424,39,577,
0,816,421,420,39,571,
0,803,416,416,39,564,
0,792,412,412,39,559,
0,780,409,408,39,551,
0,820,407,455,39,623,
0,880,403,449,39,615,
0,864,399,445,38,607,
0,850,396,440,38,600,
0,836,392,436,38,594,
0,823,389,432,38,587,
0,810,386,428,37,580,
0,801,383,424,37,574,
0,788,380,420,36,568,
0,777,376,417,36,561,
0,767,374,471,35,638,
0,878,371,463,35,628,
0,862,368,459,35,620,
0,847,364,454,35,612,
0,834,363,449,35,606,
0,820,359,445,34,599,
0,807,358,441,34,591,
0,796,355,436,34,584,
0,783,352,432,33,579,
0,772,350,428,33,573,
0,761,347,481,33,656,
0,873,344,476,33,646,
0,862,342,471,32,638,
0,847,339,465,32,630,
0,834,335,460,31,622,
0,820,334,455,31,615,
0,807,385,451,31,608,
0,796,380,448,31,600,
0,783,377,443,31,593,
0,772,374,439,31,587,
0,761,369,435,31,660,
0,880,366,487,30,649,
0,864,363,481,30,643,
0,849,359,476,30,635,
0,835,355,472,30,627,
0,822,353,468,29,620,
0,812,350,463,29,611,
0,799,346,459,29,605,
0,787,343,455,28,598,
0,775,340,450,28,591,
0,765,337,446,28,588,
0,825,334,492,28,661,
0,877,332,486,28,652,
0,862,329,481,28,643,
0,847,327,476,27,636,
0,834,324,471,27,627,
0,820,322,467,27,620,
0,807,319,462,27,615,
0,796,317,457,27,608,
0,783,315,454,26,600,
0,775,312,449,25,593,
0,765,311,508,25,681,
0,886,307,500,25,671,
0,870,306,495,25,663,
0,856,304,489,25,654,
0,841,302,484,25,646,
0,828,300,480,24,638,
0,815,297,475,24,631,
0,803,295,470,24,623,
0,791,294,465,24,615,
0,779,291,460,24,608,
0,768,289,512,24,716,
0,892,287,505,24,704,
0,876,286,499,24,695,
0,865,284,496,23,685,
0,850,281,490,23,676,
0,836,280,486,23,668,
0,824,278,480,23,659,
0,811,275,476,22,651,
0,798,273,471,22,643,
0,786,271,466,22,636,
0,775,271,464,22,704,
0,891,268,510,22,692,
0,882,267,504,22,683,
0,867,265,498,22,674,
0,853,263,493,21,668,
0,839,262,487,20,659,
0,826,307,483,20,651,
0,816,304,480,20,643,
0,803,301,475,20,635,
0,792,298,470,20,627,
0,780,295,465,20,631,
0,854,292,507,19,688,
0,891,290,500,19,678,
0,875,287,496,19,668,
0,860,286,490,19,660,
0,846,283,485,19,652,
0,831,280,480,19,643,
0,819,279,476,19,636,
0,807,275,471,19,631,
0,795,273,466,19,623,
0,783,271,462,19,615,
0,845,270,491,18,675,
0,892,267,485,18,665,
0,875,265,480,18,657,
0,860,263,475,18,648,
0,846,261,470,17,639,
0,831,259,465,17,632,
0,819,263,460,17,625,
0,807,262,455,17,617,
0,796,259,452,17,611,
0,783,257,448,17,604,
0,772,255,494,17,659,
0,887,254,487,16,652,
0,871,252,483,16,643,
0,856,251,478,16,636,
0,843,249,473,16,627,
0,831,248,469,15,620,
0,819,246,464,15,612,
0,807,244,460,15,606,
0,795,243,455,15,599,
0,783,241,451,15,591,
0,771,240,472,15,673,
0,889,238,487,15,664,
0,873,237,481,15,655,
0,859,236,476,15,646,
0,845,235,472,15,638,
0,831,232,467,15,631,
0,818,280,462,15,624,
0,806,277,457,15,616,
0,793,274,452,15,609,
0,784,271,449,15,603,
0,773,270,446,15,633,
0,867,267,488,14,659,
0,877,264,483,14,651,
0,863,263,478,14,642,
0,847,260,473,14,634,
0,834,258,468,14,626,
0,822,292,463,14,619,
0,808,300,459,14,611,
0,796,295,454,14,604,
0,783,293,450,13,596,
0,772,291,446,13,591,
0,860,287,479,13,651,
0,871,285,473,13,643,
0,860,283,470,13,635,
0,846,280,464,13,627,
0,831,278,460,13,619,
0,819,327,455,13,611,
0,807,352,451,12,604,
0,794,348,446,12,596,
0,783,345,442,12,590,
0,771,343,438,12,583,
0,781,339,481,12,620,
0,874,335,476,13,612,
0,859,332,471,13,605,
0,844,329,465,13,600,
0,831,327,460,13,591,
0,817,323,455,13,585,
0,805,320,452,13,579,
0,796,318,448,12,572,
0,783,315,444,12,566,
0,772,312,440,12,560,
0,761,311,470,12,630,
0,871,307,463,12,621,
0,856,304,459,12,614,
0,841,303,454,12,606,
0,828,300,449,12,599,
0,815,297,444,12,591,
0,802,299,440,12,584,
0,790,295,435,12,579,
0,778,294,432,12,573,
0,768,291,428,11,567,
0,756,288,425,11,627,
0,873,286,457,11,622,
0,857,284,452,11,615,
0,844,281,448,11,607,
0,830,280,443,11,600,
0,816,277,439,11,591,
0,803,277,434,11,585,
0,792,275,430,11,579,
0,780,273,426,11,572,
0,768,271,423,11,566,
0,758,269,419,10,612,
0,867,267,451,11,615,
0,852,264,446,10,608,
0,838,263,440,10,600,
0,824,261,438,10,593,
0,815,259,433,10,586,
0,802,262,429,9,579,
0,790,259,424,9,572,
0,778,258,420,9,568,
0,767,255,417,9,561,
0,759,254,414,9,555,
0,748,252,446,9,550,
0,856,250,440,9,543,
0,841,248,436,12,540,
0,828,247,432,12,534,
0,814,244,427,11,528,
0,804,243,423,11,523,
0,792,263,420,11,518,
0,780,262,415,11,512,
0,769,259,412,11,508,
0,758,257,408,11,503,
0,748,255,409,11,573,
0,856,252,440,10,564,
0,841,251,435,10,558,
0,827,248,431,10,551,
0,814,247,427,10,545,
0,801,244,423,10,539,
0,789,243,418,10,534,
0,777,241,415,9,527,
0,769,239,412,9,522,
0,758,238,408,9,516,
0,747,236,404,9,540,
0,829,235,439,9,578,
0,843,232,435,11,571,
0,828,231,430,11,563,
0,815,230,426,10,557,
0,803,228,422,10,551,
0,790,227,417,10,543,
0,778,225,414,10,538,
0,768,224,409,10,532,
0,755,223,406,9,526,
0,745,222,402,9,521,
0,737,220,440,9,539,
0,844,219,435,20,532,
0,830,217,431,23,526,
0,817,216,427,23,519,
0,804,216,422,22,513,
0,792,214,418,22,508,
0,780,254,414,22,503,
0,768,251,410,22,497,
0,757,248,407,21,494,
0,746,247,403,21,489,
0,736,244,428,21,550,
0,842,241,434,20,552,
0,831,240,430,20,545,
0,817,238,425,20,540,
0,804,236,421,20,533,
0,792,233,417,20,527,
0,780,359,413,19,521,
0,768,355,409,19,515,
0,758,351,405,19,510,
0,747,348,401,19,504,
0,736,345,398,19,556,
0,849,342,432,19,568,
0,836,339,427,19,561,
0,823,335,423,18,556,
0,809,332,419,18,550,
0,797,329,415,18,543,
0,788,332,412,17,537,
0,775,329,408,17,531,
0,764,326,403,17,526,
0,753,323,399,17,519,
0,743,319,396,17,515,
0,771,318,436,17,582,
0,843,315,431,17,575,
0,828,312,427,17,568,
0,816,310,423,17,561,
0,803,307,419,16,554,
0,790,304,415,16,547,
0,778,302,411,16,543,
0,768,300,407,15,536,
0,755,297,403,15,531,
0,748,295,399,15,525,
0,737,292,433,15,586,
0,849,290,428,15,579,
0,835,287,423,15,572,
0,822,286,419,15,564,
0,808,283,415,15,558,
0,796,281,411,15,551,
0,783,280,408,15,545,
0,772,277,403,15,539,
0,761,275,399,15,533,
0,751,272,396,15,527,
0,740,271,444,14,583,
0,852,268,438,15,575,
0,838,267,433,16,568,
0,827,263,430,16,562,
0,814,263,425,16,556,
0,801,260,421,16,549,
0,789,259,417,15,543,
0,777,255,413,15,536,
0,766,255,409,15,531,
0,755,252,405,15,524,
0,744,251,401,15,595,
0,862,249,443,15,590,
0,846,248,438,19,582,
0,831,246,433,19,575,
0,818,243,429,19,570,
0,805,241,425,19,563,
0,793,240,420,19,557,
0,781,239,417,19,551,
0,772,236,414,18,543,
0,761,235,410,18,538,
0,751,233,407,18,532,
0,799,231,452,18,604,
0,846,230,448,19,596,
0,831,228,443,19,589,
0,819,236,439,19,582,
0,806,291,433,18,575,
0,793,287,430,18,568,
0,782,285,425,18,561,
0,770,283,421,17,557,
0,759,280,417,17,551,
0,748,278,414,17,544,
0,782,275,456,17,615,
0,847,273,451,24,608,
0,831,271,446,24,600,
0,819,268,441,24,593,
0,806,266,437,23,585,
0,793,263,432,23,579,
0,782,262,428,23,572,
0,770,259,423,23,566,
0,759,257,420,22,560,
0,748,255,416,22,553,
0,738,254,463,22,658,
0,849,252,457,22,647,
0,835,249,453,27,641,
0,822,248,448,27,633,
0,808,246,444,27,625,
0,799,243,440,26,618,
0,787,241,435,25,611,
0,775,239,432,25,604,
0,764,238,428,25,596,
0,753,236,423,24,590,
0,743,233,419,24,654,
0,847,231,457,24,644,
0,833,231,452,26,636,
0,819,229,448,25,628,
0,806,227,443,25,620,
0,793,225,439,25,613,
0,782,224,435,25,607,
0,770,223,430,24,600,
0,760,221,425,24,593,
0,751,220,423,24,586,
0,740,218,419,24,595,
0,813,216,460,24,647,
0,834,216,455,25,638,
0,820,214,450,25,630,
0,807,212,446,25,622,
0,795,211,440,24,614,
0,783,210,436,24,607,
0,771,209,432,24,600,
0,760,207,428,24,592,
0,749,206,423,24,585,
0,739,205,420,24,581,
0,796,204,459,24,651,
0,835,203,454,25,641,
0,822,201,451,25,633,
0,811,199,446,24,625,
0,799,199,441,24,617,
0,787,198,436,24,611,
0,775,196,432,24,603,
0,763,195,428,24,595,
0,752,194,423,24,589,
0,742,193,420,24,582,
0,732,192,465,23,669,
0,839,192,460,28,659,
0,825,190,455,28,651,
0,812,189,450,28,644,
0,799,188,446,28,636,
0,787,187,441,28,629,
0,775,185,438,28,621,
0,768,184,433,28,614,
0,755,184,430,27,607,
0,745,183,425,27,600,
0,735,182,438,27,664,
0,843,180,463,27,655,
0,828,179,459,27,647,
0,815,179,454,27,638,
0,801,177,448,27,631,
0,790,176,444,27,623,
0,777,176,440,26,615,
0,766,175,435,25,609,
0,755,174,432,25,602,
0,744,173,428,25,595,
0,734,172,424,25,627,
0,828,171,461,25,655,
0,825,169,455,25,647,
0,812,169,451,25,639,
0,799,167,447,25,632,
0,787,167,441,24,623,
0,775,166,438,24,615,
0,764,165,433,24,608,
0,752,164,429,24,601,
0,742,163,425,24,594,
0,732,163,421,24,611,
0,814,162,464,23,656,
0,829,161,460,25,649,
0,816,159,455,25,641,
0,803,159,449,25,633,
0,793,159,447,25,625,
0,782,199,442,24,617,
0,769,225,438,24,611,
0,759,223,433,24,603,
0,748,220,429,24,596,
0,737,219,425,24,590,
0,728,216,462,24,677,
0,844,216,456,25,668,
0,830,213,451,25,659,
0,816,211,447,25,650,
0,803,209,443,25,642,
0,791,207,438,24,636,
0,780,207,433,24,628,
0,768,204,430,24,620,
0,760,203,427,24,614,
0,748,201,423,24,606,
0,738,199,448,24,671,
0,856,199,463,24,662,
0,840,197,459,24,653,
0,827,195,454,24,645,
0,814,193,449,24,637,
0,800,193,444,24,629,
0,788,192,440,23,622,
0,776,190,435,23,614,
0,766,188,432,23,607,
0,755,187,428,22,601,
0,743,185,435,22,641,
0,856,184,466,22,671,
0,839,183,462,22,662,
0,830,182,457,22,653,
0,816,180,452,22,644,
0,804,179,448,22,636,
0,792,177,444,22,628,
0,780,176,440,21,621,
0,768,175,435,20,614,
0,758,174,431,21,607,
0,747,172,427,20,627,
0,833,172,467,20,659,
0,848,170,462,20,651,
0,835,169,457,20,644,
0,821,167,452,20,636,
0,807,167,448,19,628,
0,796,166,445,19,621,
0,786,164,440,19,614,
0,775,163,436,19,606,
0,764,162,432,19,600,
0,752,161,428,19,591,
0,754,159,468,19,653,
0,853,159,463,19,644,
0,838,158,458,19,636,
0,824,157,454,19,627,
0,812,156,449,19,620,
0,799,156,444,18,612,
0,787,155,440,18,605,
0,775,154,435,18,600,
0,764,153,432,17,592,
0,753,152,428,17,587,
0,745,152,467,17,665,
0,856,151,465,18,655,
0,840,150,460,17,647,
0,827,149,455,17,639,
0,814,148,450,17,631,
0,801,147,446,17,623,
0,788,146,441,17,615,
0,776,145,436,17,608,
0,765,144,432,17,600,
0,754,143,428,16,593,
0,743,143,455,16,675,
0,864,142,460,16,668,
0,847,142,455,15,659,
0,834,141,450,16,650,
0,824,140,446,15,641,
0,811,139,441,15,633,
0,799,139,438,15,626,
0,786,138,433,15,619,
0,775,137,429,15,611,
0,764,135,425,15,604,
0,753,135,421,15,647,
0,860,135,452,15,659,
0,847,135,448,17,651,
0,833,134,443,16,643,
0,820,132,438,16,635,
0,807,132,433,15,628,
0,795,143,429,15,621,
0,783,141,425,15,614,
0,774,140,422,15,606,
0,763,139,418,15,600,
0,752,137,415,15,592,
0,780,135,444,15,647,
0,855,135,439,15,639,
0,839,134,434,15,631,
0,826,134,430,15,623,
0,813,132,425,15,615,
0,800,131,422,15,608,
0,788,131,417,14,600,
0,776,130,414,14,593,
0,766,129,409,14,588,
0,755,128,406,14,582,
0,766,127,435,14,643,
0,855,127,432,14,635,
0,844,126,427,14,626,
0,830,126,423,14,618,
0,817,125,419,13,611,
0,804,124,415,13,604,
0,792,127,411,13,596,
0,780,127,407,13,589,
0,768,127,403,12,583,
0,758,126,399,13,575,
0,747,125,440,12,651,
0,859,124,433,12,641,
0,844,123,429,14,635,
0,831,123,424,13,627,
0,817,121,420,13,620,
0,804,121,417,13,612,
0,796,160,414,13,604,
0,783,159,409,12,598,
0,771,158,406,12,591,
0,760,156,401,12,583,
0,750,155,398,12,653,
0,861,153,414,12,647,
0,846,152,409,13,639,
0,831,152,406,13,632,
0,818,150,401,12,623,
0,806,149,398,12,615,
0,793,180,394,13,608,
0,781,178,391,12,603,
0,769,176,387,12,595,
0,759,175,384,12,589,
0,750,173,382,12,582,
0,799,172,417,12,635,
0,847,171,412,12,627,
0,833,169,408,12,618,
0,819,167,404,12,611,
0,807,167,400,11,604,
0,795,229,397,11,596,
0,782,241,393,11,589,
0,771,239,390,11,582,
0,760,236,385,11,575,
0,749,234,383,11,569,
0,781,231,408,11,603,
0,847,230,403,11,595,
0,831,228,399,12,588,
0,823,229,396,11,580,
0,809,227,393,11,574,
0,796,225,390,11,568,
0,784,226,385,11,561,
0,773,224,382,11,555,
0,762,222,379,11,549,
0,751,220,376,10,543,
0,740,219,407,11,599,
0,850,217,402,10,591,
0,835,216,398,10,583,
0,822,214,394,10,576,
0,809,211,390,10,572,
0,796,211,387,10,566,
0,784,274,384,10,559,
0,773,271,380,9,551,
0,764,268,377,9,546,
0,753,266,374,9,540,
0,743,263,371,9,562,
0,855,262,391,9,591,
0,843,259,387,9,584,
0,829,257,384,9,577,
0,816,255,380,9,572,
0,803,253,376,9,566,
0,794,279,374,9,559,
0,782,314,370,9,552,
0,771,312,367,9,547,
0,760,308,364,9,542,
0,752,305,361,8,536,
0,740,303,397,8,588,
0,844,300,391,8,583,
0,829,298,388,8,575,
0,819,295,385,8,568,
0,806,292,382,7,561,
0,793,291,377,8,555,
0,782,358,375,7,551,
0,773,353,371,7,543,
0,761,350,368,7,538,
0,751,347,365,7,532,
0,740,344,362,7,527,
0,733,340,395,7,568,
0,833,337,391,7,561,
0,819,335,387,7,555,
0,806,332,383,7,550,
0,793,328,380,7,543,
0,783,326,376,7,537,
0,772,323,373,7,531,
0,761,321,369,7,527,
0,750,318,366,7,521,
0,743,315,364,7,516,
0,732,312,359,7,563,
0,846,311,380,7,571,
0,830,307,376,7,563,
0,820,305,373,7,557,
0,807,303,369,7,551,
0,794,301,366,7,545,
0,782,299,363,7,540,
0,774,334,359,7,534,
0,762,331,358,7,527,
0,751,327,355,7,523,
0,740,325,352,7,517,
0,733,322,361,7,562,
0,851,319,381,7,555,
0,836,317,377,7,547,
0,822,314,374,7,543,
0,812,312,371,7,536,
0,799,308,367,7,530,
0,788,332,364,7,524,
0,775,332,359,7,519,
0,768,327,358,7,515,
0,756,326,355,7,509,
0,745,323,352,7,504,
0,760,319,375,6,558,
0,849,317,371,7,551,
0,839,314,368,7,543,
0,825,312,364,7,537,
0,812,310,359,7,532,
0,799,307,358,7,527,
0,791,357,355,7,521,
0,779,353,352,7,515,
0,768,351,348,7,511,
0,756,347,345,7,505,
0,748,344,344,7,514,
0,824,340,373,6,560,
0,847,338,369,6,555,
0,833,335,366,6,548,
0,824,332,363,6,542,
0,810,329,359,6,536,
0,798,327,356,6,531,
0,785,323,353,6,525,
0,777,321,351,6,519,
0,766,318,348,6,513,
0,755,316,344,6,508,
0,743,313,367,6,567,
0,861,311,363,6,558,
0,846,308,359,6,551,
0,831,306,356,6,545,
0,818,304,353,6,540,
0,807,301,351,6,534,
0,796,349,348,5,527,
0,783,345,344,6,522,
0,772,342,342,5,518,
0,761,339,339,5,512,
0,753,335,336,5,507,
0,743,332,363,5,571,
0,851,330,359,5,565,
0,836,327,355,5,558,
0,827,324,353,5,551,
0,814,321,350,5,545,
0,801,319,347,5,540,
0,788,408,344,5,534,
0,780,401,341,4,527,
0,768,397,338,4,522,
0,758,394,335,4,518,
0,747,390,332,4,512,
0,785,387,358,4,555,
0,851,383,355,4,547,
0,836,380,352,5,543,
0,824,376,348,5,536,
0,813,372,345,5,531,
0,800,369,343,6,524,
0,788,411,339,5,519,
0,776,406,335,5,514,
0,768,401,334,5,509,
0,757,398,332,5,504,
0,747,395,329,5,541,
0,857,391,346,5,536,
0,846,387,344,5,529,
0,831,384,340,4,523,
0,819,380,337,5,517,
0,806,377,334,5,512,
0,793,399,332,6,507,
0,783,415,329,6,502,
0,772,409,327,6,496,
0,761,407,324,5,492,
0,751,403,321,5,487,
0,743,399,344,6,527,
0,850,395,339,5,520,
0,835,391,336,5,516,
0,822,388,333,6,510,
0,812,384,331,6,504,
0,799,381,327,6,499,
0,787,444,325,7,495,
0,775,438,323,6,489,
0,768,433,319,6,484,
0,756,428,318,6,480,
0,745,425,316,6,476,
0,817,421,315,6,521,
0,853,416,313,6,515,
0,839,412,311,6,510,
0,825,409,308,7,504,
0,812,406,306,7,499,
0,803,402,304,10,495,
0,790,454,302,10,488,
0,778,448,300,9,483,
0,767,444,297,9,479,
0,756,440,295,9,475,
0,745,435,307,9,471,
0,860,431,304,9,465,
0,844,427,302,9,462,
0,831,423,299,9,458,
0,817,419,296,9,454,
0,807,415,295,9,449,
0,796,512,292,15,446,
0,783,507,291,15,441,
0,771,502,288,15,438,
0,760,496,286,15,434,
0,750,491,284,15,430,
0,794,486,295,15,478,
0,847,480,292,14,473,
0,833,476,289,14,468,
0,820,471,287,14,463,
0,807,465,285,14,457,
0,797,463,283,15,454,
0,785,516,280,15,448,
0,774,510,279,15,444,
0,763,504,276,14,440,
0,752,499,275,15,435,
0,741,494,287,14,432,
0,847,489,284,14,428,
0,833,484,281,14,425,
0,819,480,279,14,422,
0,807,474,276,14,417,
0,794,470,275,26,415,
0,782,551,271,30,412,
0,771,544,270,29,408,
0,760,537,269,29,404,
0,752,531,267,28,401,
0,740,526,265,28,411,
0,850,519,263,28,406,
0,835,513,263,28,402,
0,822,508,260,27,398,
0,809,503,259,27,395,
0,796,497,257,27,391,
0,783,606,255,43,388,
0,772,596,254,43,385,
0,761,589,252,42,382,
0,751,582,249,41,379,
0,739,575,248,41,396,
0,851,568,254,41,427,
0,836,561,252,40,423,
0,825,555,249,39,417,
0,813,548,248,39,414,
0,799,543,246,39,409,
0,788,624,245,51,406,
0,776,614,243,50,401,
0,765,606,241,49,398,
0,753,598,240,49,393,
0,743,592,238,48,391,
0,815,585,243,48,423,
0,844,578,241,48,418,
0,831,572,240,47,414,
0,817,565,237,46,411,
0,804,559,236,46,407,
0,792,583,234,57,403,
0,783,633,232,57,399,
0,771,625,231,56,395,
0,760,616,230,56,391,
0,750,609,228,56,387,
0,739,602,229,55,384,
0,849,595,227,55,380,
0,835,588,225,54,377,
0,822,583,224,54,374,
0,808,575,223,53,371,
0,796,569,222,67,368,
0,783,657,220,68,365,
0,772,648,218,67,363,
0,761,639,216,67,359,
0,751,632,216,66,358,
0,739,624,216,65,401,
0,854,615,215,65,396,
0,839,609,214,64,392,
0,824,601,211,63,389,
0,812,595,210,63,385,
0,799,588,209,70,382,
0,787,651,207,78,377,
0,775,643,206,76,374,
0,764,635,205,76,371,
0,753,627,204,75,367,
0,743,619,204,75,407,
0,854,611,207,74,403,
0,839,604,205,73,398,
0,825,596,204,72,394,
0,812,590,203,71,391,
0,803,583,201,71,387,
0,791,689,199,86,383,
0,779,678,199,85,379,
0,768,668,198,84,376,
0,756,660,196,83,371,
0,745,652,195,83,384,
0,831,643,207,82,408,
0,844,636,204,81,404,
0,830,629,203,81,400,
0,817,622,201,80,396,
0,804,614,199,79,393,
0,792,675,198,98,390,
0,780,708,196,96,385,
0,768,698,195,96,382,
0,760,688,194,95,379,
0,749,679,193,94,375,
0,743,671,194,93,423,
0,847,662,192,92,418,
0,831,654,191,92,414,
0,819,646,190,91,409,
0,806,638,188,90,406,
0,793,632,188,96,401,
0,782,697,185,96,397,
0,770,688,184,95,393,
0,759,678,184,94,390,
0,748,669,183,93,387,
0,738,661,183,92,414,
0,849,652,182,92,409,
0,839,643,181,91,406,
0,825,636,179,90,401,
0,812,628,179,89,397,
0,799,620,177,99,393,
0,787,700,176,99,390,
0,775,690,176,97,385,
0,764,680,174,97,382,
0,753,673,174,96,379,
0,743,664,182,96,376,
0,854,655,180,95,372,
0,839,647,179,94,369,
0,825,639,177,93,367,
0,812,632,176,92,364,
0,799,624,175,92,359,
0,791,694,174,98,357,
0,778,684,172,97,354,
0,768,674,172,97,352,
0,755,665,170,96,348,
0,744,656,169,95,373,
0,851,647,178,94,382,
0,847,639,177,94,377,
0,833,634,175,93,374,
0,819,627,174,92,370,
0,807,619,172,92,367,
0,795,688,172,95,363,
0,782,694,170,94,360,
0,771,684,169,94,358,
0,760,675,167,93,354,
0,749,665,167,92,351,
0,771,657,188,92,398,
0,847,648,187,91,394,
0,833,641,184,89,390,
0,819,632,184,89,386,
0,807,625,182,88,382,
0,795,678,180,107,379,
0,783,697,179,105,375,
0,771,688,177,104,371,
0,760,679,176,103,368,
0,748,670,175,103,364,
0,827,662,183,102,396,
0,843,652,181,101,391,
0,830,644,179,100,387,
0,816,636,179,99,384,
0,803,628,177,99,380,
0,792,622,176,110,376,
0,780,615,174,108,372,
0,768,607,172,107,369,
0,757,599,172,106,366,
0,745,591,170,105,363,
0,814,585,187,104,397,
0,844,579,185,103,392,
0,830,572,184,103,388,
0,814,567,182,102,385,
0,801,560,180,101,381,
0,789,675,179,110,376,
0,777,664,177,108,373,
0,766,655,176,108,369,
0,755,645,174,107,366,
0,743,636,173,105,398,
0,857,628,187,104,393,
0,842,620,185,103,389,
0,828,613,184,103,385,
0,812,606,182,102,382,
0,799,599,179,102,377,
0,787,691,179,108,373,
0,775,681,177,107,369,
0,764,671,176,106,366,
0,753,661,174,105,363,
0,743,653,193,103,411,
0,850,643,196,103,406,
0,835,636,195,103,401,
0,822,628,193,102,397,
0,806,620,191,101,393,
0,793,613,190,105,388,
0,781,719,188,110,384,
0,769,708,186,108,381,
0,759,698,184,108,377,
0,748,686,184,107,374,
0,737,678,199,105,403,
0,849,668,198,105,399,
0,835,659,196,103,395,
0,821,652,195,103,391,
0,805,643,192,102,387,
0,792,636,191,103,383,
0,780,720,190,103,379,
0,769,710,188,102,376,
0,758,700,187,101,371,
0,747,688,185,100,368,
0,760,679,198,99,393,
0,847,670,196,99,390,
0,832,662,194,98,385,
0,819,655,193,97,382,
0,807,647,191,96,378,
0,794,639,190,103,375,
0,782,716,188,102,371,
0,770,705,187,100,368,
0,760,693,185,99,364,
0,748,684,184,99,360,
0,745,678,204,98,396,
0,847,668,201,98,391,
0,833,659,199,97,388,
0,819,651,198,96,384,
0,807,643,196,96,382,
0,794,636,195,107,376,
0,782,704,193,106,373,
0,771,694,192,104,369,
0,760,684,190,103,366,
0,748,673,188,103,363,
0,739,664,209,103,384,
0,846,655,207,102,380,
0,831,647,205,100,376,
0,819,639,204,100,373,
0,803,632,201,99,369,
0,793,670,199,112,366,
0,779,756,198,111,362,
0,768,745,196,110,358,
0,755,735,195,109,355,
0,745,724,193,108,352,
0,796,715,208,108,396,
0,847,703,207,107,391,
0,833,693,205,105,387,
0,819,684,203,104,384,
0,807,675,201,103,380,
0,795,760,199,110,376,
0,779,785,198,109,372,
0,768,774,196,108,368,
0,756,762,195,108,364,
0,745,751,193,107,397,
0,853,740,207,105,400,
0,843,728,206,104,396,
0,829,718,204,103,391,
0,816,708,201,103,388,
0,803,699,199,102,384,
0,792,785,199,109,381,
0,775,772,196,108,376,
0,764,761,195,107,373,
0,754,750,193,107,369,
0,743,739,199,105,409,
0,852,729,207,105,404,
0,838,716,206,103,399,
0,824,707,204,103,396,
0,811,697,202,102,391,
0,798,688,200,102,388,
0,787,765,199,107,384,
0,771,753,197,106,380,
0,760,742,195,105,376,
0,750,732,193,103,372,
0,739,721,220,103,408,
0,846,711,217,102,403,
0,831,700,216,102,399,
0,818,690,214,100,395,
0,806,681,212,100,391,
0,793,673,211,105,387,
0,781,736,208,104,383,
0,767,726,206,103,378,
0,755,715,205,103,375,
0,745,705,204,102,371,
0,736,696,216,101,409,
0,843,687,215,100,405,
0,828,675,212,99,401,
0,815,669,211,99,397,
0,802,660,209,98,392,
0,790,652,207,113,389,
0,778,726,206,112,385,
0,767,712,204,110,382,
0,755,703,203,110,378,
0,744,693,201,108,375,
0,736,684,228,108,414,
0,847,675,225,107,409,
0,830,665,224,106,403,
0,817,657,221,104,399,
0,804,649,219,103,396,
0,792,641,217,117,391,
0,780,681,216,115,388,
0,768,670,214,114,384,
0,758,660,212,113,380,
0,747,652,211,112,377,
0,792,643,227,111,415,
0,844,636,225,111,410,
0,827,628,223,110,405,
0,813,621,221,109,400,
0,800,614,219,108,397,
0,790,676,217,111,392,
0,776,673,216,110,389,
0,766,662,214,109,385,
0,755,652,212,108,382,
0,743,644,211,108,402,
0,847,636,235,107,403,
0,843,627,232,105,399,
0,825,620,230,104,393,
0,812,612,228,103,390,
0,799,605,226,103,386,
0,787,685,224,115,382,
0,775,675,222,113,379,
0,764,664,220,113,375,
0,753,655,219,112,371,
0,743,647,218,111,413,
0,856,638,229,110,408,
0,839,630,227,109,403,
0,823,622,224,108,398,
0,810,615,222,108,395,
0,798,607,220,107,391,
0,785,681,219,112,387,
0,774,671,216,112,384,
0,762,660,216,110,380,
0,752,652,214,110,376,
0,741,643,239,108,417,
0,851,635,236,108,412,
0,836,627,234,107,408,
0,819,619,231,105,403,
0,807,611,230,105,399,
0,795,623,227,115,395,
0,782,753,225,113,391,
0,771,742,224,113,387,
0,760,728,222,112,384,
0,749,719,220,111,380,
0,739,708,236,110,419,
0,847,699,233,109,414,
0,829,689,231,108,409,
0,816,680,230,107,404,
0,803,671,227,107,399,
0,792,679,225,109,396,
0,779,723,224,108,391,
0,768,712,222,107,388,
0,756,700,220,106,385,
0,745,691,218,105,381,
0,796,681,236,104,377,
0,842,671,234,103,374,
0,824,664,231,103,371,
0,812,655,230,102,367,
0,799,647,227,102,363,
0,787,712,226,108,359,
0,775,701,224,107,356,
0,764,691,222,105,353,
0,753,679,220,104,351,
0,742,671,219,103,387,
0,852,662,231,103,391,
0,842,653,228,103,387,
0,824,645,227,102,384,
0,812,637,224,100,379,
0,799,630,223,99,376,
0,787,694,221,111,371,
0,775,684,219,110,368,
0,764,674,217,109,364,
0,753,665,216,108,360,
0,743,655,222,108,408,
0,855,646,233,106,403,
0,839,638,231,105,399,
0,826,630,229,103,395,
0,813,622,227,103,391,
0,797,615,225,103,387,
0,785,682,224,112,383,
0,774,671,221,111,379,
0,763,664,220,110,376,
0,752,655,217,109,371,
0,741,644,232,108,419,
0,856,636,230,107,414,
0,840,627,227,105,409,
0,827,620,225,105,406,
0,814,612,224,103,401,
0,798,605,222,111,398,
0,785,675,220,110,391,
0,774,665,217,108,388,
0,763,657,216,108,385,
0,752,647,215,107,381,
0,742,638,239,106,422,
0,854,630,236,104,416,
0,839,622,235,103,412,
0,826,614,231,103,408,
0,813,607,230,102,403,
0,798,668,227,120,399,
0,785,678,226,118,395,
0,774,668,224,116,391,
0,762,659,222,115,387,
0,752,651,220,115,384,
0,804,639,246,113,429,
0,852,632,243,113,423,
0,839,624,241,112,419,
0,824,616,239,111,415,
0,812,609,236,110,412,
0,796,655,234,115,408,
0,783,647,231,114,402,
0,772,638,231,113,398,
0,761,630,228,112,395,
0,751,622,227,111,435,
0,862,612,241,110,433,
0,854,604,239,109,429,
0,839,598,236,108,424,
0,825,591,235,107,420,
0,812,583,231,107,415,
0,798,679,230,110,412,
0,785,668,228,110,407,
0,774,659,226,108,403,
0,763,651,224,108,399,
0,752,643,241,107,435,
0,856,632,251,105,430,
0,841,624,248,105,425,
0,828,615,246,103,420,
0,814,608,243,103,416,
0,801,601,241,103,412,
0,787,775,239,108,408,
0,775,761,237,107,403,
0,763,751,236,107,399,
0,752,739,233,105,396,
0,742,729,262,104,438,
0,849,717,258,103,433,
0,834,707,255,103,428,
0,820,698,254,102,423,
0,807,688,252,101,419,
0,796,679,249,112,415,
0,780,673,247,110,410,
0,768,664,244,109,406,
0,758,656,243,108,402,
0,747,648,240,108,398,
0,752,641,259,107,448,
0,849,632,257,105,443,
0,835,624,255,105,439,
0,822,615,252,103,433,
0,808,609,251,103,429,
0,796,626,248,111,425,
0,781,654,246,110,419,
0,769,645,243,109,415,
0,759,636,241,108,412,
0,748,628,240,107,408,
0,812,620,254,106,432,
0,853,611,252,105,428,
0,839,603,249,103,423,
0,825,596,248,103,419,
0,812,590,245,103,414,
0,799,691,243,105,410,
0,784,679,240,103,405,
0,773,671,239,103,401,
0,761,662,237,103,397,
0,751,653,235,102,440,
0,865,644,252,101,434,
0,848,634,249,100,430,
0,835,627,248,99,425,
0,822,619,245,99,421,
0,808,611,243,98,416,
0,796,702,241,105,412,
0,783,688,239,103,408,
0,772,678,237,103,404,
0,761,669,235,103,400,
0,751,660,233,102,427,
0,856,652,257,101,422,
0,837,643,255,100,415,
0,824,635,252,99,413,
0,811,627,249,99,408,
0,798,620,248,98,405,
0,790,760,247,103,400,
0,775,747,243,103,396,
0,763,736,241,103,391,
0,752,726,240,102,388,
0,742,716,252,101,425,
0,844,705,255,99,420,
0,828,696,253,99,415,
0,816,687,251,98,412,
0,803,678,249,97,408,
0,790,669,247,97,404,
0,779,713,244,100,399,
0,768,704,243,99,396,
0,755,694,240,98,391,
0,745,684,239,97,389,
0,735,675,237,97,414,
0,836,665,263,96,423,
0,823,657,260,95,418,
0,809,649,257,95,414,
0,797,641,255,94,409,
0,784,633,254,94,406,
0,774,764,251,105,401,
0,761,751,249,104,398,
0,751,739,247,103,393,
0,739,729,245,103,390,
0,729,719,243,102,409,
0,828,710,263,101,432,
0,813,700,262,100,427,
0,800,690,259,99,422,
0,788,681,257,99,419,
0,775,671,255,98,415,
0,764,676,253,113,409,
0,753,667,251,112,405,
0,743,658,248,111,401,
0,732,650,247,110,397,
0,723,642,244,109,439,
0,829,632,268,108,433,
0,815,624,265,107,428,
0,801,617,263,105,423,
0,789,610,260,105,419,
0,777,603,259,103,415,
0,763,662,255,103,410,
0,752,652,254,103,406,
0,742,643,252,103,402,
0,731,636,249,102,398,
0,720,627,271,102,440,
0,825,617,268,100,435,
0,812,609,265,99,431,
0,799,603,263,99,426,
0,786,595,260,99,422,
0,775,591,259,97,418,
0,763,643,255,100,414,
0,752,634,254,99,409,
0,741,626,252,99,405,
0,731,617,250,98,401,
0,720,610,271,97,441,
0,831,602,275,96,438,
0,817,595,272,96,432,
0,805,588,270,95,428,
0,792,582,268,95,423,
0,783,575,265,94,419,
0,771,636,263,100,415,
0,760,627,262,99,411,
0,749,620,259,99,407,
0,739,611,257,97,403,
0,728,604,255,97,440,
0,828,596,283,96,455,
0,828,589,280,95,451,
0,814,582,278,95,446,
0,801,577,275,94,441,
0,788,571,272,94,437,
0,777,632,270,100,432,
0,765,653,268,99,428,
0,754,643,265,99,423,
0,743,636,263,97,419,
0,733,627,262,97,416,
0,812,620,269,96,470,
0,834,611,267,96,463,
0,820,604,265,95,459,
0,811,596,263,94,454,
0,798,590,260,93,449,
0,786,612,259,99,444,
0,774,634,255,97,440,
0,763,626,254,97,435,
0,752,617,252,96,432,
0,742,610,250,96,427,
0,732,605,271,95,480,
0,851,596,268,94,475,
0,836,590,267,93,470,
0,823,583,263,92,464,
0,809,575,262,92,460,
0,798,569,259,96,455,
0,785,628,257,95,451,
0,776,620,255,94,447,
0,765,611,254,94,442,
0,754,604,252,92,438,
0,743,597,275,92,502,
0,865,589,272,91,495,
0,849,582,270,91,489,
0,835,575,268,90,484,
0,822,569,265,89,479,
0,809,563,263,88,473,
0,797,665,261,91,468,
0,785,655,259,91,463,
0,773,647,255,89,460,
0,762,638,254,89,455,
0,752,630,269,88,467,
0,852,622,275,88,483,
0,865,614,271,87,477,
0,851,607,270,87,472,
0,836,600,267,86,467,
0,824,591,263,85,462,
0,811,649,263,95,457,
0,798,639,260,94,452,
0,786,633,258,93,448,
0,775,625,255,92,444,
0,763,618,254,92,460,
0,853,610,283,91,484,
0,865,602,280,91,480,
0,851,595,278,89,475,
0,837,588,275,88,470,
0,827,580,273,88,463,
0,814,609,271,103,460,
0,798,600,268,103,455,
0,786,592,265,102,449,
0,775,585,263,101,444,
0,764,579,262,100,458,
0,843,572,280,99,488,
0,863,565,277,99,483,
0,848,559,275,97,478,
0,835,552,271,97,473,
0,822,547,270,96,468,
0,808,601,268,96,463,
0,796,626,265,96,459,
0,787,617,263,95,454,
0,775,610,262,94,449,
0,764,603,259,94,445,
0,757,595,276,93,495,
0,862,588,273,92,489,
0,847,580,271,92,483,
0,833,575,268,91,479,
0,820,568,266,91,473,
0,807,562,263,94,468,
0,795,626,262,92,463,
0,783,617,259,92,460,
0,771,609,257,91,455,
0,760,602,255,90,450,
0,750,595,294,89,512,
0,863,587,290,89,505,
0,847,580,287,88,499,
0,834,574,285,88,495,
0,821,567,282,87,489,
0,807,560,280,91,484,
0,796,610,277,91,478,
0,783,602,275,91,473,
0,772,596,272,89,468,
0,761,589,270,89,463,
0,750,582,287,88,504,
0,863,575,284,88,497,
0,847,568,281,87,493,
0,834,561,279,87,487,
0,820,555,276,86,483,
0,811,548,274,85,478,
0,799,592,271,89,472,
0,786,584,270,89,467,
0,775,577,268,88,462,
0,764,570,265,88,457,
0,752,563,263,87,492,
0,856,556,290,86,496,
0,851,551,287,86,489,
0,838,545,284,85,484,
0,824,539,282,84,480,
0,811,534,280,83,474,
0,799,584,277,86,470,
0,787,582,275,85,465,
0,775,574,271,84,460,
0,766,568,271,83,455,
0,755,560,268,83,451,
0,775,553,302,82,496,
0,852,547,298,81,489,
0,838,540,295,81,484,
0,824,535,293,80,479,
0,812,528,290,79,473,
0,799,524,287,83,468,
0,787,573,285,83,463,
0,775,566,283,82,459,
0,764,559,280,81,454,
0,753,551,278,80,451,
0,751,546,300,79,515,
0,847,539,295,79,508,
0,836,532,294,79,503,
0,823,527,291,78,497,
0,809,521,288,78,491,
0,798,535,286,82,486,
0,785,702,284,81,481,
0,774,691,281,80,476,
0,762,681,279,79,471,
0,752,675,276,79,465,
0,741,665,300,79,508,
0,859,657,295,78,502,
0,844,648,293,78,496,
0,830,639,290,77,492,
0,817,632,287,76,486,
0,804,624,285,76,481,
0,792,718,284,81,476,
0,783,706,281,81,471,
0,771,696,279,79,465,
0,760,687,276,79,460,
0,750,678,273,79,506,
0,867,669,301,78,499,
0,851,659,297,78,494,
0,838,654,295,77,487,
0,824,645,292,76,483,
0,811,637,289,76,478,
0,799,655,287,81,472,
0,786,646,285,80,468,
0,775,637,282,79,463,
0,764,630,280,79,459,
0,752,622,278,78,454,
0,792,614,305,78,504,
0,858,607,302,77,497,
0,844,600,300,76,492,
0,830,592,296,76,486,
0,817,586,294,75,481,
0,804,579,291,79,476,
0,792,573,289,78,471,
0,780,568,287,78,465,
0,768,562,284,77,460,
0,758,556,281,76,455,
0,779,551,319,76,529,
0,860,543,316,75,524,
0,845,538,312,75,518,
0,831,532,310,74,512,
0,821,527,307,73,506,
0,808,521,305,77,500,
0,796,537,302,76,495,
0,783,531,300,76,490,
0,772,526,297,75,485,
0,761,519,294,75,480,
0,751,515,319,73,529,
0,864,511,316,73,523,
0,850,505,312,73,516,
0,835,500,310,71,511,
0,822,496,307,71,504,
0,809,491,304,71,501,
0,797,568,302,76,496,
0,785,561,299,76,490,
0,776,555,297,76,485,
0,765,547,295,75,480,
0,754,541,303,74,527,
0,865,535,335,73,519,
0,850,528,332,73,514,
0,836,523,329,72,508,
0,823,516,327,71,503,
0,809,512,323,71,497,
0,797,585,320,74,492,
0,785,577,318,73,487,
0,774,570,315,73,481,
0,763,563,312,71,478,
0,752,556,310,71,483,
0,854,550,337,71,515,
0,839,543,334,71,510,
0,828,536,332,70,504,
0,815,531,327,70,498,
0,802,525,325,69,492,
0,791,558,322,77,487,
0,777,551,319,77,482,
0,767,543,316,76,477,
0,755,539,313,76,472,
0,745,532,312,75,469,
0,808,527,340,75,511,
0,828,520,337,73,505,
0,815,515,334,73,500,
0,802,509,331,72,495,
0,790,504,327,71,489,
0,778,512,326,82,484,
0,769,566,323,81,480,
0,758,558,319,79,473,
0,748,551,317,79,469,
0,737,545,315,79,464,
0,728,539,343,78,504,
0,828,532,339,78,497,
0,815,526,335,77,492,
0,802,521,332,76,487,
0,790,515,329,76,481,
0,777,510,327,76,476,
0,766,545,323,78,472,
0,755,539,321,77,467,
0,743,532,318,76,463,
0,734,526,316,76,457,
0,727,519,316,75,499,
0,831,514,316,75,492,
0,816,508,312,74,487,
0,803,503,310,73,481,
0,791,497,307,72,476,
0,779,492,304,73,471,
0,768,563,302,82,465,
0,756,558,300,81,461,
0,745,551,297,80,455,
0,735,544,295,79,451,
0,724,538,292,79,492,
0,831,532,299,79,487,
0,817,526,295,78,481,
0,804,519,294,77,476,
0,795,514,291,76,471,
0,783,508,289,76,466,
0,771,619,287,92,461,
0,760,609,284,91,455,
0,748,601,282,90,451,
0,738,594,280,89,447,
0,728,587,278,89,443,
0,805,582,292,88,438,
0,825,574,289,88,434,
0,812,568,287,87,430,
0,799,561,284,86,425,
0,787,554,281,86,423,
0,775,604,280,98,419,
0,763,644,277,97,415,
0,755,636,275,96,412,
0,743,627,273,96,408,
0,734,620,271,95,404,
0,724,612,300,94,449,
0,836,604,295,93,444,
0,823,597,294,92,440,
0,809,590,291,92,435,
0,796,584,287,91,431,
0,784,577,286,92,426,
0,772,624,283,92,422,
0,761,615,281,91,417,
0,750,608,279,91,415,
0,739,600,276,90,411,
0,729,593,295,89,463,
0,854,586,292,88,457,
0,843,579,290,88,452,
0,829,572,287,88,448,
0,816,566,284,86,444,
0,803,560,283,88,440,
0,792,595,280,91,434,
0,779,587,278,90,430,
0,768,582,275,90,425,
0,756,575,272,89,421,
0,745,568,275,88,479,
0,867,560,280,88,472,
0,851,554,277,87,467,
0,837,548,275,87,463,
0,824,542,271,86,457,
0,811,536,271,85,452,
0,801,603,268,89,448,
0,788,594,266,88,444,
0,777,587,263,88,439,
0,766,579,262,87,435,
0,755,572,260,86,448,
0,831,566,262,86,487,
0,862,559,259,84,481,
0,847,553,257,84,476,
0,834,547,255,83,471,
0,820,541,253,83,465,
0,807,536,252,88,461,
0,796,529,249,88,457,
0,783,524,248,88,452,
0,771,519,246,87,448,
0,764,513,244,86,444,
0,753,508,263,86,494,
0,876,502,260,84,487,
0,861,497,258,83,483,
0,847,492,255,83,477,
0,832,487,254,83,472,
0,819,536,252,89,467,
0,807,578,249,88,462,
0,795,571,248,88,457,
0,783,563,246,87,452,
0,771,557,243,86,448,
0,760,551,265,86,492,
0,872,543,263,84,486,
0,857,537,260,84,480,
0,847,531,259,83,475,
0,833,525,255,83,470,
0,819,519,254,88,464,
0,807,584,252,88,460,
0,795,577,249,88,455,
0,783,569,248,87,450,
0,771,563,246,87,446,
0,760,558,268,86,463,
0,876,551,265,86,457,
0,861,544,263,84,452,
0,847,538,261,83,448,
0,832,532,259,83,444,
0,819,526,257,83,440,
0,807,625,254,91,435,
0,798,616,253,90,431,
0,785,608,251,89,427,
0,774,600,248,88,423,
0,763,593,247,88,458,
0,858,586,274,88,470,
0,860,579,271,87,464,
0,845,572,269,86,460,
0,831,568,267,86,455,
0,818,560,264,84,450,
0,806,633,262,87,445,
0,793,641,260,86,440,
0,781,632,258,85,437,
0,769,624,255,84,433,
0,759,616,254,84,429,
0,847,609,278,83,475,
0,853,601,275,83,469,
0,839,594,272,82,463,
0,825,587,270,81,459,
0,812,580,268,81,454,
0,799,577,265,91,449,
0,787,569,263,89,444,
0,775,565,261,89,440,
0,764,558,259,88,435,
0,753,551,257,88,432,
0,758,547,287,87,484,
0,854,540,284,86,480,
0,839,534,281,86,475,
0,825,527,279,84,470,
0,812,523,276,83,464,
0,803,518,275,91,460,
0,791,551,271,90,455,
0,779,544,270,89,449,
0,768,538,268,88,446,
0,756,531,265,88,440,
0,745,526,285,88,498,
0,859,519,281,87,492,
0,844,515,279,86,487,
0,830,510,276,85,481,
0,816,504,273,84,476,
0,803,499,271,83,471,
0,792,551,269,90,467,
0,780,543,267,89,462,
0,768,537,264,88,457,
0,760,531,263,88,452,
0,750,524,261,87,501,
0,858,519,293,86,494,
0,842,512,290,86,488,
0,828,507,287,85,483,
0,816,501,285,84,478,
0,803,496,283,83,472,
0,791,556,280,88,467,
0,779,548,278,88,463,
0,767,542,275,87,457,
0,755,536,273,86,452,
0,745,529,271,86,449,
0,857,523,306,84,502,
0,848,516,303,84,496,
0,838,511,301,83,490,
0,824,505,298,82,484,
0,811,499,295,82,480,
0,799,568,294,85,474,
0,786,575,291,84,469,
0,775,568,287,83,464,
0,764,561,286,83,460,
0,752,556,283,82,455,
0,775,550,302,81,504,
0,845,543,299,81,499,
0,831,536,295,80,493,
0,817,531,294,79,488,
0,805,525,291,79,483,
0,792,547,289,87,479,
0,780,623,287,86,473,
0,771,614,284,85,467,
0,760,606,282,84,463,
0,750,599,280,83,459,
0,739,591,297,83,485,
0,848,583,295,83,480,
0,834,577,291,82,473,
0,820,572,289,81,468,
0,807,565,287,80,463,
0,795,559,284,80,459,
0,783,593,281,85,454,
0,771,585,279,84,451,
0,760,578,276,83,446,
0,750,571,275,83,441,
0,739,564,272,82,499,
0,856,558,298,81,492,
0,840,551,295,81,486,
0,827,545,293,80,480,
0,814,539,291,79,476,
0,801,533,287,79,471,
0,789,543,285,88,465,
0,777,537,283,88,460,
0,766,532,280,87,455,
0,755,526,278,86,451,
0,743,520,275,85,502,
0,852,515,300,84,496,
0,838,510,296,83,490,
0,824,504,294,83,484,
0,811,499,292,82,480,
0,801,494,289,81,474,
0,790,554,287,86,469,
0,777,547,284,84,463,
0,766,540,281,83,459,
0,755,534,280,83,455,
0,743,527,277,83,450,
0,796,520,307,82,446,
0,833,516,304,81,441,
0,819,511,300,80,436,
0,807,504,297,80,432,
0,794,499,295,79,428,
0,783,524,292,85,425,
0,771,587,290,84,422,
0,760,579,287,83,417,
0,751,572,286,83,414,
0,740,564,284,82,409,
0,731,558,304,81,452,
0,844,551,301,81,447,
0,830,545,298,80,441,
0,816,539,295,79,438,
0,803,532,293,79,432,
0,792,527,291,80,428,
0,779,673,287,88,423,
0,768,664,285,87,419,
0,756,654,283,87,415,
0,745,646,280,86,412,
0,735,638,306,85,476,
0,851,629,303,84,470,
0,839,621,300,83,464,
0,826,614,297,83,460,
0,813,606,295,82,455,
0,800,600,292,82,449,
0,788,731,289,88,444,
0,776,719,287,88,440,
0,765,710,285,87,435,
0,754,702,283,86,432,
0,743,692,280,86,491,
0,862,683,303,84,484,
0,846,674,300,84,479,
0,831,665,296,83,475,
0,819,657,294,83,470,
0,806,648,291,82,464,
0,793,641,289,91,460,
0,784,632,287,90,455,
0,772,625,284,89,449,
0,761,618,282,88,446,
0,751,611,280,88,451,
0,812,604,287,87,513,
0,862,596,284,86,508,
0,847,591,281,86,502,
0,833,584,280,85,496,
0,820,578,276,84,491,
0,807,686,275,87,486,
0,796,674,271,87,481,
0,783,665,270,86,476,
0,772,655,268,85,472,
0,760,647,266,84,466,
0,753,639,300,83,480,
0,889,632,295,83,473,
0,873,624,294,82,468,
0,859,615,291,81,463,
0,845,608,287,81,459,
0,831,601,286,89,454,
0,818,594,284,88,449,
0,806,589,280,88,445,
0,793,582,279,87,440,
0,782,575,276,86,436,
0,771,569,306,86,475,
0,854,563,303,84,471,
0,839,556,300,84,465,
0,826,551,297,83,460,
0,816,545,295,83,455,
0,803,540,292,89,451,
0,792,628,290,92,446,
0,780,620,287,92,441,
0,768,611,285,91,437,
0,757,604,283,89,432,
0,747,596,283,89,472,
0,819,591,281,88,466,
0,805,583,280,88,462,
0,792,740,278,88,455,
0,780,878,275,87,451,
0,768,862,272,86,448,
0,757,847,270,93,443,
0,745,834,268,92,438,
0,738,822,267,92,433,
0,728,809,263,91,430,
0,719,797,263,90,463,
0,813,785,260,89,480,
0,809,775,258,89,475,
0,796,764,255,88,470,
0,783,753,254,88,464,
0,772,745,252,87,460,
0,761,736,250,100,455,
0,750,726,248,99,449,
0,739,716,247,99,446,
0,729,707,244,98,440,
0,719,698,243,97,463,
0,797,689,270,96,486,
0,795,680,268,95,480,
0,782,672,265,95,475,
0,770,664,263,94,470,
0,761,656,262,93,464,
0,750,648,259,99,460,
0,739,641,257,99,455,
0,729,633,255,97,450,
0,719,627,252,97,446,
0,710,620,251,96,441,
0,700,612,251,96,472,
0,789,608,248,95,467,
0,776,600,247,94,462,
0,764,594,244,93,455,
0,753,588,243,92,451,
0,743,633,241,97,448,
0,732,753,239,96,443,
0,721,742,238,95,439,
0,713,731,236,94,434,
0,704,719,235,94,430,
0,696,711,311,93,480,
0,779,700,313,92,473,
0,766,691,310,92,468,
0,755,682,307,91,463,
0,743,673,304,90,458,
0,732,667,302,89,453,
0,722,716,299,107,448,
0,711,706,295,105,444,
0,702,694,294,103,440,
0,694,684,291,103,435,
0,684,675,289,103,491,
0,775,666,291,102,484,
0,760,657,289,101,479,
0,748,649,286,99,473,
0,737,641,284,99,468,
0,729,634,281,103,463,
0,716,626,279,109,459,
0,707,619,276,108,452,
0,697,611,274,108,448,
0,688,604,271,107,444,
0,679,598,327,105,475,
0,809,589,323,104,469,
0,796,583,321,103,463,
0,783,575,318,103,459,
0,771,570,315,102,454,
0,760,646,312,105,449,
0,747,811,309,103,444,
0,736,798,306,103,439,
0,726,785,304,103,435,
0,716,774,302,102,431,
0,743,763,413,101,472,
0,841,748,408,100,466,
0,828,738,403,99,460,
0,814,728,399,99,455,
0,801,718,396,98,451,
0,790,711,391,99,446,
0,777,886,387,98,441,
0,766,906,384,97,437,
0,755,910,381,96,432,
0,743,897,377,96,430,
0,735,878,374,95,475,
0,800,863,371,94,469,
0,792,849,368,93,463,
0,779,836,365,93,459,
0,768,824,361,92,454,
0,756,833,359,96,449,
0,745,902,355,95,444,
0,735,893,353,94,440,
0,724,876,350,94,435,
0,715,864,347,93,431,
0,705,851,344,92,474,
0,812,838,342,92,468,
0,799,824,339,91,463,
0,787,837,335,90,460,
0,775,903,334,89,455,
0,763,910,331,88,449,
0,754,911,328,88,445,
0,743,899,326,88,440,
0,733,878,323,88,435,
0,723,864,321,87,432,
0,713,851,319,86,465,
0,803,837,316,86,460,
0,789,824,313,85,455,
0,777,815,311,84,449,
0,765,803,308,83,444,
0,753,792,307,83,440,
0,743,781,304,91,435,
0,732,770,302,89,432,
0,722,760,299,89,428,
0,711,749,297,88,423,
0,703,739,295,88,419,
0,749,729,294,87,470,
0,783,719,291,87,465,
0,771,711,289,86,460,
0,760,702,287,85,455,
0,748,865,285,84,450,
0,737,902,283,86,446,
0,727,910,280,86,440,
0,716,913,279,84,436,
0,707,916,276,83,432,
0,697,918,275,83,428,
0,715,913,272,83,477,
0,742,885,271,82,472,
0,731,870,268,81,466,
0,720,856,267,80,461,
0,712,899,265,79,455,
0,703,909,263,91,451,
0,694,913,262,89,447,
0,684,916,259,88,441,
0,675,918,257,88,438,
0,668,915,255,88,433,
0,659,889,279,87,472,
0,752,876,275,86,465,
0,741,862,272,85,461,
0,730,849,270,84,455,
0,719,836,268,83,451,
0,710,899,265,83,448,
0,700,909,263,92,443,
0,690,913,262,91,438,
0,683,915,259,89,433,
0,721,917,257,89,430,
0,715,917,255,88,494,
0,799,905,268,88,487,
0,786,880,265,87,481,
0,774,865,263,87,476,
0,763,852,261,86,471,
0,752,841,259,86,465,
0,740,899,255,98,460,
0,729,908,255,97,455,
0,719,905,252,96,451,
0,710,884,251,95,448,
0,700,869,249,95,444,
0,744,856,281,94,480,
0,736,841,280,93,473,
0,725,829,277,92,468,
0,715,816,274,92,463,
0,704,805,271,91,459,
0,696,872,270,90,454,
0,686,856,268,89,449,
0,677,843,265,88,444,
0,668,831,263,88,440,
0,659,819,263,88,436,
0,743,897,380,87,478,
0,799,886,376,87,472,
0,786,870,371,86,468,
0,774,856,368,84,463,
0,763,885,364,84,459,
0,754,901,361,86,454,
0,743,884,359,84,448,
0,733,868,355,83,444,
0,723,855,352,83,440,
0,761,841,349,83,435,
0,750,829,467,82,491,
0,822,816,460,81,484,
0,808,807,454,81,480,
0,796,795,449,80,473,
0,783,783,445,79,468,
0,772,864,440,79,463,
0,760,904,436,84,460,
0,749,911,432,83,455,
0,739,915,428,83,450,
0,728,917,425,82,446,
0,721,915,421,81,487,
0,839,891,417,81,481,
0,824,874,414,80,476,
0,811,860,409,79,471,
0,798,847,406,79,465,
0,786,834,403,79,460,
0,775,899,399,88,455,
0,763,899,396,88,451,
0,752,880,391,88,446,
0,742,865,388,87,441,
0,732,851,390,86,448,
0,877,838,386,85,478,
0,864,824,384,84,472,
0,849,813,380,83,467,
0,839,801,377,83,462,
0,825,789,374,83,456,
0,812,779,371,82,452,
0,799,782,368,81,448,
0,787,835,365,81,443,
0,776,822,362,79,439,
0,765,809,359,79,434,
0,823,799,393,79,467,
0,860,787,390,79,461,
0,847,775,385,78,455,
0,832,764,383,77,451,
0,819,892,379,76,448,
0,807,905,376,83,443,
0,795,911,371,83,438,
0,786,915,369,82,434,
0,775,916,366,81,430,
0,764,910,363,81,425,
0,753,884,359,80,483,
0,860,868,364,79,478,
0,846,856,359,79,472,
0,831,841,357,78,467,
0,819,831,354,78,462,
0,806,892,352,79,456,
0,793,876,348,79,451,
0,782,861,345,79,448,
0,770,847,344,78,444,
0,760,834,340,78,440,
0,748,821,337,78,483,
0,834,808,335,77,478,
0,820,797,333,76,472,
0,807,785,331,76,467,
0,795,775,327,75,462,
0,782,764,326,75,456,
0,771,753,323,75,452,
0,760,743,320,75,448,
0,748,736,318,74,443,
0,739,727,316,73,439,
0,728,718,313,73,493,
0,816,708,312,72,487,
0,803,807,308,71,483,
0,790,793,307,71,477,
0,778,781,304,71,472,
0,766,769,303,71,467,
0,758,758,300,78,462,
0,747,748,299,78,457,
0,736,847,295,76,452,
0,726,831,294,76,448,
0,716,819,291,76,456,
0,781,807,293,75,497,
0,805,796,291,74,492,
0,792,784,288,73,486,
0,780,793,286,73,481,
0,768,895,284,72,476,
0,757,879,281,72,472,
0,746,864,280,71,467,
0,736,850,278,71,462,
0,726,836,276,71,457,
0,718,824,274,70,452,
0,708,812,272,70,521,
0,867,799,271,69,515,
0,851,883,268,69,510,
0,837,905,267,68,504,
0,824,905,264,67,498,
0,812,886,263,78,492,
0,799,873,261,77,487,
0,787,860,259,76,482,
0,775,903,257,76,477,
0,764,908,255,75,473,
0,753,900,254,75,468,
0,864,879,252,73,463,
0,849,864,251,73,459,
0,839,851,249,71,454,
0,825,838,248,71,449,
0,812,896,246,84,445,
0,799,908,244,84,440,
0,787,913,242,83,436,
0,775,915,240,83,432,
0,765,917,259,82,428,
0,754,918,255,82,481,
0,884,920,254,81,476,
0,867,920,252,80,470,
0,853,917,249,79,465,
0,839,890,248,79,462,
0,826,873,246,78,456,
0,814,898,243,84,451,
0,804,908,241,83,447,
0,792,913,240,83,442,
0,780,914,238,82,438,
0,769,907,319,82,459,
0,873,881,391,81,484,
0,902,867,386,80,480,
0,884,852,383,79,473,
0,869,843,379,79,468,
0,855,830,375,79,463,
0,841,882,371,78,459,
0,828,905,368,78,454,
0,815,911,364,77,450,
0,803,915,361,76,446,
0,792,918,464,76,441,
0,828,919,460,75,495,
0,905,916,455,75,489,
0,909,891,450,73,483,
0,892,873,446,73,478,
0,876,860,441,73,473,
0,862,875,437,75,468,
0,847,904,432,74,463,
0,834,907,428,73,458,
0,821,889,423,72,454,
0,808,873,420,71,448,
0,804,860,417,71,489,
0,905,845,412,71,486,
0,911,832,409,71,480,
0,905,820,406,70,475,
0,883,807,403,70,470,
0,872,895,399,79,464,
0,858,907,396,78,460,
0,844,912,391,76,455,
0,831,915,389,76,450,
0,819,918,385,76,446,
0,807,920,383,75,495,
0,899,918,379,74,488,
0,898,897,376,73,483,
0,880,876,372,73,478,
0,865,898,369,72,472,
0,851,908,367,71,469,
0,838,913,364,71,463,
0,824,915,360,71,459,
0,812,915,359,71,454,
0,803,901,355,70,449,
0,791,878,352,70,491,
0,888,864,384,69,491,
0,908,893,380,68,486,
0,909,876,376,68,480,
0,889,862,372,67,475,
0,873,848,369,67,470,
0,859,839,366,68,464,
0,846,826,363,67,460,
0,831,814,359,67,455,
0,819,803,356,67,451,
0,807,792,353,66,447,
0,892,780,358,65,496,
0,909,769,355,65,489,
0,913,759,352,64,484,
0,913,748,349,63,479,
0,894,739,346,63,473,
0,877,729,344,71,469,
0,863,896,340,71,463,
0,849,905,338,71,459,
0,835,893,335,71,454,
0,823,879,333,70,449,
0,851,865,330,70,483,
0,907,851,327,69,478,
0,913,837,325,68,472,
0,916,824,323,67,468,
0,911,812,319,67,463,
0,886,851,318,73,458,
0,875,904,316,72,454,
0,860,908,313,71,448,
0,847,894,312,71,444,
0,833,876,310,71,440,
0,822,862,376,70,479,
0,904,847,372,69,473,
0,912,835,369,69,467,
0,916,825,366,68,463,
0,916,812,361,67,457,
0,899,800,359,67,452,
0,879,900,355,82,448,
0,864,910,352,81,444,
0,851,913,349,80,440,
0,838,915,345,79,435,
0,828,911,344,79,511,
0,899,885,340,78,504,
0,910,870,337,78,498,
0,915,893,335,77,492,
0,917,903,332,76,487,
0,911,886,329,76,482,
0,887,870,327,76,477,
0,871,860,323,76,472,
0,858,847,321,75,467,
0,844,833,319,74,462,
0,831,822,412,73,499,
0,899,809,408,73,494,
0,911,798,403,72,487,
0,915,786,399,71,483,
0,918,775,396,71,478,
0,917,899,391,71,472,
0,898,908,388,78,467,
0,878,912,385,77,462,
0,864,911,382,76,457,
0,851,914,378,76,452,
0,902,913,375,75,448,
0,899,900,371,75,506,
0,910,877,368,73,500,
0,915,863,365,73,495,
0,919,849,361,72,489,
0,920,836,359,71,485,
0,913,824,355,71,480,
0,887,892,352,71,475,
0,871,907,350,71,470,
0,862,910,348,70,465,
0,848,899,345,70,460,
0,835,878,357,69,499,
0,905,863,353,68,493,
0,913,849,350,67,487,
0,916,836,347,67,482,
0,918,896,344,67,477,
0,908,905,341,66,472,
0,882,911,338,70,467,
0,867,915,335,68,462,
0,854,916,332,68,457,
0,840,909,330,67,454,
0,876,900,482,67,514,
0,907,889,475,67,508,
0,911,873,471,66,502,
0,916,860,466,65,496,
0,920,846,461,65,490,
0,920,833,456,65,485,
0,915,820,451,65,480,
0,887,808,448,65,475,
0,871,796,443,64,470,
0,858,788,440,63,464,
0,845,777,437,63,509,
0,903,768,480,63,503,
0,911,756,475,63,496,
0,916,745,470,62,492,
0,919,852,465,62,487,
0,920,837,460,61,481,
0,916,824,455,62,476,
0,889,811,452,62,472,
0,874,799,448,61,466,
0,860,786,443,61,461,
0,847,775,440,60,456,
0,894,764,435,60,488,
0,909,753,431,60,483,
0,915,744,427,60,478,
0,919,759,423,59,472,
0,920,798,419,58,467,
0,918,785,415,60,463,
0,894,896,412,59,459,
0,876,901,408,59,454,
0,863,882,404,58,449,
0,897,867,402,57,445,
0,886,854,399,57,512,
0,908,839,396,56,507,
0,913,897,391,56,500,
0,918,883,388,56,495,
0,920,867,385,56,489,
0,920,854,382,55,484,
0,905,843,379,55,479,
0,881,830,376,54,473,
0,867,817,372,54,468,
0,854,806,370,54,463,
0,883,794,467,53,519,
0,908,782,460,53,511,
0,914,771,455,52,505,
0,918,760,451,52,499,
0,920,750,447,51,494,
0,920,739,442,51,488,
0,916,729,438,51,483,
0,888,719,433,51,479,
0,873,711,430,50,473,
0,860,702,425,50,468,
0,847,694,422,50,536,
0,903,687,417,49,529,
0,911,679,414,49,524,
0,916,670,410,49,517,
0,919,663,407,48,511,
0,920,655,403,48,507,
0,911,647,399,52,502,
0,885,639,396,51,496,
0,873,632,393,51,491,
0,860,625,390,51,486,
0,906,618,387,51,499,
0,912,611,384,49,526,
0,915,604,380,49,519,
0,920,707,376,49,513,
0,921,696,374,49,508,
0,923,689,371,48,502,
0,920,679,368,51,496,
0,897,867,364,51,491,
0,877,874,361,50,486,
0,863,860,359,49,482,
0,897,846,355,49,477,
0,903,831,353,48,517,
0,910,819,351,48,511,
0,915,807,348,48,505,
0,918,795,345,48,499,
0,920,783,343,47,494,
0,920,772,339,48,488,
0,908,761,337,48,483,
0,881,751,335,47,478,
0,867,743,332,47,473,
0,902,733,329,47,468,
0,911,723,327,46,515,
0,915,713,325,46,510,
0,918,704,323,46,505,
0,920,696,319,45,499,
0,923,687,318,45,494,
0,923,678,316,46,488,
0,921,892,313,46,483,
0,898,884,312,45,478,
0,878,868,309,44,473,
0,892,855,307,44,467,
0,909,841,304,44,508,
0,914,828,302,44,502,
0,917,818,300,43,496,
0,920,806,297,43,491,
0,923,793,295,43,485,
0,923,782,294,42,480,
0,921,771,291,43,476,
0,901,760,289,41,472,
0,878,750,287,41,466,
0,864,739,286,41,462,
0,855,729,284,41,483,
0,900,719,282,40,508,
0,911,711,280,39,502,
0,915,702,278,39,496,
0,919,692,275,39,491,
0,920,684,274,39,486,
0,917,678,271,41,480,
0,891,669,270,40,475,
0,876,661,268,39,470,
0,861,653,267,39,465,
0,847,646,264,39,461,
0,899,638,313,39,457,
0,910,631,311,39,453,
0,915,623,308,39,448,
0,918,615,305,38,444,
0,920,679,303,38,440,
0,920,668,300,49,435,
0,910,659,297,48,432,
0,883,651,295,48,428,
0,869,642,292,47,423,
0,856,634,290,47,419,
0,875,628,289,47,484,
0,908,620,287,46,479,
0,913,612,284,46,473,
0,917,606,283,45,468,
0,920,600,280,45,464,
0,918,592,278,48,460,
0,897,586,275,48,455,
0,882,597,273,47,450,
0,867,590,271,47,446,
0,854,583,269,47,441,
0,840,575,268,46,500,
0,903,569,265,46,494,
0,911,564,263,45,487,
0,916,558,262,45,483,
0,919,553,259,44,478,
0,920,548,257,44,472,
0,908,543,255,48,467,
0,882,625,254,48,462,
0,867,615,252,47,459,
0,854,608,251,47,454,
0,841,600,324,47,481,
0,900,592,385,46,479,
0,911,585,381,46,473,
0,915,579,377,45,468,
0,919,572,373,45,463,
0,920,684,369,45,458,
0,909,841,366,46,454,
0,883,827,363,45,448,
0,868,816,359,45,444,
0,855,803,356,44,440,
0,841,792,353,44,480,
0,898,780,350,44,499,
0,910,768,348,44,495,
0,915,758,344,43,489,
0,918,747,341,43,483,
0,920,736,339,42,478,
0,915,727,335,52,473,
0,888,897,333,51,468,
0,873,904,331,51,463,
0,859,888,327,50,458,
0,857,871,325,50,454,
0,884,857,323,49,507,
0,908,847,319,49,500,
0,914,834,317,49,495,
0,918,828,315,48,489,
0,919,888,312,48,484,
0,911,871,310,48,480,
0,884,856,307,48,475,
0,870,843,304,48,470,
0,856,830,303,47,465,
0,846,817,301,47,460,
0,841,806,371,47,501,
0,905,793,366,46,495,
0,913,782,361,46,489,
0,918,819,359,45,483,
0,920,806,355,45,479,
0,918,796,352,45,473,
0,896,899,348,51,468,
0,877,909,345,50,463,
0,863,913,343,49,459,
0,849,915,339,49,455,
0,836,913,355,49,515,
0,903,888,390,48,508,
0,913,871,387,48,503,
0,915,859,384,48,497,
0,918,845,380,47,492,
0,916,831,376,47,487,
0,892,902,372,48,481,
0,876,910,369,47,476,
0,862,914,366,47,471,
0,848,916,362,47,465,
0,835,917,359,46,518,
0,899,910,356,46,515,
0,911,883,353,46,509,
0,915,867,350,45,504,
0,918,855,347,44,499,
0,916,876,344,44,494,
0,892,861,341,45,487,
0,879,847,339,44,483,
0,865,835,336,44,478,
0,851,822,334,44,472,
0,838,810,331,43,467,
0,882,799,327,43,467,
0,908,787,325,43,463,
0,914,775,323,42,457,
0,917,768,319,41,454,
0,918,758,318,41,448,
0,907,803,315,48,444,
0,881,902,312,47,440,
0,867,910,310,47,437,
0,853,913,307,47,432,
0,839,913,305,46,428,
0,830,897,304,46,488,
0,904,876,301,45,483,
0,911,862,299,45,477,
0,916,847,295,44,472,
0,914,835,294,44,467,
0,892,823,291,51,462,
0,875,810,289,50,456,
0,861,801,287,50,451,
0,847,790,285,49,448,
0,834,779,284,49,443,
0,824,768,334,48,500,
0,905,757,329,48,496,
0,913,747,327,48,489,
0,917,737,323,47,484,
0,920,728,321,47,479,
0,920,835,319,51,473,
0,911,894,316,71,468,
0,883,903,312,70,463,
0,869,903,310,69,459,
0,856,884,307,68,454,
0,842,869,319,68,507,
0,900,859,406,67,499,
0,911,844,401,67,494,
0,915,831,397,66,487,
0,918,819,393,65,483,
0,918,807,390,65,480,
0,902,795,385,67,473,
0,880,783,382,67,468,
0,865,771,379,66,463,
0,856,761,376,65,459,
0,841,751,372,65,455,
0,894,740,403,64,495,
0,910,839,398,63,489,
0,915,843,395,63,483,
0,918,828,391,63,479,
0,918,816,387,62,473,
0,907,806,384,63,468,
0,881,793,380,62,463,
0,867,872,376,62,459,
0,854,857,372,61,455,
0,840,844,369,61,450,
0,889,830,366,60,494,
0,909,817,364,60,487,
0,913,804,360,59,482,
0,916,801,358,59,477,
0,911,902,355,58,472,
0,887,910,352,60,467,
0,871,913,348,59,462,
0,857,911,345,59,456,
0,844,888,343,58,452,
0,890,876,340,57,448,
0,892,862,358,57,491,
0,908,847,353,57,486,
0,914,835,350,56,480,
0,917,822,347,56,476,
0,918,809,344,56,471,
0,905,798,341,55,465,
0,885,902,339,55,460,
0,871,909,335,55,455,
0,856,905,333,54,451,
0,861,883,331,54,447,
0,864,868,395,54,481,
0,903,854,424,53,476,
0,911,841,420,52,471,
0,916,831,415,52,465,
0,918,819,412,51,460,
0,912,876,408,51,455,
0,886,905,403,58,451,
0,871,911,399,57,447,
0,857,915,396,57,443,
0,844,916,392,56,438,
0,834,913,390,56,435,
0,892,888,387,56,440,
0,909,872,384,55,435,
0,914,858,380,55,432,
0,915,845,376,54,428,
0,901,831,374,54,423,
0,880,833,370,55,419,
0,865,824,367,55,415,
0,851,811,364,54,412,
0,838,799,360,54,408,
0,825,788,358,54,424,
0,889,776,355,53,460,
0,909,766,352,52,455,
0,914,755,349,52,451,
0,917,891,347,51,446,
0,916,878,344,51,440,
0,896,864,341,59,436,
0,878,849,338,58,432,
0,864,835,335,57,428,
0,850,823,333,56,423,
0,836,811,330,56,419,
0,860,802,455,56,470,
0,907,790,449,56,463,
0,913,777,444,56,459,
0,917,768,440,55,454,
0,919,756,435,54,449,
0,911,745,432,55,445,
0,884,736,427,55,440,
0,870,726,423,54,436,
0,860,716,420,54,432,
0,846,707,415,53,428,
0,833,699,414,53,427,
0,902,690,409,52,422,
0,911,681,406,52,418,
0,915,673,402,51,414,
0,917,665,399,51,410,
0,905,659,395,51,407,
0,882,795,391,55,403,
0,867,835,388,54,399,
0,853,822,385,54,396,
0,839,808,382,53,393,
0,827,796,379,52,432,
0,901,784,376,52,455,
0,909,772,372,51,451,
0,915,888,369,51,446,
0,917,906,366,51,440,
0,913,911,364,50,436,
0,888,911,359,51,432,
0,872,889,358,50,428,
0,859,873,355,50,423,
0,845,863,352,50,419,
0,831,849,349,49,440,
0,892,836,346,49,483,
0,910,823,344,48,478,
0,915,811,340,48,473,
0,918,799,337,48,468,
0,919,787,335,47,463,
0,913,776,334,54,459,
0,888,806,331,54,454,
0,872,793,327,54,449,
0,859,780,326,53,444,
0,845,769,323,52,440,
0,867,760,420,51,496,
0,907,748,415,51,489,
0,913,741,410,51,484,
0,917,731,407,51,479,
0,919,721,402,50,473,
0,913,746,398,54,468,
0,886,775,395,53,464,
0,871,764,391,52,460,
0,857,753,387,52,455,
0,847,742,384,51,450,
0,834,732,382,51,491,
0,903,721,378,51,485,
0,911,711,375,50,480,
0,916,702,371,50,475,
0,919,694,368,49,469,
0,916,743,365,52,464,
0,892,857,361,52,459,
0,876,843,359,51,454,
0,861,828,355,51,449,
0,847,816,352,51,445,
0,835,803,350,50,484,
0,902,792,347,50,500,
0,911,780,344,49,494,
0,915,768,342,49,488,
0,917,758,339,49,483,
0,913,747,336,50,478,
0,888,736,334,62,472,
0,873,726,331,61,467,
0,860,716,327,60,463,
0,846,707,326,60,458,
0,833,700,323,60,483,
0,898,691,326,59,505,
0,910,683,413,59,499,
0,915,673,408,58,493,
0,918,665,404,57,489,
0,919,696,400,57,483,
0,909,799,396,60,479,
0,883,787,393,60,473,
0,871,775,390,60,468,
0,857,764,387,59,463,
0,844,752,384,59,459,
0,869,742,499,58,531,
0,908,732,492,57,525,
0,913,721,487,57,519,
0,917,711,481,57,513,
0,916,704,476,56,508,
0,899,696,472,60,502,
0,879,843,467,60,496,
0,864,896,462,59,491,
0,851,878,458,59,487,
0,838,864,454,58,482,
0,859,850,506,57,529,
0,903,835,501,57,523,
0,911,824,496,56,516,
0,916,810,491,56,511,
0,918,798,485,56,505,
0,909,787,480,63,499,
0,883,899,475,63,494,
0,869,909,471,63,488,
0,856,911,465,62,483,
0,841,908,461,62,479,
0,829,885,533,61,515,
0,903,870,571,60,508,
0,911,856,564,60,504,
0,916,842,558,60,498,
0,918,829,551,59,492,
0,915,816,547,59,487,
0,892,871,540,58,481,
0,876,884,535,57,476,
0,862,868,529,57,472,
0,847,855,524,57,467,
0,835,841,519,56,523,
0,898,828,513,56,519,
0,910,818,508,56,514,
0,915,806,504,56,508,
0,918,794,498,55,502,
0,918,783,493,54,496,
0,902,829,488,56,492,
0,880,816,484,55,487,
0,865,803,480,54,482,
0,851,791,476,54,477,
0,841,779,472,54,472,
0,883,768,467,53,521,
0,908,757,463,52,515,
0,914,747,459,52,509,
0,918,736,455,51,504,
0,920,823,451,51,497,
0,912,849,447,63,492,
0,886,835,443,62,487,
0,871,822,439,62,481,
0,857,809,435,61,477,
0,844,796,432,61,473,
0,878,785,428,60,512,
0,908,774,423,60,505,
0,914,870,421,59,500,
0,916,904,418,59,495,
0,916,911,414,58,489,
0,903,914,411,63,483,
0,880,915,408,63,479,
0,866,908,403,63,473,
0,852,881,400,62,468,
0,839,867,398,62,463,
0,826,857,395,62,515,
0,903,844,391,61,510,
0,912,831,387,60,504,
0,916,818,385,60,499,
0,918,851,382,59,494,
0,913,904,379,59,487,
0,886,911,376,61,483,
0,876,914,374,60,478,
0,861,911,371,60,472,
0,847,890,368,60,467,
0,834,874,366,59,521,
0,899,860,363,58,515,
0,910,847,359,57,508,
0,915,833,357,57,503,
0,918,824,354,57,497,
0,913,812,352,56,492,
0,888,883,349,62,486,
0,872,906,346,61,481,
0,859,911,344,61,477,
0,845,909,341,60,472,
0,831,887,339,60,467,
0,884,871,389,59,520,
0,908,857,385,59,515,
0,914,844,381,59,508,
0,918,899,377,58,503,
0,918,909,374,57,497,
0,903,913,371,65,492,
0,880,915,368,64,486,
0,866,909,364,64,481,
0,852,884,359,63,476,
0,839,870,358,63,472,
0,884,856,355,63,529,
0,908,842,352,62,524,
0,914,829,348,62,519,
0,918,817,345,61,512,
0,918,804,344,60,507,
0,907,793,340,60,501,
0,882,782,337,60,496,
0,867,771,335,60,490,
0,854,760,332,59,485,
0,840,751,330,59,480,
0,828,740,327,58,520,
0,906,733,325,57,514,
0,913,723,323,57,508,
0,916,713,319,56,503,
0,916,704,318,56,497,
0,897,696,316,57,493,
0,878,835,313,59,487,
0,863,820,312,58,482,
0,850,807,310,57,477,
0,840,795,307,57,472,
0,827,783,305,57,509,
0,902,771,303,56,503,
0,911,760,301,56,497,
0,916,750,299,56,492,
0,917,739,297,55,487,
0,908,828,295,55,480,
0,882,814,292,55,476,
0,867,801,291,55,471,
0,854,789,288,54,465,
0,841,777,287,54,462,
0,864,766,285,53,473,
0,903,755,283,52,483,
0,911,772,281,52,478,
0,915,891,280,51,472,
0,916,873,278,51,467,
0,905,859,275,51,462,
0,881,845,273,51,457,
0,867,862,271,51,452,
0,854,847,270,50,448,
0,839,833,268,50,444,
0,827,824,267,49,448,
0,888,812,326,49,472,
0,908,799,323,49,466,
0,914,787,319,48,461,
0,915,776,316,48,457,
0,902,765,313,48,452,
0,880,783,312,56,448,
0,869,817,308,56,444,
0,856,804,306,55,440,
0,841,792,304,55,435,
0,828,780,301,54,431,
0,835,769,300,54,479,
0,906,758,297,53,472,
0,913,747,295,53,467,
0,916,739,291,52,463,
0,912,728,289,52,457,
0,888,719,287,56,452,
0,872,710,285,57,448,
0,859,700,283,56,444,
0,845,691,280,56,440,
0,831,684,278,56,435,
0,824,675,355,55,499,
0,902,667,364,54,493,
0,911,659,359,54,487,
0,916,652,356,54,482,
0,916,643,353,53,476,
0,900,636,350,54,472,
0,880,876,347,57,466,
0,865,884,344,57,461,
0,851,868,340,57,456,
0,838,855,337,56,451,
0,825,840,335,56,528,
0,901,828,332,56,523,
0,911,815,329,55,516,
0,914,802,327,54,511,
0,910,791,324,54,504,
0,887,779,321,54,499,
0,871,895,319,56,494,
0,857,908,316,56,488,
0,844,912,313,56,483,
0,831,915,311,56,478,
0,818,911,308,55,498,
0,888,894,352,55,515,
0,908,875,349,54,510,
0,913,861,345,54,504,
0,906,892,343,53,498,
0,883,907,339,52,494,
0,868,912,336,62,488,
0,855,915,334,61,483,
0,840,910,331,60,478,
0,831,885,327,60,473,
0,818,870,326,60,468,
0,827,856,323,59,507,
0,905,843,319,59,500,
0,913,830,317,58,495,
0,915,817,315,57,489,
0,910,808,312,57,484,
0,886,797,310,66,479,
0,871,785,307,65,473,
0,856,897,304,63,468,
0,844,903,302,63,465,
0,830,885,300,63,460,
0,828,871,311,63,543,
0,905,856,308,62,536,
0,911,842,305,62,528,
0,915,829,303,61,523,
0,913,816,300,60,517,
0,891,804,297,61,511,
0,875,896,295,60,505,
0,860,908,292,60,499,
0,847,910,290,60,495,
0,834,903,287,59,489,
0,821,880,286,59,553,
0,902,865,284,58,546,
0,911,851,281,58,540,
0,915,839,280,57,535,
0,916,825,276,56,528,
0,899,814,275,56,523,
0,882,801,273,68,516,
0,868,790,271,67,511,
0,854,779,269,67,505,
0,840,768,268,66,500,
0,828,757,265,66,526,
0,892,747,263,65,537,
0,910,736,262,64,531,
0,914,729,259,63,526,
0,913,845,258,63,519,
0,891,888,255,63,513,
0,875,871,255,63,508,
0,860,856,253,63,504,
0,847,843,252,63,499,
0,833,830,249,63,493,
0,824,816,248,62,487,
0,852,806,317,61,502,
0,907,792,313,61,496,
0,913,781,310,60,491,
0,915,770,307,60,486,
0,908,760,304,60,480,
0,884,848,302,67,476,
0,868,901,299,67,471,
0,855,910,296,66,465,
0,841,913,294,65,461,
0,828,916,291,65,456,
0,825,915,289,64,508,
0,905,896,287,63,503,
0,913,876,284,63,496,
0,911,861,283,63,492,
0,897,848,280,62,486,
0,878,879,279,69,480,
0,864,880,275,68,476,
0,850,864,273,67,471,
0,836,850,271,67,465,
0,824,838,269,66,461,
0,812,828,433,66,483,
0,903,816,447,65,476,
0,911,803,441,64,472,
0,915,792,437,63,466,
0,913,780,432,63,462,
0,889,769,428,63,457,
0,874,759,423,66,452,
0,860,748,421,65,448,
0,850,739,417,65,444,
0,836,729,413,65,440,
0,824,719,454,63,487,
0,897,711,449,63,487,
0,910,701,444,63,481,
0,915,692,440,62,476,
0,918,684,435,62,472,
0,913,677,431,62,466,
0,889,669,427,67,461,
0,873,661,423,66,455,
0,860,653,419,65,452,
0,846,851,415,65,448,
0,832,835,411,65,444,
0,895,822,408,63,486,
0,908,808,404,63,480,
0,914,796,400,63,475,
0,916,784,397,63,470,
0,908,773,393,62,464,
0,884,762,391,71,460,
0,869,752,387,70,455,
0,856,741,384,69,449,
0,841,733,380,68,446,
0,829,723,377,68,441,
0,861,714,375,67,483,
0,907,704,371,67,478,
0,913,696,368,67,473,
0,917,716,365,65,468,
0,913,876,361,65,463,
0,894,860,359,67,458,
0,876,846,357,66,454,
0,862,831,353,65,448,
0,848,819,351,65,444,
0,835,807,409,64,440,
0,823,796,405,63,487,
0,903,783,401,63,482,
0,911,775,397,63,477,
0,915,764,393,63,472,
0,912,753,390,62,467,
0,889,856,386,79,462,
0,873,903,382,103,456,
0,859,905,379,102,451,
0,846,886,376,100,448,
0,831,871,372,99,443,
0,819,856,369,99,483,
0,903,843,366,98,476,
0,911,830,363,97,472,
0,915,817,359,96,467,
0,913,824,356,96,463,
0,889,903,353,95,457,
0,873,910,351,94,452,
0,863,914,348,94,448,
0,849,914,345,92,443,
0,836,900,343,92,439,
0,824,878,339,92,483,
0,897,864,337,91,476,
0,910,850,335,90,471,
0,915,839,332,89,465,
0,916,827,329,89,460,
0,908,890,327,88,455,
0,883,907,324,88,451,
0,868,911,321,87,448,
0,855,907,319,86,443,
0,841,883,317,86,438,
0,828,868,315,85,434,
0,876,856,313,84,479,
0,908,841,312,83,473,
0,913,828,309,83,467,
0,916,816,307,83,463,
0,908,804,304,82,457,
0,884,792,302,81,452,
0,869,781,300,81,448,
0,856,773,297,80,444,
0,841,762,295,79,439,
0,828,752,294,79,435,
0,860,743,320,78,486,
0,907,732,318,78,481,
0,913,723,314,77,476,
0,915,713,312,76,470,
0,911,704,310,76,465,
0,886,695,307,77,460,
0,871,686,304,76,455,
0,857,678,302,76,451,
0,844,670,299,76,446,
0,831,662,295,75,441,
0,818,655,346,75,502,
0,904,647,342,73,496,
0,912,639,339,73,490,
0,916,633,335,72,485,
0,916,626,332,71,480,
0,903,699,329,71,476,
0,880,689,326,73,471,
0,865,679,323,71,465,
0,856,670,321,71,461,
0,841,661,318,71,455,
0,828,652,316,71,518,
0,897,644,312,70,511,
0,910,636,311,70,504,
0,915,628,307,69,499,
0,916,621,305,68,494,
0,908,615,302,68,487,
0,883,608,300,72,483,
0,868,601,297,71,478,
0,855,595,295,71,472,
0,841,588,292,71,468,
0,828,583,291,71,463,
0,897,575,288,70,499,
0,910,570,287,70,494,
0,914,700,284,68,487,
0,917,689,283,68,483,
0,918,679,280,67,478,
0,903,881,279,70,472,
0,880,905,276,69,467,
0,865,900,274,68,462,
0,851,884,271,68,457,
0,838,869,271,67,454,
0,883,856,327,67,483,
0,908,841,324,67,478,
0,914,828,321,66,474,
0,916,816,319,65,469,
0,913,803,316,65,463,
0,888,792,313,66,459,
0,876,780,311,65,454,
0,863,769,308,65,449,
0,849,759,305,65,445,
0,835,748,303,64,440,
0,824,739,300,63,492,
0,904,728,297,63,486,
0,912,719,295,63,480,
0,916,711,292,63,475,
0,914,703,291,62,470,
0,890,694,287,71,464,
0,874,685,286,73,459,
0,860,676,283,73,455,
0,847,668,281,72,451,
0,833,659,280,71,446,
0,824,652,277,71,497,
0,899,644,275,71,491,
0,911,637,273,71,486,
0,915,630,271,70,480,
0,916,623,268,68,475,
0,903,615,267,68,470,
0,880,608,264,72,464,
0,866,604,263,71,460,
0,852,597,261,71,455,
0,839,590,259,71,449,
0,825,583,257,70,524,
0,899,577,255,70,519,
0,911,572,254,69,512,
0,915,566,252,68,507,
0,916,560,251,67,500,
0,908,554,249,67,496,
0,883,548,248,68,489,
0,868,543,246,67,484,
0,855,537,243,67,480,
0,841,532,242,67,475,
0,828,527,241,67,470,
0,887,524,276,66,499,
0,908,518,273,65,494,
0,913,513,271,65,487,
0,913,508,269,64,483,
0,892,504,267,63,479,
0,876,521,263,67,473,
0,862,631,262,66,468,
0,851,622,260,65,463,
0,838,614,258,65,459,
0,825,606,255,64,454,
0,813,600,254,63,497,
0,905,591,252,63,491,
0,911,660,250,63,486,
0,908,651,248,62,480,
0,887,644,246,62,475,
0,871,636,244,63,470,
0,857,779,242,63,464,
0,844,766,240,63,460,
0,830,754,239,63,455,
0,817,743,237,62,451,
0,806,732,236,62,484,
0,903,722,235,61,478,
0,911,712,232,60,472,
0,914,703,231,60,467,
0,908,785,230,59,463,
0,883,772,228,63,457,
0,869,760,227,68,452,
0,855,750,225,67,448,
0,841,741,224,67,444,
0,828,731,223,67,440,
0,816,721,251,66,496,
0,899,711,294,65,488,
0,911,701,291,65,484,
0,914,692,287,64,479,
0,908,683,285,63,473,
0,884,674,284,63,468,
0,873,665,280,67,463,
0,860,748,279,67,459,
0,845,737,276,66,454,
0,831,726,273,65,449,
0,819,716,271,65,463,
0,888,706,269,64,492,
0,908,696,267,63,486,
0,914,689,264,63,481,
0,914,679,263,63,476,
0,893,671,260,62,470,
0,876,663,258,65,465,
0,862,655,255,65,462,
0,847,647,254,64,456,
0,835,639,252,63,451,
0,825,631,251,63,448,
0,828,624,248,63,496,
0,906,615,247,62,489,
0,913,676,244,61,484,
0,912,667,243,61,479,
0,892,657,241,60,473,
0,876,649,239,64,468,
0,861,642,238,63,463,
0,847,634,236,63,459,
0,834,626,233,63,454,
0,822,619,302,62,449,
0,816,611,415,62,498,
0,905,604,409,61,492,
0,913,596,405,61,487,
0,915,713,401,60,481,
0,908,702,398,60,476,
0,884,692,394,65,471,
0,869,682,391,65,465,
0,856,673,387,64,460,
0,841,664,384,63,455,
0,829,655,380,63,451,
0,816,649,376,63,512,
0,901,657,374,62,506,
0,911,831,369,62,500,
0,915,817,367,61,495,
0,914,804,364,60,491,
0,892,792,359,60,485,
0,875,780,357,71,480,
0,865,768,355,70,475,
0,851,758,352,69,470,
0,838,747,349,69,464,
0,824,737,346,68,501,
0,895,727,384,67,495,
0,910,717,379,67,489,
0,915,707,376,67,483,
0,916,700,371,66,479,
0,910,691,368,65,473,
0,884,682,365,68,468,
0,870,673,361,67,463,
0,856,665,359,67,460,
0,843,657,355,66,455,
0,829,649,352,66,450,
0,896,641,350,65,484,
0,908,633,347,65,479,
0,913,626,344,63,473,
0,913,705,341,63,468,
0,894,825,338,63,463,
0,876,812,335,65,458,
0,862,799,333,63,453,
0,849,820,330,63,449,
0,835,900,327,63,444,
0,823,888,325,63,440,
0,854,872,322,62,472,
0,907,857,319,62,467,
0,913,844,318,61,463,
0,915,831,315,60,459,
0,902,818,312,60,454,
0,883,806,311,63,449,
0,869,896,308,62,444,
0,855,908,305,62,440,
0,841,911,304,60,435,
0,829,904,301,60,431,
0,816,882,300,60,472,
0,903,867,297,59,465,
0,911,856,295,59,460,
0,913,843,294,59,455,
0,900,830,291,58,451,
0,880,817,289,57,446,
0,865,805,287,59,442,
0,851,793,285,59,438,
0,838,782,283,58,433,
0,828,771,281,57,429,
0,816,760,280,57,486,
0,894,750,297,56,479,
0,908,740,295,56,473,
0,905,731,292,56,467,
0,883,720,289,56,463,
0,870,855,287,56,457,
0,855,844,284,62,453,
0,841,830,282,61,448,
0,828,816,280,60,444,
0,815,804,278,60,440,
0,803,792,275,60,436,
0,891,780,274,59,487,
0,909,769,271,59,481,
0,911,758,270,58,476,
0,897,748,268,57,472,
0,878,880,267,57,466,
0,864,865,263,60,461,
0,849,851,263,59,455,
0,836,836,260,59,451,
0,824,824,259,58,447,
0,811,814,257,57,443,
0,847,802,280,57,487,
0,906,790,278,56,481,
0,913,779,275,56,476,
0,915,768,272,56,472,
0,903,756,270,56,467,
0,880,746,268,65,462,
0,865,736,266,65,457,
0,856,841,263,64,452,
0,842,828,262,63,448,
0,829,814,259,63,443,
0,816,802,258,63,494,
0,903,790,255,62,487,
0,911,777,254,62,483,
0,912,769,252,61,477,
0,894,856,250,60,472,
0,876,878,248,60,467,
0,862,903,247,63,462,
0,848,910,245,62,458,
0,835,909,243,62,454,
0,822,888,241,61,448,
0,809,872,240,60,495,
0,896,859,239,60,487,
0,910,845,237,60,483,
0,915,831,235,59,477,
0,914,819,233,59,472,
0,894,807,231,58,467,
0,877,795,231,65,462,
0,863,783,228,65,456,
0,848,775,227,63,451,
0,835,764,225,63,448,
0,823,754,224,63,484,
0,893,743,273,62,489,
0,910,755,271,62,484,
0,914,748,268,62,479,
0,915,737,267,61,473,
0,905,783,263,60,468,
0,882,900,262,64,463,
0,867,902,259,63,458,
0,854,883,257,63,454,
0,839,867,255,62,448,
0,827,854,253,62,444,
0,870,840,408,61,440,
0,907,830,403,61,435,
0,913,817,398,60,432,
0,917,806,395,60,427,
0,915,793,391,60,423,
0,893,896,387,66,420,
0,876,908,384,65,415,
0,862,912,380,65,412,
0,851,912,377,64,408,
0,838,897,374,63,405,
0,825,877,371,63,468,
0,903,862,367,63,463,
0,911,848,364,63,457,
0,915,835,360,62,452,
0,911,896,358,61,448,
0,888,906,355,62,443,
0,871,911,352,68,439,
0,857,915,348,67,434,
0,844,916,345,67,430,
0,831,911,343,66,427,
0,819,886,386,66,486,
0,903,871,382,65,480,
0,910,880,379,65,473,
0,915,905,375,64,468,
0,914,904,371,63,463,
0,893,884,368,63,459,
0,876,870,364,63,454,
0,862,856,361,63,449,
0,848,842,358,63,444,
0,835,831,355,62,440,
0,822,820,355,62,489,
0,897,808,353,61,483,
0,910,796,350,60,478,
0,915,785,347,60,473,
0,918,774,344,60,468,
0,913,764,341,59,463,
0,888,753,339,60,459,
0,876,743,335,60,454,
0,862,733,334,59,448,
0,848,723,331,58,444,
0,835,714,327,58,440,
0,886,705,326,57,492,
0,908,696,323,56,487,
0,914,689,319,56,481,
0,915,681,318,56,476,
0,906,672,315,56,472,
0,882,680,312,71,466,
0,867,821,311,70,462,
0,854,807,307,70,457,
0,839,795,305,68,452,
0,827,783,304,67,448,
0,818,771,366,67,498,
0,905,760,361,67,492,
0,913,749,358,66,487,
0,916,739,354,65,481,
0,911,879,351,65,476,
0,887,866,348,65,471,
0,871,852,344,65,465,
0,857,841,342,63,460,
0,844,899,339,63,455,
0,831,905,335,63,451,
0,883,888,333,63,462,
0,908,871,330,62,458,
0,914,858,327,62,454,
0,918,844,325,61,448,
0,920,831,322,60,444,
0,920,897,319,67,440,
0,907,908,317,71,435,
0,881,913,315,70,431,
0,867,916,312,70,427,
0,853,918,310,69,423,
0,839,915,307,68,479,
0,901,898,304,68,472,
0,911,876,302,67,467,
0,916,879,300,67,462,
0,918,905,297,66,457,
0,915,911,295,66,453,
0,891,914,292,66,448,
0,875,913,291,65,444,
0,864,894,288,64,440,
0,850,875,287,64,435,
0,838,862,284,63,446,
0,891,848,283,63,485,
0,909,835,280,63,480,
0,915,881,278,62,474,
0,918,866,276,62,468,
0,914,856,274,61,463,
0,889,899,271,62,459,
0,873,909,270,62,454,
0,860,913,268,61,449,
0,846,915,267,60,446,
0,833,909,263,60,441,
0,889,883,315,60,496,
0,906,868,312,59,491,
0,913,855,310,59,484,
0,917,841,307,58,480,
0,918,828,304,57,474,
0,911,889,301,61,469,
0,884,907,298,61,463,
0,870,911,295,60,459,
0,856,906,293,60,455,
0,843,883,291,60,449,
0,830,869,288,59,504,
0,905,854,286,59,497,
0,913,841,284,58,493,
0,916,828,281,57,487,
0,915,889,279,57,482,
0,892,907,278,59,477,
0,880,910,275,60,472,
0,865,903,272,60,467,
0,851,880,271,59,462,
0,838,866,297,58,457,
0,825,853,485,57,481,
0,902,839,499,57,476,
0,911,829,494,57,471,
0,916,816,487,56,465,
0,918,804,483,56,460,
0,915,793,478,56,455,
0,888,782,473,66,451,
0,873,771,468,65,448,
0,860,760,463,64,443,
0,846,750,463,63,439,
0,836,740,582,63,461,
0,896,730,574,63,486,
0,910,720,568,62,480,
0,915,711,560,62,476,
0,918,871,555,61,470,
0,917,856,548,61,464,
0,898,841,543,65,460,
0,878,831,536,64,455,
0,864,818,531,63,450,
0,851,897,526,63,446,
0,838,908,520,63,451,
0,895,910,515,62,476,
0,910,892,510,62,471,
0,915,874,504,61,465,
0,918,899,502,60,460,
0,919,908,496,60,455,
0,911,912,492,60,451,
0,884,915,487,60,446,
0,870,918,483,60,441,
0,856,919,478,59,438,
0,843,911,473,59,433,
0,855,888,469,58,480,
0,907,871,464,57,474,
0,913,858,460,57,469,
0,916,845,456,56,463,
0,917,831,452,56,460,
0,904,900,448,58,455,
0,881,909,444,57,450,
0,870,913,441,56,446,
0,856,915,438,56,441,
0,843,907,433,56,436,
0,830,883,430,56,484,
0,903,867,426,55,479,
0,912,854,423,55,473,
0,916,891,419,54,467,
0,918,902,415,54,463,
0,911,888,412,54,457,
0,884,903,408,62,452,
0,870,910,406,61,448,
0,856,913,402,60,444,
0,867,911,399,60,440,
0,888,888,396,60,489,
0,905,872,393,59,482,
0,911,870,391,59,476,
0,916,905,387,57,472,
0,919,910,384,57,466,
0,918,905,381,57,462,
0,896,883,378,56,455,
0,878,867,376,56,451,
0,864,857,372,56,448,
0,849,844,369,56,443,
0,837,831,367,55,478,
0,897,819,364,54,476,
0,910,807,361,54,472,
0,915,795,358,53,467,
0,918,892,355,53,462,
0,916,902,353,52,457,
0,904,883,351,54,452,
0,881,868,348,54,448,
0,866,855,345,53,443,
0,852,840,343,52,439,
0,839,828,340,52,435,
0,877,815,338,52,480,
0,908,803,335,51,475,
0,914,794,333,51,470,
0,918,783,331,51,463,
0,920,771,327,51,459,
0,915,761,326,59,455,
0,888,751,323,58,451,
0,873,740,321,58,446,
0,859,731,319,57,441,
0,894,721,317,56,437,
0,910,711,315,56,488,
0,914,784,312,56,483,
0,918,878,311,56,477,
0,920,862,308,55,472,
0,921,847,306,55,467,
0,922,834,304,54,462,
0,915,824,302,54,456,
0,887,812,300,53,452,
0,871,799,297,53,448,
0,857,787,295,52,443,
0,845,776,334,52,480,
0,904,766,329,51,475,
0,912,755,326,51,468,
0,915,743,323,51,463,
0,919,755,320,50,459,
0,918,899,318,51,454,
0,899,903,315,56,449,
0,879,886,312,56,444,
0,864,870,310,55,440,
0,851,856,307,55,435,
0,838,846,304,54,483,
0,899,832,302,54,480,
0,911,820,299,53,475,
0,915,807,296,53,470,
0,918,894,294,52,466,
0,915,891,292,52,460,
0,892,873,290,56,455,
0,879,859,288,55,451,
0,864,897,287,54,447,
0,851,908,284,54,442,
0,838,911,283,53,438,
0,881,908,314,52,505,
0,908,883,311,52,499,
0,914,868,308,51,494,
0,918,858,305,51,488,
0,919,844,302,51,483,
0,909,831,300,51,478,
0,883,819,297,51,473,
0,868,807,295,51,469,
0,855,795,291,50,463,
0,841,783,289,50,460,
0,876,772,302,49,504,
0,905,761,298,49,497,
0,912,752,295,49,492,
0,917,742,293,48,486,
0,919,732,291,48,480,
0,916,721,287,48,475,
0,892,712,286,48,470,
0,876,705,283,48,465,
0,862,696,280,47,460,
0,847,688,279,47,455,
0,835,679,277,47,452,
0,904,671,275,46,448,
0,912,664,273,46,444,
0,916,655,271,46,440,
0,919,647,270,45,435,
0,918,639,268,45,432,
0,900,841,266,46,427,
0,879,844,264,46,423,
0,864,830,263,45,419,
0,851,816,261,45,415,
0,838,804,259,44,473,
0,900,792,289,44,467,
0,911,783,286,44,462,
0,915,771,284,44,455,
0,918,760,281,43,451,
0,918,750,279,43,447,
0,904,739,276,45,444,
0,880,729,274,44,439,
0,866,719,271,44,434,
0,856,711,296,44,430,
0,902,701,405,43,425,
0,910,691,400,43,470,
0,914,683,396,43,464,
0,918,674,391,42,460,
0,920,665,388,41,455,
0,921,657,385,41,449,
0,918,652,382,46,444,
0,891,643,377,45,440,
0,875,636,375,45,435,
0,862,836,371,44,432,
0,867,824,368,44,428,
0,889,811,364,43,478,
0,908,798,361,43,472,
0,913,785,359,43,467,
0,917,774,355,42,462,
0,919,796,353,42,456,
0,913,902,350,54,451,
0,886,909,347,54,448,
0,871,913,344,53,442,
0,857,916,341,52,438,
0,844,918,339,52,433,
0,831,912,335,51,480,
0,905,884,332,51,474,
0,913,870,330,51,468,
0,917,856,327,50,465,
0,918,843,324,50,460,
0,912,830,322,49,455,
0,891,899,319,49,450,
0,875,909,318,49,446,
0,860,913,315,49,440,
0,847,914,312,48,436,
0,835,899,316,48,487,
0,902,877,313,48,481,
0,911,863,310,47,476,
0,916,852,307,47,471,
0,919,854,305,47,465,
0,917,872,303,46,460,
0,897,894,300,54,455,
0,878,907,298,54,451,
0,864,912,295,53,447,
0,849,915,294,52,443,
0,836,918,292,52,449,
0,889,917,290,51,489,
0,909,899,287,51,483,
0,915,884,286,51,479,
0,916,870,284,50,473,
0,907,856,281,50,467,
0,883,843,280,51,463,
0,868,833,277,51,458,
0,855,820,275,51,454,
0,840,808,273,50,448,
0,828,797,271,49,444,
0,889,786,299,49,485,
0,908,775,295,49,480,
0,915,764,294,48,474,
0,918,753,291,48,469,
0,919,743,289,48,463,
0,911,734,286,47,459,
0,885,724,284,47,454,
0,871,715,281,46,449,
0,856,705,279,46,444,
0,843,697,276,46,440,
0,838,688,291,45,508,
0,905,681,289,45,502,
0,913,673,286,45,496,
0,917,665,284,44,491,
0,917,713,281,44,486,
0,903,703,279,46,481,
0,880,692,276,48,476,
0,867,683,273,47,472,
0,856,674,272,47,466,
0,843,664,270,46,462,
0,830,657,268,46,460,
0,902,648,266,46,455,
0,911,641,263,45,451,
0,916,801,262,45,447,
0,918,788,260,44,441,
0,915,801,259,44,438,
0,888,901,257,53,433,
0,873,898,255,52,429,
0,859,879,253,51,425,
0,846,864,252,51,422,
0,832,850,289,51,439,
0,900,837,335,50,462,
0,910,824,332,50,455,
0,915,812,327,49,451,
0,918,799,326,49,446,
0,917,787,323,48,441,
0,897,776,319,55,437,
0,878,766,316,54,432,
0,864,755,313,54,428,
0,849,747,311,54,423,
0,836,737,308,52,435,
0,890,728,306,52,476,
0,909,864,303,51,471,
0,915,849,300,51,467,
0,918,835,298,51,462,
0,919,822,295,51,456,
0,909,808,294,52,451,
0,887,796,291,51,447,
0,871,784,289,51,442,
0,857,774,287,51,438,
0,845,762,284,50,433,
0,856,752,282,49,486,
0,907,741,280,49,480,
0,913,733,278,49,475,
0,917,723,275,48,469,
0,918,713,273,48,463,
0,907,704,271,60,459,
0,882,876,269,60,455,
0,868,862,267,60,451,
0,854,869,265,59,446,
0,841,855,263,59,441,
0,831,841,319,58,506,
0,903,827,315,57,499,
0,911,814,312,57,494,
0,916,802,308,56,487,
0,918,790,305,56,483,
0,915,779,303,59,478,
0,890,768,300,60,472,
0,875,760,297,59,467,
0,860,748,295,59,463,
0,847,738,292,57,457,
0,834,728,290,57,471,
0,903,719,287,57,487,
0,912,709,285,56,481,
0,916,700,284,56,476,
0,919,691,281,56,472,
0,920,682,279,55,466,
0,911,692,276,63,461,
0,885,894,274,62,455,
0,870,884,271,62,451,
0,856,868,270,61,447,
0,843,854,268,60,464,
0,892,844,265,60,497,
0,909,831,263,60,491,
0,915,818,262,59,486,
0,917,807,259,58,480,
0,915,795,257,57,476,
0,891,783,255,58,472,
0,876,854,254,57,466,
0,864,903,252,57,461,
0,851,908,250,56,455,
0,838,891,248,56,451,
0,871,875,275,56,480,
0,907,860,271,56,473,
0,913,846,269,55,468,
0,918,833,267,55,463,
0,920,824,263,54,458,
0,919,811,262,56,454,
0,898,799,259,56,448,
0,878,787,257,56,444,
0,864,775,255,55,440,
0,850,765,254,55,436,
0,856,755,252,54,481,
0,903,743,249,54,476,
0,911,734,248,53,471,
0,917,816,246,52,465,
0,918,802,244,52,460,
0,913,882,243,55,455,
0,888,905,241,55,451,
0,872,906,239,54,446,
0,858,892,238,54,441,
0,844,874,236,54,437,
0,831,860,337,52,480,
0,903,847,332,52,473,
0,911,833,328,52,470,
0,916,820,326,51,463,
0,918,807,323,51,460,
0,911,897,319,51,455,
0,888,907,318,55,449,
0,873,899,315,54,445,
0,860,879,312,54,440,
0,846,864,310,53,435,
0,833,850,307,52,487,
0,897,836,304,52,480,
0,910,827,302,51,475,
0,915,815,299,51,470,
0,919,889,295,51,464,
0,919,898,294,51,460,
0,907,880,291,52,455,
0,882,865,289,52,451,
0,867,851,287,51,446,
0,854,838,285,51,441,
0,844,824,283,51,438,
0,886,812,280,51,475,
0,908,799,279,50,470,
0,915,788,275,49,465,
0,918,885,274,49,460,
0,919,898,271,49,455,
0,911,880,270,49,449,
0,883,868,268,48,445,
0,870,854,265,48,440,
0,856,840,263,48,436,
0,843,828,268,47,432,
0,874,816,275,47,491,
0,908,803,273,47,485,
0,914,792,271,46,480,
0,916,780,269,46,474,
0,919,768,267,46,469,
0,914,758,263,56,463,
0,888,748,262,56,459,
0,872,737,259,55,454,
0,859,728,258,55,449,
0,892,718,255,54,444,
0,903,711,284,54,489,
0,909,702,281,53,483,
0,915,693,279,53,479,
0,918,684,276,52,473,
0,920,676,274,51,469,
0,920,668,271,51,463,
0,903,659,269,65,459,
0,883,652,268,63,455,
0,868,644,264,63,449,
0,855,636,263,63,445,
0,841,630,260,62,513,
0,899,622,259,62,505,
0,911,615,255,61,499,
0,915,608,255,61,494,
0,918,604,252,60,488,
0,913,597,251,60,483,
0,888,591,248,59,478,
0,872,583,247,59,473,
0,859,671,245,58,470,
0,845,698,243,58,464,
0,831,688,309,57,460,
0,883,679,348,57,510,
0,908,669,344,56,504,
0,914,660,339,56,499,
0,917,652,337,56,493,
0,915,643,334,55,487,
0,893,635,331,56,483,
0,876,847,327,55,477,
0,862,835,324,55,472,
0,847,822,321,54,467,
0,876,808,319,54,462,
0,892,796,316,53,496,
0,909,783,357,53,491,
0,915,772,352,52,486,
0,918,761,349,52,480,
0,920,751,347,51,475,
0,918,740,344,52,470,
0,894,831,340,51,465,
0,876,901,337,51,460,
0,862,889,334,51,455,
0,849,872,331,51,451,
0,835,859,327,50,496,
0,905,847,325,49,491,
0,912,834,322,49,484,
0,916,822,319,49,480,
0,916,809,317,48,473,
0,900,797,314,48,470,
0,879,785,312,49,465,
0,865,775,309,48,460,
0,851,764,307,48,455,
0,840,753,304,48,451,
0,828,743,302,48,504,
0,900,795,300,47,496,
0,911,824,297,46,491,
0,915,809,295,46,486,
0,919,797,292,46,480,
0,918,785,290,46,475,
0,904,775,287,56,470,
0,880,765,286,56,465,
0,866,754,284,56,460,
0,852,743,281,55,455,
0,839,732,279,55,452,
0,899,723,277,54,520,
0,911,713,275,54,515,
0,914,704,273,53,508,
0,918,696,271,52,503,
0,918,687,269,51,497,
0,904,678,267,52,492,
0,880,670,264,51,487,
0,866,726,263,51,481,
0,852,715,261,51,476,
0,839,707,259,50,472,
0,881,697,257,49,528,
0,908,688,255,49,522,
0,914,678,253,49,516,
0,918,669,252,48,512,
0,919,661,249,48,506,
0,913,652,248,52,500,
0,892,645,246,51,496,
0,876,792,244,51,489,
0,861,778,243,51,484,
0,847,767,241,50,480,
0,836,756,353,49,519,
0,905,743,355,49,512,
0,913,734,352,49,507,
0,917,726,348,49,501,
0,920,716,344,48,496,
0,920,705,342,48,489,
0,908,696,339,48,484,
0,883,687,335,48,480,
0,868,678,332,47,476,
0,854,670,329,47,471,
0,841,662,327,47,532,
0,902,653,325,46,525,
0,911,645,322,46,519,
0,915,684,319,45,513,
0,919,816,316,45,508,
0,917,803,313,46,502,
0,897,790,312,51,496,
0,878,836,308,50,491,
0,863,903,306,49,486,
0,850,907,304,49,480,
0,836,891,301,49,521,
0,900,873,299,48,516,
0,911,859,295,48,510,
0,915,846,294,48,504,
0,918,831,292,48,499,
0,919,819,289,47,493,
0,911,807,287,48,487,
0,884,796,285,48,483,
0,870,783,283,47,477,
0,856,773,280,47,472,
0,843,762,279,47,468,
0,889,752,307,46,519,
0,908,743,305,46,512,
0,914,734,302,46,507,
0,918,724,300,45,501,
0,919,715,296,44,496,
0,911,705,294,45,492,
0,886,891,291,45,486,
0,870,894,289,44,480,
0,860,876,287,44,476,
0,847,861,285,44,471,
0,852,847,283,43,521,
0,907,834,280,43,515,
0,913,821,278,43,509,
0,917,843,276,42,504,
0,919,898,273,41,497,
0,917,886,271,41,492,
0,892,870,269,41,487,
0,876,856,268,41,481,
0,862,842,265,40,476,
0,848,829,263,39,472,
0,835,817,262,39,527,
0,905,804,259,39,520,
0,911,792,258,39,515,
0,916,781,255,39,509,
0,919,770,254,39,504,
0,914,760,252,39,497,
0,888,749,250,39,492,
0,873,739,248,39,487,
0,859,728,247,39,481,
0,846,721,245,39,477,
0,831,711,243,39,534,
0,902,728,241,39,527,
0,911,897,240,38,520,
0,916,888,239,38,516,
0,918,871,236,38,510,
0,918,858,235,38,504,
0,906,844,233,45,499,
0,881,831,231,44,494,
0,867,817,231,44,487,
0,853,806,230,44,483,
0,839,793,227,43,505,
0,893,782,226,43,542,
0,909,771,225,42,536,
0,915,763,223,42,529,
0,918,752,222,41,523,
0,914,742,220,41,517,
0,888,732,219,41,511,
0,873,895,217,41,507,
0,860,907,216,41,502,
0,846,903,215,40,496,
0,832,883,214,39,491,
0,864,867,266,39,535,
0,907,854,263,39,527,
0,913,840,260,39,521,
0,918,828,258,39,515,
0,920,815,255,39,510,
0,915,802,254,39,504,
0,888,831,252,38,499,
0,873,818,249,39,493,
0,859,805,248,38,487,
0,846,793,246,38,483,
0,844,783,278,37,534,
0,906,770,275,36,527,
0,913,760,272,36,521,
0,917,749,271,36,515,
0,919,739,268,35,510,
0,915,729,265,39,504,
0,889,805,263,38,498,
0,874,792,262,38,493,
0,860,780,259,38,487,
0,847,768,257,37,483,
0,833,758,255,37,532,
0,903,750,265,36,526,
0,911,738,263,36,519,
0,916,728,260,35,513,
0,919,719,259,36,508,
0,920,708,255,35,504,
0,907,700,254,35,498,
0,882,691,252,35,493,
0,871,683,251,35,487,
0,857,674,248,35,483,
0,844,665,247,34,511,
0,897,658,244,34,545,
0,910,650,243,33,538,
0,915,643,240,33,532,
0,918,636,239,33,526,
0,920,630,237,33,519,
0,914,623,235,34,514,
0,887,615,233,33,509,
0,871,778,231,33,504,
0,857,765,230,33,499,
0,845,753,228,33,494,
0,900,743,227,33,544,
0,909,732,225,32,537,
0,914,721,224,31,531,
0,919,890,222,31,525,
0,920,904,220,31,519,
0,919,892,219,31,513,
0,899,875,217,31,508,
0,879,860,216,31,503,
0,864,850,214,31,497,
0,851,836,212,31,492,
0,868,880,252,31,543,
0,907,863,249,30,536,
0,913,849,248,30,531,
0,917,835,245,30,526,
0,919,823,243,30,519,
0,916,810,241,30,513,
0,893,900,240,30,508,
0,876,906,238,29,503,
0,862,891,236,29,497,
0,848,874,233,28,492,
0,836,860,316,28,527,
0,903,846,315,28,520,
