=~=~=~=~=~=~=~=~=~=~=~= PuTTY log 2021.04.22 12:19:47 =~=~=~=~=~=~=~=~=~=~=~=
06,639,282,246,433,
0,274,630,280,243,429,
0,277,
0,281,440,298,253,414,
0,279,435,295,251,454,
0,276,431,311,248,452,
0,274,425,307,241,304,257,423,
0,284,446,300,255,417,
0,281,440,298,253,414,
0,279,435,295,251,454,
0,276,431,311,248,452,
0,274,425,307,247,448,
0,271,421,304,244,443,
0,270,416,302,242,439,
0,267,412,300,240,434,
0,265,492,297,248,430,
0,303,485,294,246,45,
0,300,480,291,244,420,
0,296,473,289,242,416,
0,294,StartUp!
123,303,463,292,252,409,
0,301,460,291,250,407,
0,300,455,289,248,403,
0,297,452,287,248,423,
0,295,448,299,246,463,
0,293,445,295,244,460,
0,291,441,295,243,455,
0,289,439,292,241,452,
0,287,435,291,239,449,
0,285,432,288,238,446,
0,284,428,286,236,441,
0,281,495,284,235,436,
0,278,488,280,233,432,
0,275,483,279,231,427,
0,273,477,276,229,423,
0,271,472,295,227,455,
0,269,467,292,225,449,
0,267,460,289,224,444,
0,263,455,287,222,440,
0,263,450,284,220,435,
0,260,448,281,228,432,
0,268,488,280,226,427,
0,265,483,276,224,423,
0,263,477,274,223,417,
0,260,472,271,221,414,
0,259,467,284,219,436,
0,255,461,281,217,432,
0,254,455,280,215,428,
0,252,450,277,214,423,
0,250,445,275,211,419,
0,248,465,273,211,417,
0,275,460,271,210,413,
0,271,455,269,209,408,
0,270,450,267,207,404,
0,267,444,263,206,428,
0,264,440,306,204,433,
0,263,435,303,203,428,
0,260,430,300,201,423,
0,258,426,297,199,419,
0,255,422,295,198,415,
0,254,494,292,255,412,
0,322,487,289,252,408,
0,318,481,287,249,403,
0,315,476,284,248,399,
0,312,470,287,246,451,
0,309,464,321,243,446,
0,306,460,318,241,441,
0,304,454,315,239,436,
0,300,448,312,236,432,
1,298,444,310,235,428,
1,295,531,307,270,423,
1,321,524,304,268,419,
2,317,517,300,265,414,
2,314,511,298,263,410,
3,312,505,326,261,463,
3,308,499,321,259,459,
3,305,494,319,255,454,
3,303,487,316,254,448,
3,300,481,312,252,444,
3,297,476,310,275,440,
3,322,495,307,280,435,
4,335,489,304,276,431,
4,332,483,302,274,425,
4,329,478,299,271,422,
4,327,472,327,270,436,
4,323,467,323,267,432,
4,319,462,319,265,427,
4,317,455,317,263,423,
4,315,451,315,259,419,
4,312,491,312,277,415,
4,329,584,309,274,411,
5,327,576,306,271,407,
4,323,569,303,269,402,
4,319,562,300,267,398,
4,317,555,322,264,452,
4,314,548,319,263,448,
4,312,542,316,260,443,
4,308,534,312,257,438,
4,306,527,310,255,433,
4,304,603,307,278,429,
4,340,617,304,275,425,
4,335,608,302,272,420,
4,332,601,299,270,415,
4,329,593,295,268,432,
4,327,585,319,265,428,
4,323,579,316,263,423,
4,320,572,313,260,419,
3,318,563,311,258,415,
4,315,556,307,255,411,
4,312,582,305,273,408,
3,319,574,302,270,403,
4,315,567,300,268,399,
3,312,560,295,265,395,
3,310,553,294,263,444,
3,307,547,318,261,438,
3,304,540,315,259,433,
3,302,535,312,257,429,
3,300,527,309,254,424,
3,296,521,307,252,420,
3,295,515,304,276,415,
3,322,510,301,273,412,
3,319,504,298,271,408,
3,316,499,295,269,403,
3,312,494,321,267,462,
3,310,488,326,263,455,
3,307,483,323,263,451,
3,304,479,319,260,447,
3,302,472,317,257,442,
3,299,467,314,278,438,
3,323,463,312,281,433,
3,344,459,308,278,428,
3,340,455,306,275,424,
2,337,449,303,273,419,
2,334,446,323,271,457,
3,331,441,319,268,451,
3,327,437,318,267,448,
3,325,433,314,264,443,
2,323,428,312,262,438,
2,319,423,309,283,433,
2,322,469,306,280,429,
2,319,463,304,277,425,
3,316,458,301,275,421,
2,312,453,297,271,415,
2,311,448,318,270,463,
2,307,443,315,268,458,
2,305,439,312,265,453,
2,302,432,309,263,448,
2,300,428,307,260,444,
2,297,465,304,268,440,
1,332,483,301,265,435,
1,328,478,299,263,431,
2,325,472,295,260,427,
2,322,467,293,258,422,
1,319,462,328,255,417,
1,316,456,326,254,413,
1,313,451,323,252,409,
1,311,446,319,250,406,
1,307,441,316,248,402,
2,305,540,313,260,398,
1,311,532,312,258,395,
1,307,526,308,255,391,
1,304,519,306,254,387,
1,302,513,303,252,443,
1,299,507,327,249,438,
1,295,502,324,248,433,
1,294,496,322,246,428,
1,291,488,319,243,423,
1,289,483,316,241,419,
1,287,521,313,251,415,
1,308,515,311,249,412,
1,305,508,307,247,408,
1,302,503,305,244,403,
1,299,496,315,243,443,
1,295,491,312,240,438,
1,294,486,308,239,433,
1,291,480,305,237,429,
1,288,473,304,236,424,
1,286,468,300,252,421,
1,289,527,298,267,415,
1,300,521,295,263,412,
1,296,515,293,262,408,
0,294,508,290,259,404,
1,291,503,325,257,452,
1,288,497,321,255,448,
0,286,492,318,253,443,
0,284,486,316,251,438,
1,281,480,312,249,433,
0,279,475,310,268,430,
1,300,521,307,265,425,
0,305,515,304,263,420,
0,302,509,302,261,417,
0,299,504,299,259,412,
0,295,497,326,255,452,
0,294,492,322,254,448,
0,291,486,319,252,443,
0,287,481,316,250,439,
0,286,474,313,248,434,
1,284,547,311,270,430,
0,323,603,307,268,425,
0,319,594,305,264,421,
0,317,586,302,263,417,
0,313,579,299,260,414,
0,311,572,321,258,462,
0,307,565,318,255,455,
0,305,558,315,254,451,
0,303,551,312,252,447,
0,300,543,310,249,442,
0,297,543,307,252,438,
0,304,536,304,251,433,
0,300,529,302,248,429,
0,297,524,299,247,425,
0,294,518,295,244,435,
0,291,512,315,243,460,
0,289,507,312,240,455,
0,287,502,309,239,451,
0,284,496,307,236,446,
0,282,489,304,235,441,
0,280,503,301,253,436,
0,290,496,299,251,432,
0,287,490,295,248,428,
0,285,484,294,246,423,
0,282,480,313,244,455,
0,280,475,316,242,448,
0,277,470,312,240,444,
0,275,465,310,238,440,
0,273,460,307,236,435,
0,271,455,304,237,431,
0,284,476,302,247,426,
0,306,470,299,244,422,
0,303,464,295,242,418,
0,300,460,294,240,414,
0,296,455,307,239,463,
0,294,449,304,236,457,
0,291,446,301,234,452,
0,289,441,298,231,448,
0,286,436,295,231,443,
0,284,432,294,255,439,
0,284,467,291,254,434,
0,283,462,287,251,430,
0,280,456,286,249,425,
0,278,451,284,247,422,
0,275,448,313,244,417,
0,272,441,310,243,412,
0,271,437,307,240,408,
0,268,432,304,239,404,
0,266,428,302,236,401,
0,263,463,300,260,398,
0,300,498,295,257,394,
0,297,492,294,255,391,
0,294,486,291,253,387,
0,291,480,289,251,384,
0,287,475,316,248,407,
0,286,470,313,247,403,
0,283,464,311,244,398,
0,280,460,307,242,395,
0,279,455,305,240,391,
0,276,511,302,258,387,
0,303,504,300,255,384,
0,300,497,296,254,380,
0,296,492,295,251,376,
0,294,486,291,249,386,
0,291,480,313,248,418,
0,287,475,310,245,414,
0,286,470,307,243,409,
0,283,464,305,241,406,
0,280,460,302,239,401,
0,279,519,300,254,398,
0,312,511,296,252,393,
0,309,505,294,249,391,
0,306,499,291,248,387,
0,303,494,289,246,415,
0,300,487,317,243,408,
0,297,483,313,241,403,
0,295,477,312,239,399,
0,292,472,308,238,396,
0,289,467,305,236,392,
0,287,521,303,259,388,
0,300,515,300,255,384,
0,296,508,297,254,381,
0,294,503,295,252,377,
0,291,497,303,249,428,
0,287,491,323,248,422,
0,286,486,319,246,418,
0,283,480,316,243,414,
0,280,475,313,241,409,
0,279,470,312,240,406,
0,307,480,308,255,401,
0,312,475,305,254,398,
0,308,470,303,252,393,
0,305,463,300,249,390,
0,303,459,305,248,444,
0,299,454,302,246,438,
0,295,449,299,243,433,
0,294,444,295,241,429,
0,291,440,294,240,424,
0,289,435,291,248,420,
0,327,483,288,249,416,
0,323,478,287,247,412,
0,319,472,284,245,408,
0,318,466,281,243,404,
0,313,461,305,240,451,
0,312,455,302,239,445,
0,308,451,299,237,440,
0,305,446,295,235,435,
0,303,441,294,233,432,
0,300,455,291,246,427,
0,303,528,288,243,423,
0,300,521,286,240,419,
0,297,515,284,239,415,
0,295,510,281,236,414,
0,291,504,304,235,451,
0,289,498,300,232,446,
0,287,492,298,231,441,
0,284,487,295,228,436,
0,282,481,293,227,432,
0,280,558,291,249,428,
0,310,551,287,247,423,
0,306,544,286,244,419,
0,304,537,283,243,415,
0,301,531,280,240,412,
0,297,525,303,238,408,
0,295,519,300,236,403,
0,292,513,296,235,399,
0,289,507,294,232,395,
0,287,502,291,231,391,
0,285,504,289,252,388,
0,286,496,287,249,384,
0,283,491,284,247,381,
0,280,486,281,244,377,
0,278,481,281,243,428,
0,275,476,302,240,423,
0,273,471,299,239,417,
0,271,465,295,237,414,
0,268,460,294,235,409,
0,267,455,291,233,406,
0,284,531,287,255,401,
0,289,523,286,253,398,
0,287,516,284,251,394,
0,284,511,281,248,390,
0,281,505,308,246,436,
0,278,499,304,244,432,
0,275,493,301,242,427,
0,273,487,299,240,422,
0,271,483,295,238,417,
0,269,477,294,240,414,
0,321,516,291,240,409,
0,317,510,287,238,406,
0,314,504,286,236,402,
0,311,497,283,233,398,
0,308,492,318,231,430,
0,304,487,315,230,424,
0,302,481,311,228,419,
0,299,476,308,226,415,
0,296,471,305,225,411,
0,294,472,303,247,407,
0,294,545,300,244,403,
0,291,538,297,241,399,
0,289,531,295,240,396,
0,286,525,292,238,391,
0,284,519,318,236,429,
0,281,513,314,233,423,
0,279,507,311,231,419,
0,276,502,307,230,415,
0,274,496,305,228,411,
0,271,491,303,255,407,
0,307,483,300,252,403,
0,304,479,297,249,399,
0,302,473,295,248,396,
0,299,468,292,246,436,
0,295,463,322,243,439,
0,292,459,319,241,433,
0,290,454,315,239,428,
0,287,449,312,238,423,
0,285,444,310,236,419,
0,283,461,307,240,415,
0,293,454,304,238,411,
0,291,449,302,236,408,
0,287,444,299,234,403,
0,285,440,295,231,441,
0,283,435,309,230,435,
0,280,431,305,228,432,
0,278,427,303,227,425,
0,275,423,300,225,422,
0,272,419,297,224,418,
0,298,494,295,247,413,
0,300,486,292,244,409,
0,297,480,289,242,406,
0,295,475,287,240,401,
0,291,470,317,238,437,
0,289,463,313,236,432,
0,286,459,310,233,428,
0,283,454,307,231,422,
0,280,449,304,230,417,
0,278,444,302,231,414,
0,318,494,299,237,409,
0,316,486,295,235,406,
0,312,480,294,231,402,
0,310,475,291,230,398,
0,307,470,319,228,425,
0,304,463,316,227,421,
0,300,459,312,225,416,
0,297,454,310,223,412,
0,295,449,307,222,408,
0,292,444,304,242,403,
0,358,461,301,240,399,
0,353,455,299,238,396,
0,350,449,295,235,391,
0,345,444,294,233,388,
0,343,440,307,231,432,
0,339,435,304,229,427,
0,335,431,300,227,423,
0,332,427,297,225,417,
0,329,422,295,224,413,
0,327,459,292,235,409,
0,324,463,289,233,405,
0,321,456,287,231,401,
0,319,451,285,229,397,
0,316,447,283,227,432,
0,313,441,300,225,456,
0,311,436,297,223,451,
0,307,432,294,222,447,
0,304,428,291,220,441,
0,302,423,288,217,436,
0,300,448,286,283,432,
0,304,443,284,280,428,
0,302,436,281,276,423,
0,299,432,279,273,419,
0,295,427,276,271,470,
0,294,423,306,269,463,
0,291,418,303,267,459,
0,288,414,300,264,454,
0,286,410,297,263,448,
0,284,407,295,260,444,
0,297,490,291,262,440,
0,302,483,289,259,435,
0,299,476,287,257,430,
0,295,471,284,255,426,
0,294,465,294,253,477,
0,291,460,300,251,472,
0,288,455,297,249,465,
0,286,450,294,248,461,
0,283,445,291,245,455,
0,280,440,289,244,451,
0,284,526,286,243,446,
0,287,519,284,240,441,
0,284,511,281,238,437,
0,281,505,279,236,432,
0,279,499,295,235,435,
0,276,494,292,232,431,
0,274,487,289,231,427,
0,271,483,287,230,422,
0,270,477,284,227,417,
0,268,472,281,247,414,
0,358,467,280,244,409,
0,353,462,277,242,406,
0,350,455,275,240,403,
0,346,451,272,238,399,
0,344,446,287,236,448,
0,339,441,284,233,443,
0,336,438,281,231,438,
0,333,433,278,230,432,
0,329,428,275,228,428,
0,327,465,273,248,423,
0,324,487,271,245,419,
0,321,480,269,243,415,
0,319,473,267,240,412,
0,316,467,265,239,429,
0,313,463,302,236,436,
0,311,457,299,234,432,
0,308,453,295,231,428,
0,304,448,292,231,422,
0,303,443,290,228,417,
0,300,504,287,246,414,
0,299,497,285,243,409,
0,296,491,283,241,406,
0,294,484,280,239,402,
0,291,479,278,237,415,
0,289,473,301,235,412,
0,287,467,299,233,408,
0,285,463,295,231,403,
0,282,457,292,229,398,
0,280,452,290,227,395,
0,283,483,287,235,391,
0,287,477,285,233,387,
0,284,472,283,231,384,
0,281,465,280,228,381,
0,280,460,304,227,432,
0,278,455,308,225,427,
0,275,450,305,224,422,
0,272,445,303,222,417,
0,270,440,300,220,412,
0,268,435,297,223,408,
0,292,478,295,237,404,
0,291,472,291,235,400,
0,287,466,289,232,396,
0,286,459,287,230,393,
0,284,455,315,228,445,
0,280,449,312,227,440,
0,278,444,308,224,435,
0,275,440,305,223,431,
0,273,435,302,221,425,
0,270,431,300,248,422,
0,285,513,296,244,417,
0,282,507,295,243,414,
0,280,501,291,240,409,
0,277,494,289,238,406,
0,275,487,310,236,455,
0,271,483,306,233,449,
0,270,477,304,231,445,
0,267,472,300,230,440,
0,264,467,297,228,435,
0,263,508,295,240,430,
0,287,551,292,238,425,
0,285,544,289,236,422,
0,282,537,287,233,417,
0,280,529,284,231,415,
0,277,523,305,230,432,
0,275,518,302,227,428,
0,272,511,299,225,423,
0,270,505,295,224,419,
0,267,499,293,222,414,
0,265,568,291,225,409,
0,305,559,287,223,406,
0,303,551,286,221,402,
0,300,545,284,220,398,
0,297,537,281,217,459,
0,295,531,295,216,452,
0,291,524,293,214,448,
0,289,519,291,212,443,
0,286,512,287,211,438,
0,284,507,285,209,433,
0,281,556,283,233,428,
0,283,549,280,231,423,
0,280,542,278,230,420,
0,278,536,275,227,415,
0,275,527,290,225,460,
0,273,521,306,224,455,
0,271,515,303,222,449,
0,268,510,300,220,445,
0,265,504,297,217,440,
0,263,498,295,221,435,
0,272,550,291,242,431,
0,273,542,289,240,427,
0,271,536,287,238,422,
0,269,527,284,236,417,
0,266,521,300,233,467,
0,263,515,297,231,462,
0,262,509,295,229,457,
0,259,504,292,227,452,
0,257,497,289,225,448,
0,255,492,287,252,441,
0,304,559,284,255,438,
0,301,551,281,252,433,
0,298,545,280,250,428,
0,295,536,276,248,424,
0,292,531,303,246,420,
0,290,524,300,243,416,
0,287,518,297,241,412,
0,284,512,295,240,408,
0,281,507,291,238,405,
0,280,530,289,248,400,
0,305,571,286,245,396,
0,302,563,284,243,393,
0,300,556,281,241,390,
0,296,547,280,239,406,
0,294,542,304,236,444,
0,291,536,302,234,440,
0,289,529,299,232,435,
0,287,523,295,231,431,
0,283,516,294,229,427,
0,281,595,291,239,421,
0,280,585,287,236,417,
0,277,577,286,235,413,
0,275,571,284,232,409,
0,271,561,280,231,455,
0,270,555,303,228,449,
0,268,548,300,227,444,
0,265,542,297,224,440,
0,263,536,295,223,435,
0,261,529,291,221,431,
0,264,524,289,248,425,
0,287,518,287,246,422,
0,285,512,284,243,417,
0,283,506,281,241,413,
0,280,499,289,240,455,
0,277,494,300,236,449,
0,275,489,295,235,444,
0,272,483,294,232,440,
0,270,479,291,231,435,
0,268,473,287,230,432,
0,314,547,286,240,425,
0,315,540,283,238,422,
0,312,532,280,236,417,
0,308,527,278,233,413,
0,305,519,305,231,454,
0,303,512,302,230,448,
0,300,507,300,227,444,
0,297,501,295,225,439,
0,295,496,294,224,434,
0,291,490,291,238,430,
0,289,540,287,236,424,
0,287,533,286,233,420,
0,284,527,283,231,416,
0,282,520,280,230,412,
0,280,513,299,227,452,
0,278,507,295,225,448,
0,275,501,292,224,443,
0,272,496,290,222,438,
0,271,490,287,220,433,
0,268,487,284,220,430,
0,284,503,281,217,423,
0,281,496,280,216,419,
0,279,491,277,215,415,
0,276,486,275,212,415,
0,274,479,314,211,449,
0,271,473,311,209,444,
0,269,468,308,207,440,
0,267,463,305,206,435,
0,264,459,303,205,431,
0,262,463,300,239,427,
0,289,459,295,236,422,
0,286,454,294,234,417,
0,284,449,291,232,414,
0,280,444,289,231,450,
0,279,440,289,228,444,
0,275,435,287,226,440,
0,273,431,285,224,435,
0,271,427,283,223,431,
0,268,423,280,220,427,
0,266,430,278,232,422,
0,284,424,275,231,417,
0,281,420,272,228,413,
0,280,416,271,227,409,
0,276,412,277,225,469,
0,274,408,297,223,463,
0,271,403,294,220,459,
0,270,399,291,219,454,
0,267,396,289,217,448,
0,264,393,287,216,444,
0,287,457,284,223,439,
0,295,451,280,220,434,
0,292,447,279,219,430,
0,290,441,276,217,425,
0,287,436,305,216,423,
0,284,431,301,213,419,
0,282,426,299,211,415,
0,280,422,295,209,412,
0,277,417,293,208,408,
0,275,413,291,226,404,
0,280,465,287,231,399,
0,278,460,285,230,396,
0,275,455,283,228,391,
0,273,449,280,226,388,
0,271,445,291,224,444,
0,268,439,287,222,440,
0,266,434,286,220,435,
0,263,430,283,219,430,
0,262,425,280,216,425,
0,259,428,278,241,422,
0,285,464,275,239,416,
0,281,459,273,236,412,
0,280,454,271,235,408,
0,277,448,268,232,404,
0,275,444,313,231,423,
0,271,438,311,228,419,
0,270,433,307,226,415,
0,267,428,305,224,412,
0,264,423,302,223,408,
0,263,430,300,230,403,
0,329,425,295,227,398,
0,326,420,294,225,395,
0,322,415,291,224,391,
0,319,412,288,222,423,
0,316,408,316,220,419,
0,313,403,313,218,415,
0,311,399,310,216,411,
0,307,395,307,215,408,
0,305,391,304,212,403,
0,303,442,302,227,399,
0,314,436,299,225,394,
0,312,432,295,223,391,
0,308,427,293,221,387,
0,305,423,294,220,386,
0,303,418,316,217,382,
0,300,412,313,216,379,
0,297,408,311,214,376,
0,295,404,308,211,372,
0,293,399,305,211,369,
0,291,445,303,231,366,
0,307,440,299,230,363,
0,304,435,296,227,359,
0,301,430,294,225,356,
0,298,425,319,224,410,
0,295,420,316,222,406,
0,292,415,312,220,401,
0,291,411,310,218,397,
0,287,407,307,216,393,
0,286,403,304,235,390,
0,304,465,302,238,386,
0,302,460,299,235,382,
0,299,454,295,233,377,
0,295,449,293,231,375,
0,294,444,310,229,423,
0,291,440,307,227,419,
0,288,433,304,225,415,
0,286,429,302,223,411,
0,284,423,299,221,407,
0,281,420,295,244,403,
0,286,415,294,243,399,
0,284,412,290,240,393,
0,281,408,287,238,391,
0,279,403,286,236,387,
0,276,399,306,234,436,
0,273,396,303,231,432,
0,271,391,300,230,427,
0,270,387,297,227,423,
0,267,384,295,226,419,
0,265,449,292,247,415,
0,311,481,289,243,411,
0,307,476,287,241,406,
0,305,470,284,240,401,
0,302,464,281,238,435,
0,300,460,297,236,449,
0,296,455,295,233,444,
0,294,448,291,231,440,
0,291,444,289,229,435,
0,289,440,287,227,431,
0,287,521,284,247,427,
0,287,514,281,244,423,
0,284,508,279,242,417,
0,282,502,276,240,413,
0,280,496,274,238,409,
0,276,490,314,236,406,
0,275,484,311,234,401,
0,272,478,308,231,398,
0,270,472,305,230,394,
0,268,467,303,228,391,
0,266,560,300,248,387,
0,294,551,297,246,384,
0,291,545,294,243,380,
0,289,538,291,241,376,
0,286,531,307,239,398,
0,284,526,306,237,394,
0,281,518,304,235,390,
0,279,512,300,232,387,
0,276,506,297,231,383,
0,274,500,295,235,379,
0,276,496,292,237,376,
0,280,491,290,235,372,
0,276,486,287,233,368,
0,274,481,284,231,365,
0,271,476,295,230,435,
0,270,471,294,227,431,
0,267,464,291,225,427,
0,265,460,287,224,422,
0,263,455,286,222,417,
0,260,455,284,236,414,
0,298,530,280,234,409,
0,300,524,279,231,406,
0,297,518,275,230,400,
0,295,511,273,227,397,
0,292,505,299,226,430,
0,289,499,295,224,425,
0,287,492,294,223,420,
0,284,487,291,220,416,
0,282,481,287,219,412,
0,280,564,286,242,408,
0,311,614,283,240,403,
0,306,605,280,238,399,
0,304,597,278,236,396,
0,301,590,275,233,431,
0,298,582,299,231,451,
0,295,575,295,230,447,
0,292,567,294,227,442,
0,290,560,291,225,438,
0,287,553,287,224,433,
0,286,575,286,233,428,
0,295,567,283,231,423,
0,291,560,280,230,420,
0,288,553,278,227,415,
0,286,546,275,225,434,
0,284,540,307,224,429,
0,280,534,304,222,424,
0,279,527,302,220,420,
0,276,520,299,217,416,
0,274,515,295,216,412,
0,272,621,294,251,408,
0,306,611,291,249,404,
0,302,604,288,247,400,
0,300,595,286,244,396,
0,296,588,306,243,391,
0,294,582,304,240,388,
0,291,574,302,239,385,
0,289,566,299,236,382,
0,287,559,295,233,379,
0,284,552,294,239,376,
0,301,545,291,248,371,
0,312,540,288,246,368,
0,307,534,285,243,366,
0,304,527,283,241,361,
0,302,521,311,239,399,
0,299,515,307,237,395,
0,295,510,304,236,391,
0,294,504,301,233,387,
0,291,499,299,231,384,
0,289,494,295,242,380,
0,294,558,294,240,376,
0,291,550,291,238,372,
0,288,543,287,236,368,
0,286,536,285,235,364,
0,284,531,302,231,419,
0,281,524,299,230,415,
0,279,519,295,228,411,
0,276,511,294,226,407,
0,274,505,291,224,402,
0,271,560,288,235,399,
0,300,585,286,231,395,
0,295,577,284,231,391,
0,292,571,280,228,387,
0,290,563,278,227,384,
0,287,557,297,224,379,
0,285,550,295,223,376,
0,283,543,291,221,372,
0,280,536,289,219,369,
0,278,529,287,217,366,
0,275,547,284,239,363,
0,287,540,281,236,359,
0,284,532,280,235,356,
0,281,527,276,231,353,
0,279,520,274,231,411,
0,276,515,304,228,405,
0,273,508,301,227,401,
0,271,504,298,225,397,
0,269,496,295,223,393,
0,267,492,292,221,390,
0,264,521,291,237,385,
0,287,515,287,235,382,
0,284,508,286,232,379,
0,281,502,283,231,375,
0,279,496,286,228,425,
0,276,491,286,227,420,
0,273,486,284,225,415,
0,271,480,281,223,412,
0,268,475,279,221,408,
0,267,470,276,231,403,
0,264,479,274,246,399,
0,276,472,271,243,396,
0,273,467,270,241,391,
0,271,463,268,240,387,
0,268,458,307,237,443,
0,265,454,304,236,438,
0,263,449,300,233,433,
0,262,444,297,231,428,
0,259,440,295,229,423,
0,257,435,292,239,420,
0,274,527,290,240,415,
0,271,520,287,238,412,
0,270,515,285,236,408,
0,267,508,281,234,403,
0,263,503,308,231,456,
0,262,496,305,231,451,
0,259,491,302,228,447,
0,257,486,300,227,442,
0,255,480,296,224,438,
0,253,504,295,246,433,
0,311,525,291,243,429,
0,306,519,289,241,424,
0,304,512,287,239,420,
0,300,506,284,237,422,
0,297,500,306,235,453,
0,295,495,304,233,448,
0,291,489,300,231,444,
0,289,483,297,229,439,
0,287,477,295,227,435,
0,284,544,292,230,430,
0,316,548,290,227,426,
0,312,542,287,225,422,
0,309,536,285,224,417,
0,305,528,281,222,415,
0,303,523,301,220,411,
0,300,516,299,219,407,
0,297,510,295,217,403,
0,295,504,293,216,399,
0,292,497,290,214,396,
0,290,517,287,231,391,
0,323,510,285,228,388,
0,319,504,283,226,385,
0,316,498,280,224,382,
0,313,492,295,223,440,
0,311,487,303,221,435,
0,307,482,300,219,430,
0,305,477,297,217,425,
0,302,472,295,216,422,
0,300,465,291,222,417,
0,300,519,289,246,413,
0,321,512,287,243,409,
0,318,505,284,241,405,
0,315,499,282,239,401,
0,312,494,317,236,463,
0,308,487,313,235,457,
0,306,483,311,232,452,
0,303,477,308,231,448,
0,300,472,305,229,444,
0,298,466,303,241,440,
0,300,565,300,240,434,
0,297,558,297,238,430,
0,295,551,295,236,426,
0,291,543,292,233,422,
0,289,537,315,231,465,
0,287,531,312,230,460,
0,284,525,308,227,455,
0,282,519,305,226,451,
0,280,513,303,224,446,
0,278,508,300,248,441,
0,298,519,297,246,437,
0,295,513,295,244,433,
0,292,508,293,241,428,
0,289,501,290,240,423,
0,287,496,301,238,472,
0,284,491,299,236,465,
0,281,486,295,233,461,
0,279,480,292,231,455,
0,276,475,290,230,451,
0,275,531,287,243,448,
0,312,524,286,240,443,
0,308,518,283,238,438,
0,305,511,280,236,433,
0,302,504,278,233,430,
0,300,499,302,231,435,
0,296,493,299,230,430,
0,294,487,295,228,425,
0,291,483,294,227,422,
0,289,477,291,224,417,
0,287,472,288,251,414,
0,290,465,286,248,409,
0,287,460,284,246,407,
0,285,456,281,243,403,
0,282,451,279,241,431,
0,280,448,291,240,425,
0,278,443,287,238,420,
0,275,439,285,236,416,
0,273,434,283,233,412,
0,271,429,280,231,408,
0,269,465,278,243,404,
0,307,460,275,240,400,
0,304,455,273,239,396,
0,302,449,271,236,393,
0,297,445,269,235,451,
0,295,440,281,231,444,
0,292,435,279,231,439,
0,290,431,275,228,435,
0,287,426,273,227,430,
0,285,425,271,225,425,
0,303,525,269,247,422,
0,312,519,267,244,417,
0,310,512,265,242,414,
0,307,505,263,240,409,
0,304,500,299,238,433,
0,300,495,295,236,428,
0,297,489,291,235,423,
0,295,483,289,231,419,
0,292,478,287,230,415,
0,290,499,284,241,411,
0,289,547,281,240,407,
0,287,540,279,239,403,
0,284,533,276,237,399,
0,281,527,275,235,396,
0,279,520,300,233,396,
0,276,515,296,231,391,
0,274,508,294,229,388,
0,271,503,291,227,385,
0,269,497,288,225,381,
0,267,527,287,238,378,
0,280,521,284,235,375,
0,276,515,281,232,371,
0,274,508,279,231,368,
0,271,503,276,229,365,
0,268,497,305,227,414,
0,266,492,302,225,408,
0,263,486,300,224,404,
0,262,480,297,222,400,
0,259,476,295,220,396,
0,258,508,291,252,392,
0,279,501,289,249,389,
0,276,495,287,248,385,
0,273,489,284,245,382,
0,271,483,281,243,378,
0,268,478,295,241,375,
0,265,472,292,239,370,
0,263,467,290,237,367,
0,262,463,287,235,364,
0,259,458,284,233,360,
0,257,493,282,254,358,
0,276,487,280,251,355,
0,273,481,278,248,352,
0,271,476,275,246,349,
0,268,471,273,244,366,
0,265,465,302,242,361,
0,263,460,300,240,358,
0,261,455,296,238,354,
0,259,451,294,236,351,
0,257,446,291,235,348,
0,280,487,288,239,344,
0,284,481,286,236,342,
0,281,476,284,235,339,
0,280,471,281,231,336,
0,276,465,296,231,393,
0,273,460,295,228,390,
0,271,455,294,227,384,
0,269,450,291,225,381,
0,267,446,287,224,377,
0,263,441,286,236,374,
0,287,475,283,238,370,
0,285,470,280,236,367,
0,281,463,279,235,364,
0,280,459,275,231,359,
0,278,454,304,231,423,
0,274,448,300,228,417,
0,271,444,297,227,412,
0,270,440,295,225,408,
0,267,435,292,223,404,
0,264,446,290,230,400,
0,296,560,287,227,396,
0,294,551,284,225,391,
0,291,545,283,223,389,
0,287,539,280,221,385,
0,286,532,291,220,409,
0,283,526,287,217,404,
0,280,519,286,216,399,
0,278,514,283,215,396,
0,275,508,280,212,391,
0,273,547,279,240,388,
0,315,551,275,238,384,
0,312,545,273,236,381,
0,309,539,271,233,377,
0,306,531,269,231,375,
0,304,526,299,230,371,
0,300,519,295,227,368,
0,297,513,293,225,364,
0,295,508,290,224,359,
0,291,502,287,222,357,
0,289,505,285,246,353,
0,287,498,283,243,351,
0,285,492,280,241,348,
0,283,487,278,239,345,
0,280,482,275,237,399,
0,278,477,300,235,393,
0,275,472,295,233,388,
0,272,467,293,231,385,
0,271,462,291,230,382,
0,268,457,287,2StartUp!
123,226,169,198,153,593,
0,224,169,217,152,588,
0,224,168,216,152,582,
0,222,167,215,151,577,
0,220,167,213,150,572,
0,220,167,211,150,567,
0,218,166,211,149,562,
0,217,165,209,148,558,
0,232,164,207,159,552,
0,238,163,206,158,548,
0,236,163,205,156,542,
0,235,161,203,156,536,
0,231,161,201,155,551,
0,230,159,204,153,594,
0,227,159,203,152,587,
0,226,158,200,151,580,
0,224,158,199,150,573,
0,222,156,198,148,567,
0,220,155,195,151,560,
0,223,154,194,149,553,
0,220,153,193,148,547,
0,219,152,192,147,542,
0,216,152,191,147,619,
0,215,151,193,145,608,
0,213,150,191,144,600,
0,211,149,190,143,593,
0,209,148,188,143,586,
0,207,147,187,152,579,
0,217,147,185,163,573,
0,222,145,184,161,567,
0,220,145,184,161,563,
0,219,144,183,159,556,
0,216,143,193,158,620,
0,215,143,192,156,612,
0,213,142,190,156,605,
0,211,142,188,154,598,
0,209,141,187,153,591,
0,207,140,185,182,583,
0,259,139,184,180,577,
0,276,138,182,179,571,
0,273,137,182,177,564,
0,271,136,180,176,558,
0,268,135,211,174,615,
0,265,135,208,173,608,
0,263,134,207,172,600,
0,261,134,205,171,592,
0,259,133,203,169,585,
0,256,132,201,188,579,
0,284,131,199,185,572,
0,281,130,198,184,566,
0,279,129,196,183,560,
0,275,129,195,181,553,
0,273,127,207,179,614,
0,271,167,205,178,605,
0,268,166,204,177,598,
0,266,164,201,176,591,
0,263,163,199,174,583,
0,262,160,199,200,577,
0,285,159,196,199,571,
1,281,158,195,196,564,
1,280,156,193,195,558,
1,276,156,192,193,578,
1,273,154,214,192,615,
1,271,152,211,190,608,
1,269,152,210,188,600,
1,267,151,208,188,593,
1,263,150,207,186,587,
1,262,147,205,216,579,
1,268,147,203,214,573,
1,265,145,201,212,567,
1,263,144,199,210,560,
1,261,143,198,209,627,
2,258,142,223,207,615,
2,255,141,221,205,608,
2,254,140,219,204,600,
1,252,139,217,201,593,
1,249,137,215,199,587,
1,249,136,214,231,579,
2,280,135,211,228,572,
1,278,135,209,227,567,
1,275,134,207,225,560,
1,272,132,207,223,604,
1,270,131,206,221,595,
1,268,184,204,220,588,
1,265,211,202,217,580,
1,263,209,199,216,574,
1,260,207,199,215,568,
1,278,204,198,224,561,
1,276,203,195,222,555,
1,274,201,195,220,549,
1,271,199,193,218,543,
2,268,198,216,217,595,
1,266,195,214,215,586,
1,263,195,211,213,579,
1,262,192,209,211,572,
1,259,191,207,210,566,
1,257,190,207,225,560,
1,269,188,204,224,553,
1,267,186,203,222,547,
1,263,184,201,220,542,
1,262,184,199,218,536,
1,259,182,223,216,554,
1,257,180,220,215,546,
1,255,179,217,212,540,
2,252,177,216,211,534,
1,251,176,214,209,527,
1,248,175,212,240,523,
1,294,173,210,236,518,
1,290,172,208,234,512,
1,287,171,207,231,508,
1,284,169,205,231,503,
1,281,167,209,228,530,
1,279,167,207,227,522,
1,276,166,205,225,516,
1,274,164,204,223,511,
1,271,163,201,221,505,
1,270,162,199,246,500,
1,286,160,199,243,495,
1,283,159,197,241,491,
1,280,158,195,239,486,
1,278,157,194,237,515,
1,275,156,211,235,509,
1,272,155,208,232,502,
1,270,153,207,231,496,
1,268,152,205,230,492,
1,265,152,203,227,486,
1,264,150,201,262,481,
1,283,149,199,258,476,
1,280,147,199,255,472,
1,278,147,196,254,467,
1,275,145,196,252,501,
1,271,144,201,249,495,
1,270,143,199,248,487,
1,268,143,198,246,483,
1,265,142,196,243,478,
1,263,140,195,246,472,
1,344,140,193,286,467,
1,346,139,192,282,463,
1,343,137,190,280,459,
1,339,135,190,277,455,
1,335,135,201,275,462,
1,332,135,199,272,457,
1,329,174,198,270,451,
1,327,240,195,268,448,
1,323,237,194,265,444,
1,320,235,193,273,440,
1,324,231,192,271,435,
1,321,230,190,269,432,
1,318,227,188,267,428,
1,315,226,187,263,423,
1,312,224,210,262,420,
1,309,222,207,260,417,
1,307,220,206,258,412,
1,304,219,204,255,409,
1,302,216,202,254,406,
1,299,215,199,283,403,
1,337,212,199,280,399,
1,334,211,197,276,396,
1,331,209,195,273,391,
1,327,207,194,271,390,
1,324,206,199,269,431,
1,320,204,198,267,426,
1,318,203,195,264,420,
1,315,286,194,263,416,
1,312,281,192,260,412,
1,310,278,191,283,408,
1,345,275,190,280,404,
1,342,271,188,276,400,
1,339,270,187,274,396,
1,335,267,185,271,444,
0,333,264,192,270,455,
1,329,263,191,267,451,
1,326,260,189,265,444,
0,323,258,188,263,440,
1,319,255,185,260,435,
1,322,254,184,289,432,
1,372,251,183,287,427,
1,368,248,182,284,423,
1,365,247,180,281,419,
0,361,244,179,279,429,
0,358,243,178,276,423,
1,353,241,176,274,419,
0,351,239,175,271,415,
0,348,236,174,270,411,
0,344,235,172,268,407,
0,347,233,172,285,403,
1,344,231,171,283,399,
0,341,229,169,280,396,
0,338,227,167,277,391,
0,335,225,185,275,427,
0,332,224,184,272,422,
0,328,222,181,270,418,
0,326,220,179,268,412,
0,323,219,178,265,408,
0,320,217,177,273,404,
0,350,216,176,280,400,
0,345,214,174,277,396,
0,342,211,176,275,392,
0,339,210,174,271,390,
0,335,208,188,270,386,
0,332,207,186,268,384,
0,329,206,184,265,380,
0,326,204,183,263,376,
0,323,202,181,261,372,
0,320,201,179,281,370,
0,359,236,178,279,367,
0,355,233,177,275,364,
0,352,231,188,273,361,
0,348,229,186,271,359,
0,345,227,190,268,396,
0,342,225,188,266,391,
0,338,224,186,263,388,
0,335,222,184,262,384,
0,332,220,184,259,380,
0,329,217,182,287,376,
0,400,216,180,284,372,
0,396,214,179,281,369,
0,391,211,182,279,366,
0,387,210,181,277,412,
0,384,208,205,274,417,
0,380,207,203,271,412,
0,376,205,201,270,407,
0,373,204,199,267,403,
0,369,201,198,265,399,
0,366,199,195,303,396,
0,371,199,194,300,391,
0,368,197,192,296,387,
0,364,195,191,294,384,
0,361,194,190,291,404,
0,358,193,205,289,399,
0,355,223,203,287,396,
0,351,220,201,284,391,
0,348,218,199,281,387,
0,345,216,198,280,384,
0,387,215,195,307,380,
0,387,212,194,304,376,
0,384,210,192,301,372,
0,380,208,191,299,369,
0,376,207,192,295,408,
0,372,205,190,294,403,
0,368,204,188,291,399,
0,364,201,187,288,395,
0,361,199,185,286,391,
0,359,199,184,300,387,
0,403,196,183,308,384,
0,398,195,180,305,380,
0,394,193,179,302,376,
0,391,192,178,300,372,
0,387,191,183,297,423,
0,383,189,180,295,419,
0,380,188,179,291,414,
0,376,187,177,289,408,
0,371,184,176,287,404,
0,368,184,175,327,400,
0,406,183,173,324,396,
0,401,181,172,321,392,
0,397,179,172,317,390,
0,393,178,171,315,385,
0,390,177,176,312,382,
0,386,176,175,309,379,
0,382,201,174,307,375,
0,378,201,172,304,371,
0,375,199,170,302,368,
0,371,198,169,318,364,
0,400,196,167,315,360,
0,396,195,167,312,358,
0,391,192,166,308,355,
0,388,191,164,305,366,
0,385,189,169,303,380,
0,381,188,167,300,376,
0,377,186,167,298,371,
0,374,184,164,295,367,
0,369,184,163,294,364,
0,368,209,162,315,359,
0,405,207,161,312,357,
0,400,205,159,309,353,
0,396,203,159,305,351,
0,392,201,158,303,348,
0,389,199,176,300,345,
0,385,198,175,297,343,
0,381,196,173,295,340,
0,377,194,171,293,337,
0,374,193,169,291,335,
0,403,191,168,323,332,
0,407,189,167,319,329,
0,403,188,166,317,327,
0,399,186,165,313,324,
0,395,184,191,311,368,
0,391,183,190,308,364,
0,387,182,188,305,361,
0,384,180,187,303,358,
0,379,179,185,300,353,
0,376,177,184,313,350,
0,402,202,182,319,347,
0,399,199,180,318,344,
0,395,198,179,315,340,
0,391,196,177,311,337,
0,387,194,181,308,361,
0,384,192,179,305,359,
0,380,191,177,303,355,
0,376,190,176,300,352,
0,371,188,175,297,347,
0,368,186,173,316,344,
0,393,185,172,313,340,
0,390,184,171,310,337,
0,385,182,169,307,335,
0,382,179,167,304,332,
0,378,179,179,302,329,
0,375,177,177,299,326,
0,371,176,176,295,323,
0,367,175,175,294,321,
0,364,173,173,291,318,
0,360,187,172,300,316,
0,384,192,170,295,313,
0,380,190,168,294,311,
0,376,188,171,291,308,
0,372,185,169,288,323,
0,369,184,182,286,337,
0,366,183,180,284,334,
0,363,198,179,281,331,
0,359,207,177,280,327,
0,355,206,176,277,323,
0,352,204,174,295,320,
0,368,201,173,292,318,
0,364,199,172,289,315,
0,361,198,176,287,312,
0,358,196,174,284,352,
0,355,195,180,281,348,
0,352,193,179,280,344,
0,348,192,177,277,342,
0,344,190,176,275,338,
0,342,188,174,273,335,
0,364,227,173,305,332,
0,373,225,172,303,327,
0,369,223,171,300,326,
0,366,220,170,297,322,
0,363,219,174,294,367,
0,359,216,174,291,363,
0,355,231,173,289,359,
0,352,228,172,287,355,
0,348,226,170,284,352,
0,345,224,168,285,348,
0,408,275,167,297,344,
0,414,271,166,295,342,
0,408,268,167,291,338,
0,404,265,166,289,335,
0,400,263,172,286,355,
0,396,261,171,284,352,
0,393,259,169,281,348,
0,390,255,167,280,345,
0,384,254,167,276,343,
0,381,252,166,319,339,
0,389,275,163,317,335,
0,385,272,163,314,332,
0,381,270,161,312,329,
0,377,267,160,308,326,
0,375,264,181,305,323,
0,371,262,179,303,320,
0,368,259,177,300,318,
0,364,257,176,297,316,
0,360,255,174,295,312,
0,358,253,172,319,310,
0,378,251,171,316,307,
0,374,248,169,312,304,
0,371,247,169,310,303,
0,367,244,167,307,321,
0,364,242,171,304,353,
0,359,240,169,301,350,
0,356,238,167,299,346,
0,353,236,166,295,343,
0,350,235,164,294,339,
0,347,259,163,292,335,
0,368,255,162,289,332,
0,364,253,161,287,329,
0,360,251,159,285,327,
0,358,248,159,283,339,
0,354,246,177,280,335,
0,351,243,176,278,333,
0,348,241,174,275,329,
0,344,240,172,273,327,
0,342,238,171,271,323,
0,356,272,169,290,319,
0,382,270,167,287,318,
0,378,267,167,285,315,
0,375,263,166,283,312,
0,371,262,172,280,361,
0,367,259,176,278,358,
0,364,256,174,275,354,
0,359,295,172,273,351,
0,357,294,171,271,348,
0,353,290,169,271,344,
0,389,287,167,305,340,
0,385,285,167,302,337,
0,382,283,166,299,334,
0,377,280,164,295,331,
0,374,277,170,294,370,
0,371,274,168,291,366,
0,367,271,167,288,363,
0,364,270,166,286,359,
0,359,268,164,284,355,
0,356,265,163,300,352,
0,384,291,161,299,348,
0,380,288,159,295,345,
0,376,286,159,294,342,
0,372,284,158,291,339,
0,369,280,164,287,380,
0,366,278,163,286,376,
0,363,275,161,283,371,
0,359,273,160,280,368,
0,355,270,159,278,364,
0,352,268,158,299,361,
0,377,265,156,295,357,
0,374,263,156,292,353,
0,370,262,172,290,351,
0,367,259,171,287,352,
0,363,255,172,284,391,
0,359,254,170,283,387,
0,356,252,168,280,383,
0,353,250,167,278,379,
0,350,248,166,275,375,
0,347,246,164,297,371,
0,353,244,163,294,368,
0,351,242,161,291,364,
0,347,240,166,288,359,
0,344,238,164,286,385,
0,341,236,171,284,381,
0,339,235,169,280,377,
0,335,231,167,279,374,
0,333,231,167,276,369,
0,329,229,165,274,367,
0,339,227,163,297,362,
0,374,226,162,295,359,
0,369,224,161,292,355,
0,366,223,166,289,352,
0,363,221,165,287,398,
0,359,219,167,284,393,
0,355,217,167,282,389,
0,352,216,165,280,385,
0,350,214,164,278,382,
0,347,212,163,275,378,
0,355,240,161,295,374,
0,351,238,159,292,369,
0,348,236,159,290,367,
0,344,233,159,287,363,
0,342,231,166,285,395,
0,338,228,164,281,390,
0,335,227,163,280,387,
0,332,225,161,277,383,
0,329,223,159,275,379,
0,327,221,159,295,376,
0,369,248,157,295,371,
0,366,246,156,291,367,
0,361,243,156,289,364,
0,359,241,155,287,360,
0,355,240,168,284,399,
0,352,237,167,281,396,
0,348,235,166,280,391,
0,345,232,164,276,387,
0,343,231,163,275,384,
0,339,270,161,291,380,
0,382,304,159,287,376,
0,377,300,158,285,371,
0,375,297,157,283,369,
0,371,295,156,280,366,
0,367,292,172,278,391,
0,364,289,171,275,387,
0,359,286,169,272,384,
0,357,284,167,270,380,
0,353,281,167,268,376,
0,351,280,165,297,372,
0,407,276,163,294,368,
0,402,274,162,291,365,
0,398,271,161,289,361,
0,394,270,159,287,390,
0,390,267,169,284,385,
0,387,263,167,281,382,
0,384,262,167,279,377,
0,380,260,166,276,374,
0,376,258,164,274,371,
0,385,268,163,312,367,
0,413,265,161,308,363,
0,408,263,159,305,359,
0,404,260,159,303,356,
0,400,258,159,300,406,
0,397,255,167,297,400,
0,393,254,165,295,396,
0,390,252,163,291,391,
0,385,249,162,289,388,
0,382,248,161,287,385,
0,421,255,159,308,381,
0,415,254,158,305,376,
0,412,252,157,303,373,
0,408,249,159,300,369,
0,403,248,177,297,374,
0,399,245,175,295,371,
0,396,295,174,292,367,
0,391,343,172,289,364,
0,388,339,171,287,359,
0,385,335,169,293,357,
0,412,332,167,297,353,
0,408,327,166,294,350,
0,403,326,166,291,347,
0,399,323,164,289,344,
0,396,319,167,287,384,
0,391,316,165,284,380,
0,388,313,163,281,376,
0,384,311,162,280,371,
0,381,307,161,277,368,
0,377,305,159,313,365,
0,425,302,159,310,361,
0,421,300,157,307,358,
0,416,297,156,304,354,
0,412,295,155,302,351,
0,408,292,187,299,396,
0,404,289,185,295,392,
0,400,393,184,294,388,
0,396,403,182,291,385,
0,393,398,180,288,381,
0,390,394,179,289,377,
0,391,390,177,287,374,
0,388,386,175,284,369,
0,385,382,174,282,366,
0,381,379,172,280,390,
0,377,375,182,278,399,
0,375,371,179,275,395,
0,371,367,178,272,390,
0,368,364,177,271,387,
0,365,359,176,268,383,
0,361,358,174,304,379,
0,412,353,172,300,376,
0,408,351,171,297,371,
0,403,348,169,295,368,
0,399,344,167,292,403,
0,396,342,185,290,399,
0,391,337,184,287,394,
0,388,335,182,284,391,
0,385,332,180,282,387,
0,382,329,179,280,384,
0,378,335,177,318,379,
0,409,332,176,315,376,
0,406,329,174,312,371,
0,402,326,173,310,368,
0,398,323,177,307,371,
0,394,319,176,304,368,
0,391,317,174,302,365,
0,387,315,172,299,361,
0,384,312,171,295,358,
0,380,309,170,307,355,
0,401,344,168,307,352,
0,408,339,167,304,349,
0,403,335,167,301,345,
0,399,333,166,299,342,
0,396,330,175,295,367,
0,391,327,173,294,364,
0,388,323,172,291,359,
0,385,319,170,287,356,
0,382,317,168,286,353,
0,377,314,167,307,350,
0,390,312,166,304,347,
0,385,308,164,301,344,
0,382,306,163,299,339,
0,377,304,161,295,336,
0,375,302,166,294,384,
0,371,299,164,291,379,
0,368,295,163,288,376,
0,364,294,161,286,371,
0,361,291,159,283,368,
0,359,291,159,297,364,
0,391,289,158,294,361,
0,385,287,156,291,358,
0,382,284,158,289,353,
0,377,282,156,287,356,
0,375,280,176,284,353,
0,371,278,174,281,350,
0,368,275,173,280,347,
0,364,273,171,276,344,
0,360,271,169,275,340,
0,358,289,168,295,337,
0,403,286,167,294,335,
0,398,283,166,291,332,
0,395,280,164,288,327,
0,391,278,163,286,348,
0,387,275,177,284,344,
0,384,273,176,281,340,
0,380,270,174,279,337,
0,376,268,172,275,334,
0,372,266,171,273,331,
0,369,269,170,307,327,
0,395,267,168,305,326,
0,390,263,167,302,323,
0,386,263,166,300,319,
0,382,260,186,297,372,
0,379,259,185,295,368,
0,376,255,184,291,364,
0,371,254,183,288,361,
0,368,252,181,286,358,
0,364,250,179,287,355,
0,380,248,178,297,352,
0,409,247,176,295,348,
0,403,244,176,292,344,
0,399,243,174,289,340,
0,396,241,185,287,377,
0,391,240,184,285,373,
0,388,238,182,283,369,
0,384,236,180,280,366,
0,381,233,179,278,362,
0,377,231,177,276,359,
0,404,231,176,273,355,
0,399,230,174,271,352,
0,395,227,172,270,349,
0,391,226,172,268,344,
0,387,224,197,265,343,
0,384,223,195,263,339,
0,380,221,193,262,336,
0,376,251,192,259,334,
0,372,248,190,257,331,
0,369,246,188,271,327,
0,404,243,187,270,325,
0,399,241,185,267,323,
0,395,239,184,265,319,
0,391,237,182,263,344,
0,387,235,199,260,369,
0,384,232,198,258,366,
0,380,231,196,255,361,
0,376,228,195,254,359,
0,374,227,193,252,355,
0,369,225,192,282,352,
0,404,223,190,280,348,
0,399,221,188,277,345,
0,395,220,187,275,342,
0,391,218,185,271,387,
0,387,216,193,270,383,
0,384,215,192,268,379,
0,380,214,190,265,376,
0,376,211,188,263,371,
0,373,210,187,261,368,
0,369,209,185,276,364,
0,404,207,184,274,360,
0,399,206,183,271,358,
0,395,204,180,270,353,
0,391,203,184,267,351,
0,387,201,185,265,348,
0,384,199,184,263,344,
0,380,199,182,260,341,
0,376,198,180,258,338,
0,372,196,179,267,335,
0,372,195,178,287,332,
0,391,193,176,284,329,
0,387,192,175,281,327,
0,383,191,174,279,323,
0,380,190,193,276,371,
0,376,188,191,274,368,
0,371,187,189,271,364,
0,368,186,188,270,359,
0,365,184,186,267,356,
0,361,184,184,305,353,
0,408,195,183,303,350,
0,407,193,182,300,347,
0,403,192,179,297,344,
0,398,190,178,295,339,
0,393,188,188,292,360,
0,390,187,187,289,357,
0,386,185,184,287,353,
0,383,184,183,284,350,
0,379,183,182,281,347,
0,376,181,180,302,344,
0,409,179,179,299,340,
0,405,179,177,295,337,
0,401,177,176,294,335,
0,396,176,174,291,348,
0,391,175,177,287,379,
0,388,174,176,286,375,
0,385,173,174,284,371,
0,381,185,172,281,368,
0,377,188,171,279,364,
0,374,186,170,291,360,
0,379,184,168,289,358,
0,375,183,167,287,354,
0,371,182,167,284,351,
0,367,179,164,281,398,
0,364,179,201,280,391,
0,360,177,199,277,388,
0,358,176,198,274,384,
0,355,174,196,272,380,
0,352,172,195,270,377,
0,348,171,193,295,374,
0,366,170,192,292,369,
0,362,169,190,290,367,
0,358,167,188,287,363,
0,355,167,191,285,412,
0,352,166,192,283,408,
0,348,164,190,280,403,
0,345,163,188,278,399,
0,343,163,187,275,395,
0,339,161,185,276,391,
0,337,177,184,300,387,
0,342,176,182,298,384,
0,339,175,180,295,380,
0,335,173,179,293,376,
0,332,172,185,291,403,
0,329,170,184,287,398,
0,327,169,182,286,394,
0,324,167,180,283,390,
0,322,166,179,280,387,
0,319,189,177,312,384,
0,345,258,176,307,379,
0,342,255,175,305,376,
0,339,253,173,302,372,
0,335,251,172,300,368,
0,332,248,177,297,406,
0,328,246,176,295,401,
0,326,243,174,291,397,
0,323,241,172,289,393,
0,319,240,171,287,390,
0,318,280,170,290,386,
0,423,289,168,287,382,
0,418,286,167,284,379,
0,414,284,167,282,375,
0,408,280,166,280,371,
0,404,278,167,278,371,
0,399,275,167,275,367,
0,396,273,165,273,364,
0,392,271,164,271,359,
0,388,268,163,269,357,
0,385,326,161,295,355,
0,534,320,160,291,351,
0,526,317,159,289,348,
0,519,313,190,286,345,
0,512,311,188,284,343,
0,507,308,187,281,387,
0,501,305,184,279,384,
0,496,303,184,276,379,
0,491,300,182,274,376,
0,486,295,180,271,371,
0,499,294,179,294,368,
0,603,291,177,291,364,
0,595,289,176,288,361,
0,588,286,191,286,358,
0,579,284,188,284,399,
0,572,281,205,281,396,
0,566,279,203,279,391,
0,560,276,201,276,388,
0,553,275,199,273,384,
0,547,271,198,271,380,
0,610,270,196,269,376,
0,660,268,195,267,373,
0,652,265,193,264,369,
0,643,263,192,263,366,
0,633,261,191,260,413,
0,625,259,207,259,408,
0,618,257,206,257,403,
0,611,255,204,255,399,
0,604,252,202,253,395,
0,596,251,200,251,391,
0,642,248,199,263,387,
0,633,247,198,262,384,
0,624,245,195,259,380,
0,617,243,194,257,376,
0,608,241,222,255,427,
0,600,239,219,253,420,
0,593,238,217,251,415,
0,587,236,216,249,412,
0,580,234,214,248,408,
0,574,286,211,251,404,
0,633,342,210,258,399,
0,624,337,207,255,396,
0,617,334,206,254,392,
0,609,331,204,252,388,
0,600,327,227,249,439,
0,592,324,224,247,432,
0,586,321,223,245,428,
0,579,318,221,243,423,
0,573,316,219,241,419,
0,568,312,217,243,415,
0,575,309,215,240,411,
0,568,307,214,239,407,
0,561,304,211,237,403,
0,556,301,210,235,399,
0,548,299,231,233,448,
0,543,295,228,231,441,
0,536,294,226,231,436,
0,531,291,224,228,432,
0,526,288,222,227,428,
0,523,286,221,297,423,
0,621,284,219,292,419,
0,612,281,216,290,415,
0,605,279,216,287,412,
0,598,276,214,285,435,
0,589,275,217,283,457,
0,582,271,216,280,451,
0,575,270,214,278,446,
0,568,268,211,275,441,
0,563,265,210,273,437,
0,558,263,208,276,432,
0,583,262,207,274,428,
0,577,259,206,271,423,
0,571,258,204,270,419,
0,563,255,202,268,476,
0,556,254,224,265,469,
0,550,252,222,263,463,
0,543,249,220,261,457,
0,537,248,218,259,453,
0,532,246,216,257,448,
0,534,307,215,300,444,
0,527,304,212,296,440,
0,523,300,211,294,435,
0,518,297,209,291,431,
0,512,295,226,289,483,
0,505,292,225,287,477,
0,501,290,224,284,470,
0,496,287,222,281,465,
0,492,284,220,280,460,
0,487,282,218,297,455,
0,483,280,216,308,451,
0,479,276,215,305,447,
0,474,274,212,303,442,
0,470,271,211,300,438,
0,466,270,217,297,483,
0,460,268,215,295,478,
0,456,265,213,292,472,
0,452,307,211,290,466,
0,448,337,209,287,462,
0,444,333,207,286,456,
0,479,329,206,282,452,
0,473,326,204,280,448,
0,467,323,203,278,443,
0,463,319,201,275,439,
0,458,316,220,273,483,
0,451,313,218,271,477,
0,448,312,216,269,472,
0,443,308,214,268,467,
0,440,305,212,265,462,
0,435,391,211,263,457,
0,444,403,208,260,452,
0,439,399,207,259,448,
0,435,395,206,255,444,
0,431,391,204,255,440,
0,427,387,214,252,438,
0,423,383,211,251,432,
0,419,379,209,249,428,
0,415,376,207,247,423,
0,412,371,206,246,420,
0,410,392,204,269,416,
0,440,387,202,265,413,
0,435,384,200,263,408,
0,431,379,199,261,405,
0,426,376,198,259,401,
0,422,371,210,257,398,
0,417,368,207,255,393,
0,413,365,206,252,390,
0,409,361,204,251,387,
0,406,358,203,249,384,
0,402,457,201,287,380,
0,399,449,199,284,377,
0,396,444,198,281,374,
0,392,440,196,279,371,
0,390,435,203,276,391,
0,387,430,203,273,387,
0,383,425,199,271,383,
0,380,422,199,270,380,
0,377,417,198,267,376,
0,374,413,195,265,372,
0,384,416,194,263,368,
0,379,411,192,260,366,
0,376,408,191,258,362,
0,372,403,190,255,359,
0,369,399,207,254,380,
0,366,396,205,252,376,
0,363,391,203,250,371,
0,359,388,201,248,368,
0,357,385,199,246,364,
0,354,381,198,301,361,
0,352,378,196,307,358,
0,349,374,195,304,355,
0,347,371,193,300,352,
0,344,367,192,297,349,
0,342,364,211,295,384,
0,338,360,209,293,379,
0,335,358,207,291,375,
0,333,355,206,287,371,
0,331,352,204,286,368,
0,328,433,202,284,364,
0,327,477,199,281,359,
0,324,470,199,279,357,
0,321,464,198,276,353,
0,319,459,195,274,359,
0,317,455,209,271,374,
0,315,449,207,270,370,
0,312,444,205,268,366,
0,310,440,204,265,361,
0,307,435,201,263,359,
0,305,493,199,262,355,
0,304,486,199,259,352,
0,301,479,197,257,348,
0,300,473,195,255,345,
0,297,468,194,254,387,
0,295,463,200,251,383,
0,292,458,199,249,379,
0,291,453,197,248,374,
0,289,448,195,246,371,
0,287,444,194,244,367,
0,285,543,192,241,364,
0,283,536,191,240,359,
0,281,527,189,238,356,
0,280,521,188,236,353,
0,278,516,193,235,401,
0,275,510,210,233,397,
0,273,504,208,231,393,
0,271,499,206,230,388,
0,270,493,204,228,384,
0,268,487,203,227,380,
0,266,483,201,236,377,
0,263,478,199,234,374,
0,263,472,198,231,370,
0,261,467,196,230,367,
0,259,463,212,227,371,
0,257,457,211,226,368,
0,255,453,208,224,364,
0,254,448,206,223,359,
0,252,444,204,222,357,
0,251,444,203,236,354,
0,249,518,201,239,351,
0,248,510,199,237,348,
0,246,504,198,235,344,
0,244,498,196,231,342,
0,243,492,227,231,393,
0,241,487,225,228,390,
0,239,481,223,227,385,
0,238,476,220,225,380,
0,236,472,219,224,377,
0,235,467,217,227,374,
0,252,462,216,224,370,
0,250,455,214,222,367,
0,248,451,212,220,363,
0,246,447,211,219,371,
0,243,443,229,217,407,
0,241,438,227,216,402,
0,239,433,224,214,399,
0,237,430,222,212,393,
0,235,425,220,211,390,
0,233,575,219,211,386,
0,257,572,216,209,383,
0,255,563,215,207,379,
0,252,556,214,206,376,
0,251,550,211,205,420,
0,248,543,228,203,415,
0,246,536,227,201,410,
0,243,531,224,199,406,
0,241,524,222,199,401,
0,239,519,220,198,397,
0,237,513,219,197,393,
0,259,508,216,195,390,
0,255,500,215,195,386,
0,254,496,214,193,382,
0,252,490,216,192,391,
0,249,485,216,190,387,
0,248,480,214,189,382,
0,245,478,211,188,379,
0,243,624,209,187,375,
0,240,615,207,188,371,
0,252,655,206,217,368,
0,273,644,204,216,364,
0,270,634,203,214,361,
0,268,626,201,211,358,
0,265,618,213,210,393,
0,263,610,211,207,390,
0,261,603,209,207,385,
0,258,595,207,205,382,
0,255,588,205,203,377,
0,254,582,204,230,374,
0,252,575,201,236,370,
0,249,568,199,234,367,
0,248,560,199,231,364,
0,246,553,199,230,359,
0,243,547,223,227,390,
0,241,541,220,226,385,
0,240,536,219,224,382,
0,237,529,216,222,377,
0,236,524,215,220,374,
0,233,519,212,222,370,
0,316,513,211,220,366,
0,312,508,209,218,363,
0,310,501,207,216,359,
0,307,496,206,215,356,
0,304,491,214,212,387,
0,301,486,211,211,384,
0,299,481,210,209,380,
0,295,476,207,207,376,
0,292,472,206,207,371,
0,290,467,204,224,368,
0,339,463,203,222,364,
0,335,459,201,220,360,
0,332,453,199,218,358,
0,329,448,198,216,396,
0,326,444,210,215,393,
0,323,440,207,212,389,
0,320,436,206,211,385,
0,317,432,204,209,382,
0,314,428,202,207,377,
0,334,425,199,206,373,
0,407,421,199,204,369,
0,401,417,197,203,366,
0,397,412,195,201,363,
0,393,409,194,199,392,
0,390,405,198,199,388,
0,385,401,196,197,384,
0,382,398,194,195,380,
0,377,395,192,194,377,
0,374,391,191,193,372,
0,455,388,190,209,369,
0,472,385,188,207,366,
0,466,382,187,206,361,
0,462,377,185,203,359,
0,456,375,192,201,363,
0,451,371,190,199,359,
0,448,368,188,199,356,
0,443,366,187,196,353,
0,438,363,184,195,349,
0,433,359,184,222,346,
0,518,377,182,224,344,
0,511,374,180,221,340,
0,504,369,179,220,337,
0,499,365,177,217,335,
0,494,361,212,216,371,
0,487,359,210,214,367,
0,483,355,207,211,363,
0,479,353,206,210,359,
0,472,350,204,208,355,
0,467,348,203,216,352,
0,591,353,200,214,349,
0,583,350,199,211,345,
0,575,347,198,210,343,
0,569,344,195,207,339,
0,563,340,195,207,347,
0,556,337,193,204,344,
0,550,335,192,203,340,
0,543,332,190,201,337,
0,536,330,188,199,334,
0,553,451,187,207,331,
0,647,444,185,204,327,
0,638,438,184,203,326,
0,630,433,183,201,323,
0,622,428,180,199,344,
0,615,423,204,198,349,
0,608,419,203,196,345,
0,600,415,200,195,343,
0,593,411,199,193,339,
0,584,406,196,192,335,
0,638,403,195,217,332,
0,663,398,193,216,329,
0,654,394,192,214,326,
0,646,391,191,212,323,
0,638,386,189,210,363,
0,630,383,201,208,359,
0,622,379,199,207,355,
0,615,376,198,205,352,
0,608,371,195,203,348,
0,599,368,194,201,344,
0,676,365,192,227,342,
0,665,361,191,225,338,
0,657,359,189,223,335,
0,648,355,188,221,332,
0,639,352,196,219,368,
0,632,349,195,217,364,
0,625,345,193,216,361,
0,618,343,192,214,358,
0,611,339,190,211,354,
0,601,337,188,213,350,
0,692,334,187,215,347,
0,683,332,185,212,344,
0,673,328,185,211,340,
0,664,327,184,209,337,
0,656,323,199,207,379,
0,647,321,199,206,375,
0,639,318,196,204,371,
0,632,316,195,202,367,
0,623,313,193,200,364,
0,615,312,192,263,359,
0,684,309,190,260,355,
0,675,307,188,257,352,
0,665,304,187,255,350,
0,657,302,185,253,347,
0,649,300,217,250,380,
0,641,297,216,248,376,
0,633,295,214,246,371,
0,625,293,211,244,368,
0,615,291,210,242,364,
0,615,289,207,252,359,
0,710,287,206,249,356,
0,700,285,204,248,353,
0,691,283,203,246,350,
0,681,281,201,243,382,
0,672,279,236,241,387,
0,664,276,233,239,384,
0,655,275,231,237,380,
0,647,287,229,236,376,
0,638,284,227,233,372,
0,688,282,225,259,368,
0,734,280,223,257,364,
0,723,277,221,255,361,
0,713,275,219,253,358,
0,704,271,217,251,398,
0,695,270,224,248,393,
0,685,268,222,246,389,
0,676,266,220,243,385,
0,668,263,217,242,382,
0,658,263,216,240,378,
0,736,261,214,260,374,
0,724,259,211,257,369,
0,714,257,211,255,367,
0,704,255,210,253,363,
0,696,254,213,251,396,
0,686,252,211,248,391,
0,678,250,209,247,388,
0,668,248,207,244,384,
0,660,247,206,242,380,
0,651,246,204,252,377,
0,739,262,202,263,372,
0,728,259,200,260,369,
0,718,257,201,258,366,
0,708,255,199,255,361,
0,699,252,231,254,380,
0,689,249,228,251,376,
0,680,248,226,249,372,
0,671,246,224,247,369,
0,664,243,223,245,366,
0,654,267,220,249,363,
0,696,305,218,248,358,
0,687,302,216,246,355,
0,678,299,216,243,352,
0,668,295,214,241,348,
0,660,292,216,240,367,
0,652,290,215,237,363,
0,644,287,212,235,359,
0,636,284,211,233,355,
0,629,282,209,231,352,
0,620,280,207,275,350,
0,696,278,206,272,345,
0,687,275,204,270,343,
0,678,272,202,268,339,
0,668,270,200,265,339,
0,659,268,209,263,335,
0,652,265,207,260,333,
0,643,263,206,259,331,
0,636,260,204,255,327,
0,628,259,202,254,324,
0,659,257,200,294,322,
0,691,254,199,291,319,
0,681,252,197,288,316,
0,672,250,195,286,313,
0,664,248,194,284,341,
0,655,246,207,281,337,
0,647,243,205,278,334,
0,639,242,203,276,331,
0,632,240,201,273,327,
0,624,239,199,271,326,
0,681,292,198,304,322,
0,671,289,196,301,319,
0,664,286,195,298,316,
0,655,284,193,295,313,
0,646,281,195,293,339,
0,638,278,194,291,335,
0,631,275,192,287,332,
0,623,273,191,284,329,
0,615,271,189,283,327,
0,608,268,188,292,323,
0,647,265,186,318,319,
0,639,263,184,315,316,
0,632,262,206,312,314,
0,624,259,204,310,312,
0,615,257,204,307,327,
0,608,254,201,304,324,
0,601,252,199,301,321,
0,595,250,198,299,318,
0,588,248,196,295,315,
0,582,246,195,326,312,
0,639,243,193,322,310,
0,631,241,192,319,307,
0,623,240,191,316,304,
0,615,238,189,313,302,
0,608,236,201,311,316,
0,600,235,199,307,312,
0,593,233,198,304,310,
0,586,231,195,302,307,
0,579,230,194,300,304,
0,574,228,192,327,302,
0,617,227,191,323,299,
0,609,225,189,319,295,
0,601,224,199,316,294,
0,595,222,197,313,295,
0,588,221,199,312,295,
0,580,219,199,307,293,
0,574,217,196,305,291,
0,568,216,195,303,288,
0,561,215,193,300,287,
0,556,214,192,305,284,
0,611,211,190,303,283,
0,604,211,188,300,280,
0,596,209,206,297,278,
0,588,207,204,295,292,
0,582,207,203,292,289,
0,575,205,201,289,287,
0,568,204,199,287,284,
0,562,203,198,285,281,
0,556,201,196,283,280,
0,552,199,195,319,278,
0,617,199,193,316,275,
0,609,198,192,313,272,
0,603,196,193,310,271,
0,595,195,193,307,270,
0,588,194,192,304,268,
0,581,192,191,302,266,
0,575,191,189,299,263,
0,568,190,188,295,263,
0,561,189,186,295,261,
0,564,188,184,303,259,
0,572,187,183,300,257,
0,566,185,182,297,255,
0,559,184,180,295,254,
0,552,184,192,292,289,
0,547,182,191,290,287,
0,541,180,189,287,284,
0,536,179,188,285,281,
0,530,178,186,283,279,
0,525,177,184,302,276,
0,575,176,183,298,274,
0,565,175,181,295,271,
0,559,174,184,293,268,
0,551,173,183,291,267,
0,545,172,185,287,292,
0,539,171,184,286,289,
0,533,169,182,283,287,
0,527,168,180,280,284,
0,521,167,179,279,281,
0,516,167,178,301,280,
0,561,166,176,298,277,
0,551,164,175,295,274,
0,545,163,191,292,271,
0,540,163,189,290,284,
0,533,162,188,287,304,
0,527,161,187,286,301,
0,521,159,185,283,298,
0,515,159,184,280,295,
0,511,158,182,278,293,
0,505,157,180,315,290,
0,551,156,179,312,287,
0,543,155,177,309,284,
0,536,154,199,306,282,
0,530,153,198,304,329,
0,524,152,198,301,324,
0,519,152,196,299,322,
0,513,150,195,295,319,
0,508,150,193,293,316,
0,502,148,192,291,313,
0,499,147,190,310,311,
0,565,147,188,306,307,
0,556,146,187,304,304,
0,550,145,196,301,301,
0,543,144,195,299,347,
0,537,143,193,295,343,
0,531,143,191,294,339,
0,525,142,190,291,336,
0,519,141,188,287,333,
0,513,140,186,286,331,
0,524,139,185,302,327,
0,548,138,184,300,324,
0,540,137,196,296,321,
0,534,137,196,294,318,
0,527,181,201,291,315,
0,521,179,199,289,312,
0,516,177,198,287,310,
0,511,176,196,284,307,
0,505,174,195,281,304,
0,499,172,193,294,302,
0,555,171,192,292,300,
0,545,169,190,290,297,
0,539,167,190,287,294,
0,533,167,188,285,291,
0,527,166,198,283,347,
0,521,164,195,280,343,
0,515,163,194,278,339,
0,510,161,192,275,335,
0,504,159,191,273,333,
0,499,159,190,312,330,
0,548,158,188,308,327,
0,540,156,186,305,324,
0,533,155,184,303,320,
0,527,154,184,300,318,
0,521,152,190,297,341,
0,515,152,188,295,337,
0,510,151,187,292,335,
0,504,149,185,289,331,
0,499,147,184,287,327,
0,494,147,182,307,326,
0,556,145,181,304,322,
0,547,144,179,301,319,
0,541,143,177,299,316,
0,535,143,176,295,327,
0,529,142,176,293,324,
0,523,140,175,291,321,
0,517,140,173,287,318,
0,511,138,172,285,315,
0,505,137,171,283,312,
0,500,135,169,318,310,
0,545,135,167,314,307,
0,537,135,167,312,304,
0,531,134,166,308,301,
0,525,133,164,306,331,
0,519,132,179,304,327,
0,513,131,178,300,323,
0,508,131,176,299,320,
0,503,129,175,295,318,
0,497,129,174,292,315,
0,521,127,172,319,312,
0,536,127,171,316,310,
0,527,126,169,313,307,
0,521,126,167,311,303,
0,515,125,169,307,302,
0,510,124,167,305,299,
0,504,124,167,302,295,
0,499,123,166,300,294,
0,494,122,164,295,291,
0,488,121,163,305,289,
0,532,121,162,307,287,
0,527,120,160,304,284,
0,519,120,159,302,283,
0,513,119,158,300,280,
0,508,118,176,296,315,
0,502,118,175,294,312,
0,496,117,173,291,309,
0,492,115,172,289,306,
0,487,115,171,287,303,
0,481,115,169,300,300,
0,543,114,167,295,297,
0,536,113,167,294,295,
0,528,112,165,291,292,
0,523,112,163,289,289,
0,517,112,163,286,294,
0,511,111,163,284,291,
0,505,110,161,281,287,
0,500,109,159,280,286,
0,495,109,159,276,284,
0,489,108,158,299,281,
0,550,108,156,295,279,
0,542,107,156,293,276,
0,535,107,156,291,275,
0,527,105,155,287,275,
0,522,105,163,286,272,
0,516,104,162,283,270,
0,511,103,161,280,268,
0,504,132,159,279,265,
0,499,131,158,275,263,
0,494,130,157,276,262,
0,534,128,156,274,260,
0,527,127,155,271,258,
0,519,127,153,270,255,
0,513,126,152,268,254,
0,508,124,155,266,252,
0,502,124,153,263,251,
0,496,124,152,262,248,
0,491,137,152,260,247,
0,487,135,150,257,246,
0,486,135,148,291,243,
0,521,134,147,289,242,
0,515,132,147,286,240,
0,508,131,154,284,239,
0,503,130,171,281,255,
0,497,129,169,279,252,
0,492,127,167,276,250,
0,487,127,166,274,248,
0,481,126,164,271,246,
0,476,125,163,286,244,
0,553,124,162,290,242,
0,546,123,160,287,240,
0,540,122,159,285,238,
0,531,121,159,283,236,
0,526,120,159,280,240,
0,519,119,158,278,238,
0,514,119,156,275,236,
0,508,117,156,273,235,
0,503,116,154,271,232,
0,497,115,153,311,231,
0,550,115,152,307,230,
0,542,113,151,304,228,
0,536,113,152,302,227,
0,527,112,150,299,225,
0,521,111,163,295,224,
0,515,110,162,294,222,
0,510,110,160,291,220,
0,504,110,159,289,220,
0,499,109,158,286,218,
0,495,108,156,291,216,
0,540,108,156,289,216,
0,534,107,153,287,214,
0,527,105,152,284,212,
0,519,105,152,281,211,
0,513,103,167,280,257,
0,508,111,166,277,255,
0,503,137,164,275,252,
0,497,135,163,272,250,
0,492,134,161,270,248,
0,487,133,159,300,246,
0,523,131,159,297,243,
0,516,131,158,295,241,
0,511,129,158,292,240,
0,504,164,156,290,262,
0,497,248,191,287,282,
0,492,244,189,285,280,
0,487,242,187,282,277,
0,482,240,185,280,275,
0,477,237,184,278,271,
0,478,253,183,287,270,
0,520,250,181,286,268,
0,515,248,179,283,265,
0,508,246,180,280,263,
0,502,243,179,278,309,
0,496,241,177,275,304,
0,491,239,176,273,301,
0,486,237,175,271,298,
0,480,235,173,270,295,
0,476,231,172,283,293,
0,520,231,171,300,291,
0,525,228,169,297,287,
0,519,227,168,295,286,
0,513,225,177,292,283,
0,505,223,179,289,319,
0,500,222,178,287,316,
0,495,220,176,285,312,
0,489,217,175,283,310,
0,484,216,174,280,307,
0,480,214,172,311,304,
0,531,211,171,307,302,
0,524,210,169,304,299,
0,518,209,175,302,295,
0,512,207,174,299,294,
0,505,206,178,295,334,
0,499,204,176,294,331,
0,494,202,175,291,327,
0,488,201,174,289,324,
0,483,199,172,287,321,
0,479,198,171,309,319,
0,524,196,169,305,316,
0,518,195,167,303,312,
0,512,193,188,300,311,
0,505,192,185,297,307,
0,499,190,188,295,310,
0,494,188,185,292,307,
0,487,188,184,290,304,
0,483,186,183,287,302,
0,478,184,181,286,299,
0,473,183,179,302,296,
0,536,182,178,299,294,
0,529,180,177,295,291,
0,523,179,177,294,289,
0,517,177,176,291,291,
0,510,176,180,288,310,
0,504,175,179,286,307,
0,499,174,177,284,304,
0,494,223,176,281,302,
0,487,220,174,280,299,
0,484,219,173,295,295,
0,516,216,172,293,294,
0,511,215,170,291,291,
0,504,212,172,287,289,
0,499,211,171,286,336,
0,492,209,176,283,331,
0,487,207,175,280,327,
0,481,206,173,279,325,
0,476,204,172,276,322,
0,472,202,170,274,319,
0,536,199,169,281,316,
0,553,199,167,279,313,
0,546,197,166,276,311,
0,540,195,167,274,307,
0,532,193,167,271,336,
0,526,192,166,270,332,
0,519,191,164,268,328,
0,515,189,163,265,326,
0,509,188,161,263,323,
0,504,187,160,263,319,
0,515,184,159,282,317,
0,508,183,158,280,314,
0,503,182,161,277,312,
0,497,180,162,275,308,
0,491,179,166,272,330,
0,486,177,164,270,326,
0,480,176,163,268,323,
0,476,175,161,265,319,
0,471,174,160,263,317,
0,467,183,159,291,314,
0,534,243,158,287,312,
0,527,240,156,286,308,
0,521,238,166,283,306,
0,515,236,163,280,303,
0,508,233,165,279,312,
0,503,231,163,275,307,
0,497,230,162,273,305,
0,492,227,160,271,302,
0,487,225,159,269,300,
0,481,224,158,307,297,
0,524,222,156,302,295,
0,518,220,156,300,292,
0,512,217,164,296,290,
0,507,216,163,294,297,
0,499,214,168,291,336,
0,494,212,167,289,332,
0,489,211,166,287,329,
0,483,209,164,284,326,
0,479,207,163,282,323,
0,474,206,161,302,319,
0,511,204,159,297,317,
0,505,202,159,295,315,
0,499,199,172,292,312,
0,494,199,171,290,309,
0,487,198,174,287,307,
0,482,196,172,285,304,
0,476,194,171,283,300,
0,472,193,169,280,298,
0,467,192,167,278,295,
0,512,190,167,289,294,
0,526,188,165,286,291,
0,519,187,164,283,288,
0,513,185,165,280,286,
0,508,184,166,278,284,
0,500,183,175,276,281,
0,496,335,173,273,279,
0,490,376,172,271,276,
0,485,371,171,269,275,
0,480,368,169,268,272,
0,508,363,167,277,270,
0,502,359,166,273,268,
0,496,355,166,271,266,
0,491,352,167,270,263,
0,486,349,195,267,295,
0,479,345,192,264,294,
0,473,343,190,263,290,
0,469,339,188,260,287,
0,464,335,187,259,285,
0,460,333,185,287,283,
0,531,329,184,286,280,
0,525,327,182,283,278,
0,519,323,180,280,275,
0,513,321,179,278,273,
0,508,318,187,275,309,
0,500,316,185,273,306,
0,495,312,184,271,302,
0,489,310,182,268,300,
0,484,307,180,267,297,
0,480,305,179,287,295,
0,512,302,177,284,291,
0,505,299,176,280,289,
0,500,297,176,278,287,
0,495,295,174,275,284,
0,489,292,173,273,323,
0,483,290,172,271,319,
0,478,287,169,269,316,
0,472,286,168,267,313,
0,467,283,167,264,311,
0,463,280,167,285,307,
0,504,278,165,282,305,
0,499,275,163,280,303,
0,494,273,166,276,300,
0,487,271,163,275,297,
0,483,270,163,271,295,
0,476,268,163,270,292,
0,472,367,161,268,289,
0,467,365,159,265,287,
0,462,360,159,263,285,
0,468,358,158,285,283,
0,492,352,156,281,280,
0,487,350,155,280,278,
0,481,347,155,276,275,
0,476,343,156,275,302,
0,472,339,191,271,298,
0,465,340,188,270,295,
0,460,337,187,268,292,
0,455,334,185,265,289,
0,451,331,184,263,287,
0,527,327,182,298,284,
0,520,324,180,295,282,
0,515,321,179,291,280,
0,508,319,177,289,278,
0,503,316,192,287,307,
0,497,313,190,284,304,
0,491,311,188,282,300,
0,486,308,186,280,297,
0,480,305,184,277,295,
0,476,303,184,300,292,
0,540,300,182,304,289,
0,532,297,180,300,287,
0,527,295,179,297,284,
0,519,292,177,295,282,
0,515,290,180,292,311,
0,508,287,179,290,307,
0,502,285,177,287,304,
0,496,283,175,285,301,
0,491,280,174,283,298,
0,486,279,172,299,295,
0,542,276,171,295,293,
0,535,273,169,292,291,
0,528,271,168,291,287,
0,523,270,167,287,286,
0,516,268,167,285,316,
0,511,265,167,283,313,
0,504,263,164,280,311,
0,498,262,163,278,307,
0,493,259,162,275,304,
0,487,258,161,295,302,
0,532,255,159,292,299,
0,526,254,159,289,295,
0,519,252,168,287,294,
0,514,249,167,284,291,
0,508,248,175,281,288,
0,503,246,174,280,286,
0,496,244,172,277,283,
0,491,242,171,275,280,
0,486,240,169,272,279,
0,487,239,167,291,276,
0,526,237,166,287,273,
0,519,235,165,285,271,
0,513,233,163,283,270,
0,508,231,163,280,305,
0,502,230,179,278,303,
0,496,228,177,275,300,
0,489,227,176,273,295,
0,484,225,175,271,294,
0,480,224,173,269,291,
0,540,222,172,295,287,
0,532,220,170,294,286,
0,527,219,168,290,284,
0,519,217,169,287,281,
0,514,216,175,285,327,
0,508,214,173,283,323,
0,504,212,172,280,319,
0,496,211,170,278,316,
0,491,209,168,275,313,
0,486,207,167,287,311,
0,537,207,166,289,307,
0,531,206,164,287,305,
0,524,204,176,284,303,
0,519,202,174,281,300,
0,513,200,178,279,353,
0,507,199,176,276,349,
0,502,198,175,274,345,
0,495,196,173,271,342,
0,489,195,172,270,338,
0,484,194,171,318,335,
0,536,192,169,314,332,
0,528,192,167,311,329,
0,523,190,167,307,327,
0,516,188,166,305,323,
0,511,188,173,302,340,
0,505,249,172,300,337,
0,499,246,170,297,334,
0,493,243,167,295,331,
0,487,241,167,292,327,
0,483,239,166,311,324,
0,518,237,164,307,321,
0,511,235,163,304,319,
0,505,231,172,301,316,
0,499,231,170,299,323,
0,494,228,176,295,323,
0,489,227,175,294,320,
0,483,225,174,291,318,
0,477,223,172,288,313,
0,472,221,170,286,312,
0,487,220,169,287,308,
0,532,217,167,284,306,
0,526,216,166,281,304,
0,519,214,165,279,301,
0,513,212,163,276,344,
0,508,210,167,275,339,
0,503,327,165,272,335,
0,496,344,163,270,333,
0,491,339,162,268,329,
0,485,336,161,266,326,
0,531,333,159,301,323,
0,526,329,158,298,319,
0,519,327,157,295,318,
0,514,323,156,292,315,
0,508,319,181,290,323,
0,503,317,185,287,320,
0,497,315,184,285,318,
0,491,312,182,283,315,
0,486,309,179,280,312,
0,480,306,179,285,308,
0,524,304,177,293,305,
0,518,301,176,290,303,
0,512,299,175,287,300,
0,507,295,173,284,298,
0,500,292,177,282,319,
0,496,290,176,280,317,
0,489,287,174,278,313,
0,483,286,172,275,311,
0,478,283,171,272,307,
0,473,281,169,301,305,
0,521,279,167,297,302,
0,515,276,167,295,300,
0,510,274,177,292,296,
0,504,271,176,289,295,
0,498,269,176,287,307,
0,492,267,175,284,304,
0,487,265,173,282,302,
0,480,263,172,280,299,
0,476,260,170,278,295,
0,471,259,168,283,293,
0,509,257,167,280,291,
0,504,255,166,278,288,
0,497,252,165,275,286,
0,492,251,163,272,289,
0,487,248,193,270,295,
0,481,247,192,268,292,
0,476,305,190,267,289,
0,470,351,188,263,287,
0,465,347,187,262,284,
0,480,344,184,286,281,
0,539,340,184,283,280,
0,532,337,182,281,277,
0,526,333,180,279,275,
0,519,330,179,275,318,
0,515,327,179,273,314,
0,508,323,178,271,312,
0,504,321,176,268,308,
0,496,318,175,267,305,
0,491,316,174,263,302,
0,504,312,172,276,300,
0,510,310,171,273,296,
0,504,307,169,271,294,
0,499,304,168,269,291,
0,492,301,177,267,289,
0,487,299,176,263,287,
0,482,295,175,262,284,
0,477,294,173,260,281,
0,472,291,172,257,280,
0,467,289,169,264,277,
0,508,287,168,285,274,
0,502,284,167,283,272,
0,496,281,166,280,270,
0,491,279,164,278,268,
0,486,276,172,275,305,
0,480,275,171,271,303,
0,475,272,169,270,300,
0,470,270,167,268,296,
0,463,268,167,265,295,
0,460,266,165,279,291,
0,492,263,163,278,288,
0,486,262,162,275,286,
0,480,260,163,273,284,
0,475,257,162,271,281,
0,470,255,167,268,295,
0,464,253,166,265,292,
0,460,252,164,263,289,
0,455,249,163,262,287,
0,450,248,161,259,284,
0,446,246,160,277,281,
0,500,243,159,274,280,
0,494,242,158,271,277,
0,488,240,192,270,275,
0,483,238,190,267,300,
0,478,236,192,263,334,
0,473,235,190,262,329,
0,467,232,188,259,327,
0,463,231,187,258,323,
0,457,230,184,255,321,
0,463,228,184,280,317,
0,519,226,182,277,315,
0,512,224,180,275,312,
0,507,223,179,272,309,
0,500,221,177,270,351,
0,495,220,182,267,345,
0,489,217,180,264,343,
0,484,216,179,263,339,
0,480,215,177,260,335,
0,473,213,175,259,332,
0,505,211,174,267,329,
0,516,210,172,263,326,
0,511,209,171,262,323,
0,504,207,184,259,319,
0,499,206,183,257,344,
0,494,204,181,255,341,
0,487,203,179,253,337,
0,483,201,178,251,335,
0,478,199,177,249,332,
0,472,199,175,249,327,
0,556,214,174,276,324,
0,547,212,172,274,321,
0,541,210,172,271,319,
0,535,208,171,270,316,
0,528,207,183,267,344,
0,523,204,181,263,339,
0,516,203,179,262,336,
0,511,201,178,260,334,
0,505,199,176,258,330,
0,499,198,175,275,327,
0,531,196,173,273,323,
0,526,195,172,271,320,
0,519,193,179,268,318,
0,513,192,177,267,315,
0,508,191,178,263,359,
0,502,190,176,262,355,
0,497,316,175,259,352,
0,492,349,174,257,348,
0,487,344,172,255,344,
0,480,342,171,297,342,
0,523,338,169,295,337,
0,516,335,167,291,335,
0,511,332,167,289,332,
0,504,327,166,287,328,
0,499,324,169,284,326,
0,494,321,167,281,323,
0,488,319,167,279,319,
0,483,316,165,276,318,
0,478,313,163,274,315,
0,472,311,162,289,312,
0,527,307,161,286,309,
0,520,304,159,284,307,
0,515,302,161,281,304,
0,508,300,160,279,303,
0,504,295,167,275,300,
0,497,294,166,273,297,
0,492,291,164,271,295,
0,487,289,163,269,292,
0,482,287,162,267,291,
0,495,285,160,278,287,
0,513,282,159,275,285,
0,508,280,158,273,283,
0,502,278,157,271,280,
0,496,275,159,268,281,
0,491,272,166,265,279,
0,486,271,164,263,276,
0,480,268,163,262,274,
0,475,266,161,259,272,
0,471,263,159,257,270,
0,513,262,158,271,268,
0,507,260,157,269,265,
0,500,258,156,267,263,
0,495,255,155,263,262,
0,489,254,159,262,311,
0,484,252,158,259,307,
0,480,249,156,257,304,
0,474,248,155,255,302,
0,469,246,153,253,299,
0,464,243,152,279,295,
0,484,242,152,280,293,
0,479,240,150,278,291,
0,473,239,149,275,287,
0,468,237,147,273,286,
0,463,236,169,271,316,
0,458,233,167,268,313,
0,454,231,166,265,311,
0,449,230,164,263,307,
0,445,227,163,262,304,
0,441,226,161,282,302,
0,521,224,159,279,299,
0,515,223,159,276,295,
0,510,222,158,274,294,
0,504,220,156,271,291,
0,498,218,175,270,332,
0,492,216,173,267,328,
0,487,215,172,263,326,
0,482,214,169,263,323,
0,478,211,167,260,319,
0,472,210,167,278,316,
0,519,208,165,275,312,
0,513,207,164,272,311,
0,508,206,163,271,307,
0,502,204,163,268,340,
0,496,203,172,265,337,
0,492,201,172,263,334,
0,486,214,169,261,330,
0,481,221,168,259,327,
0,476,219,167,257,324,
0,496,217,166,289,321,
0,527,216,163,287,318,
0,519,214,163,284,315,
0,515,211,161,281,312,
0,508,209,161,280,329,
0,503,207,185,276,326,
0,497,248,184,273,323,
0,492,245,183,271,319,
0,487,279,180,269,316,
0,481,276,179,267,313,
0,527,273,177,289,311,
0,521,271,176,287,307,
0,515,268,175,284,305,
0,509,266,173,281,303,
0,504,263,176,279,313,
0,497,262,174,276,310,
0,492,259,172,273,307,
0,487,255,172,271,304,
0,482,254,170,269,302,
0,477,252,168,279,300,
0,499,249,167,278,296,
0,493,248,166,275,294,
0,487,246,165,272,291,
0,482,243,163,271,289,
0,477,242,176,268,311,
0,472,240,174,266,307,
0,467,238,173,263,304,
0,462,235,171,261,302,
0,457,233,169,259,299,
0,453,231,168,290,295,
0,511,230,167,287,294,
0,504,228,166,284,291,
0,499,226,179,282,287,
0,492,224,177,280,286,
0,487,223,182,278,328,
0,482,221,179,275,326,
0,478,293,178,272,323,
0,472,289,177,270,319,
0,467,287,175,268,316,
0,463,284,174,300,313,
0,533,281,172,296,311,
0,527,280,171,294,307,
0,520,276,171,291,305,
0,515,275,169,289,334,
0,508,271,176,286,343,
0,504,269,175,284,339,
0,497,268,174,281,335,
0,492,265,172,279,333,
0,487,263,171,276,329,
0,483,260,169,289,327,
0,532,258,167,286,323,
0,526,255,166,284,319,
0,519,254,170,281,317,
0,514,252,169,279,335,
0,508,251,196,276,332,
0,503,248,195,273,328,
0,497,247,193,271,326,
0,492,244,191,269,323,
0,487,242,190,267,319,
0,483,262,188,279,317,
0,526,259,186,276,314,
0,519,255,184,274,311,
0,514,255,183,271,308,
0,508,252,183,269,347,
0,503,249,182,267,343,
0,497,248,180,264,339,
0,492,245,179,262,335,
0,487,243,177,260,333,
0,481,240,176,283,330,
0,532,239,175,299,327,
0,532,237,173,295,324,
0,526,235,173,294,319,
0,519,233,172,291,318,
0,514,231,171,287,321,
0,508,230,169,286,319,
0,503,281,167,284,316,
0,497,278,167,280,312,
0,492,275,165,278,310,
0,487,273,164,295,307,
0,532,271,163,294,304,
0,524,268,161,291,302,
0,518,265,165,287,299,
0,512,263,163,286,296,
0,507,260,172,283,343,
0,501,259,170,280,339,
0,496,255,168,279,335,
0,491,254,167,275,332,
0,485,252,166,273,329,
0,480,249,164,280,327,
0,536,248,163,278,323,
0,527,245,161,275,320,
0,521,243,189,273,317,
0,515,241,188,271,345,
0,510,240,185,268,359,
0,504,238,184,267,355,
0,499,235,183,263,352,
0,493,233,181,262,348,
0,487,231,179,259,345,
0,483,230,178,281,342,
0,495,227,176,279,339,
0,487,226,175,276,335,
0,483,224,199,274,332,
0,477,222,199,271,329,
0,472,220,196,270,327,
0,467,219,195,267,323,
0,463,217,193,264,321,
0,459,216,192,262,318,
0,454,214,190,260,316,
0,451,212,189,276,313,
0,502,211,187,273,310,
0,494,209,185,271,307,
0,488,207,184,269,304,
0,483,206,204,267,320,
0,478,204,201,263,317,
0,473,203,199,263,314,
0,467,201,198,259,312,
0,463,199,195,257,308,
0,458,198,194,264,306,
0,483,196,192,275,304,
0,494,195,191,272,300,
0,487,193,188,270,298,
0,482,192,187,268,295,
0,476,192,185,265,294,
0,472,190,184,263,291,
0,467,207,184,261,288,
0,462,204,182,258,286,
0,457,203,180,255,284,
0,452,201,179,268,282,
0,491,199,177,265,280,
0,485,198,176,263,278,
0,478,195,174,262,275,
0,472,195,173,259,272,
0,468,192,172,257,321,
0,463,191,172,255,318,
0,457,190,170,253,315,
0,454,188,168,251,312,
0,448,187,167,248,309,
0,444,236,167,273,307,
0,543,261,165,270,304,
0,536,258,163,268,301,
0,527,255,163,265,299,
0,521,254,162,263,311,
0,516,251,174,261,318,
0,510,248,172,259,315,
0,504,247,171,257,312,
0,499,244,169,254,308,
0,494,242,167,252,305,
0,488,240,167,275,303,
0,498,238,165,272,300,
0,492,236,164,270,297,
0,486,234,163,268,295,
0,480,231,162,265,319,
0,476,230,177,263,316,
0,471,228,175,261,313,
0,466,227,174,259,311,
0,462,224,172,255,307,
0,456,222,171,254,305,
0,475,303,169,287,302,
0,550,299,167,284,300,
0,543,295,167,282,297,
0,535,292,167,280,294,
0,528,289,168,278,332,
0,523,287,169,275,327,
0,516,284,167,272,324,
0,511,323,166,270,321,
0,505,321,164,268,319,
0,500,318,163,271,316,
0,496,315,162,280,313,
0,492,312,161,278,311,
0,487,309,159,275,307,
0,481,306,172,273,304,
0,476,304,207,271,339,
0,472,300,204,268,335,
0,466,298,203,266,332,
0,462,295,201,263,328,
0,456,292,199,262,326,
0,452,290,198,271,323,
0,507,287,195,270,319,
0,500,284,194,267,317,
0,495,283,193,265,314,
0,487,280,191,263,311,
0,483,278,203,260,353,
0,478,275,200,258,350,
0,472,342,199,255,347,
0,467,338,197,254,344,
0,463,334,195,252,340,
0,457,384,194,272,337,
0,586,501,192,269,334,
0,577,494,191,267,331,
0,570,487,189,264,327,
0,561,482,187,263,327,
0,555,477,185,260,343,
0,548,472,184,258,339,
0,543,467,183,255,336,
0,536,462,182,254,333,
0,531,455,180,252,330,
0,525,451,179,287,327,
0,563,446,177,285,324,
0,556,441,176,283,321,
0,548,438,175,280,319,
0,542,433,173,278,348,
0,536,429,175,275,344,
0,529,424,173,273,341,
0,524,420,172,271,338,
0,518,444,171,268,335,
0,513,438,169,265,332,
0,526,433,167,286,328,
0,599,428,167,283,326,
0,591,423,166,280,323,
0,582,419,164,278,319,
0,575,415,163,275,344,
0,568,412,161,273,339,
0,561,408,159,271,336,
0,556,403,159,268,333,
0,548,399,158,267,330,
0,543,396,157,265,327,
0,541,507,156,284,324,
0,563,531,155,281,321,
0,557,524,153,279,318,
0,548,518,152,276,316,
0,543,512,217,274,323,
0,536,507,215,271,319,
0,531,501,212,270,317,
0,525,496,210,267,314,
0,519,490,208,265,312,
0,514,483,207,284,309,
0,560,479,205,286,307,
0,555,641,203,284,304,
0,547,631,201,280,301,
0,540,622,199,279,299,
0,534,615,227,276,335,
0,527,606,224,273,332,
0,522,599,222,271,327,
0,516,591,220,269,325,
0,511,583,218,267,322,
0,505,575,216,289,319,
0,526,568,215,287,316,
0,519,562,213,284,313,
0,513,556,242,281,311,
0,507,550,287,280,307,
0,501,543,283,276,314,
0,496,537,280,275,312,
0,491,531,278,271,308,
0,486,526,275,270,305,
0,481,519,273,268,303,
0,476,513,271,287,300,
0,476,508,268,285,297,
0,471,504,267,283,295,
0,466,497,263,280,293,
0,460,492,262,278,291,
0,455,492,297,275,339,
0,451,486,294,273,335,
0,448,534,291,271,332,
0,444,565,289,268,329,
0,440,556,287,266,326,
0,439,550,284,295,323,
0,561,543,281,293,319,
0,553,536,280,291,318,
0,547,530,277,287,315,
0,539,524,275,286,351,
0,533,519,271,283,353,
0,527,512,270,280,350,
0,521,521,268,279,347,
0,515,772,265,275,344,
0,510,766,263,273,340,
0,504,754,261,289,337,
0,499,743,259,286,334,
0,494,732,257,284,331,
0,489,722,255,281,327,
0,483,711,253,279,368,
0,478,702,251,276,363,
0,473,692,248,274,359,
0,468,684,247,271,355,
0,463,675,244,270,352,
0,460,664,243,268,349,
0,455,655,241,286,345,
0,451,647,239,283,343,
0,447,639,278,280,339,
0,442,632,283,278,336,
0,438,624,280,275,368,
0,433,615,277,273,363,
0,430,747,274,271,359,
0,426,735,271,269,355,
0,422,743,270,267,352,
0,419,730,268,275,349,
0,568,719,265,275,346,
0,562,709,263,271,343,
0,555,700,286,270,339,
0,548,689,283,267,336,
0,540,680,280,265,369,
0,534,671,278,263,365,
0,528,663,275,261,361,
0,523,655,272,259,358,
0,517,647,270,257,355,
0,511,636,268,296,352,
0,551,628,265,293,348,
0,544,620,263,290,345,
0,539,614,262,287,342,
0,531,606,259,285,339,
0,524,599,257,283,390,
0,519,591,255,280,384,
0,513,684,253,278,380,
0,508,673,251,275,376,
0,503,664,248,273,374,
0,497,807,248,300,369,
0,600,839,245,295,366,
0,591,824,243,293,363,
0,585,812,241,290,359,
0,578,799,240,287,385,
0,569,787,262,285,393,
0,563,859,259,283,388,
0,557,899,257,280,384,
0,551,881,255,278,381,
0,543,866,253,275,377,
0,539,892,251,292,374,
0,540,883,248,289,370,
0,534,867,247,287,367,
0,528,853,244,284,364,
0,523,839,243,282,384,
0,516,825,240,280,380,
0,511,813,238,277,375,
0,505,801,236,275,371,
0,500,789,235,272,368,
0,496,777,233,271,364,
0,583,888,231,284,361,
0,628,871,230,281,358,
0,620,857,230,279,355,
0,612,844,228,276,352,
0,605,830,227,274,404,
0,595,816,224,271,399,
0,588,804,223,270,394,
0,582,792,221,267,390,
0,575,780,220,265,387,
0,569,769,218,274,384,
0,564,755,216,285,379,
0,558,745,215,283,376,
0,551,735,214,280,372,
0,546,725,212,278,369,
0,540,716,211,275,372,
0,533,706,208,273,369,
0,527,697,207,271,365,
0,521,688,206,268,361,
0,516,679,204,266,359,
0,511,671,203,297,355,
0,508,661,201,295,352,
0,504,653,199,292,349,
0,498,646,209,289,346,
0,493,638,207,287,344,
0,489,630,258,284,374,
0,483,623,255,282,369,
0,478,615,252,280,366,
0,473,608,250,278,362,
0,468,616,248,275,359,
0,464,609,246,286,355,
0,595,600,243,283,352,
0,587,594,241,280,349,
0,579,588,240,278,345,
0,572,581,238,275,378,
0,566,575,236,273,398,
0,558,568,233,271,391,
0,551,563,231,269,388,
0,545,556,230,267,385,
0,540,551,228,264,382,
0,584,663,227,295,377,
0,681,650,224,291,374,
0,671,641,223,287,371,
0,664,632,339,286,367,
0,654,624,334,283,408,
0,646,616,331,280,403,
0,636,608,327,278,398,
1,628,621,323,275,393,
0,621,638,321,273,390,
0,614,628,318,271,387,
1,607,620,316,300,382,
0,600,610,312,295,379,
0,593,603,310,294,376,
0,587,595,307,291,371,
1,579,588,305,287,368,
0,574,655,302,286,365,
0,566,790,299,283,360,
0,560,796,296,280,358,
0,553,783,294,279,355,
0,548,810,291,280,352,
1,666,902,289,287,348,
0,655,908,287,284,345,
0,647,895,319,282,343,
0,639,875,318,280,339,
0,632,861,337,277,365,
0,624,847,333,275,361,
0,614,833,329,272,356,
0,607,820,326,270,353,
0,600,807,323,268,350,
0,593,796,320,275,347,
0,688,784,318,273,344,
0,679,771,315,270,341,
0,670,760,312,268,337,
0,660,749,310,265,335,
0,653,739,307,263,391,
0,643,728,304,262,386,
0,635,719,301,259,381,
0,627,710,299,257,377,
0,620,700,295,255,374,
0,612,796,294,279,371,
0,606,782,291,275,367,
0,599,768,289,273,364,
0,591,755,287,271,359,
0,585,744,284,268,371,
0,579,734,283,266,387,
0,571,817,280,263,384,
0,564,861,277,262,378,
0,559,892,275,259,375,
0,552,907,273,257,371,
0,547,911,271,257,368,
0,542,912,269,255,364,
0,536,888,289,253,360,
0,531,871,368,251,358,
0,525,857,364,249,390,
0,519,844,359,247,385,
0,513,831,357,246,382,
0,508,818,353,243,376,
0,504,806,350,241,373,
0,499,829,347,240,370,
0,598,903,344,280,366,
0,681,910,340,276,363,
0,671,914,337,273,359,
0,663,911,335,271,356,
0,654,888,332,268,380,
0,646,871,329,267,376,
0,636,857,327,263,372,
0,628,844,323,262,368,
0,621,830,319,259,364,
0,614,817,318,259,360,
0,724,806,316,267,358,
0,736,793,312,263,354,
0,725,780,332,262,352,
0,716,887,329,259,348,
0,705,874,344,257,392,
0,696,859,340,255,388,
0,685,844,337,253,384,
0,676,831,333,251,380,
0,668,818,330,249,376,
0,660,806,327,270,373,
0,652,793,324,269,369,
0,644,779,321,267,366,
0,637,768,319,263,363,
0,630,757,334,262,359,
0,623,747,385,259,380,
0,615,736,380,257,376,
0,607,727,376,255,372,
0,600,717,372,253,368,
0,593,707,368,251,364,
0,628,871,365,275,361,
0,812,903,361,273,358,
0,799,897,359,271,355,
0,787,878,355,268,352,
0,775,899,352,265,348,
0,764,908,350,263,345,
0,753,911,347,261,343,
0,740,907,344,259,339,
0,731,883,339,256,335,
0,721,867,337,255,333,
0,753,904,334,271,331,
0,842,910,331,269,327,
0,828,915,328,267,325,
0,816,918,326,263,323,
0,803,916,323,262,331,
0,792,902,320,259,327,
0,780,894,318,257,324,
0,768,907,316,255,321,
0,756,912,312,253,318,
0,747,915,310,251,316,
0,736,916,307,268,312,
0,728,919,305,265,310,
0,718,921,303,263,307,
0,709,921,301,260,305,
0,700,923,312,258,359,
0,691,924,336,255,354,
0,683,924,333,254,351,
0,673,919,329,252,348,
0,664,884,327,249,344,
0,657,870,323,248,340,
0,649,904,321,271,337,
0,642,910,318,268,334,
0,635,915,316,266,331,
0,627,912,313,263,327,
0,621,888,311,261,376,
0,614,871,307,259,372,
0,608,857,305,257,369,
0,600,844,302,255,365,
0,593,884,300,252,361,
0,587,906,297,262,358,
0,580,910,295,259,354,
0,575,911,292,257,352,
0,568,913,291,254,348,
0,563,908,287,252,345,
0,558,882,345,249,387,
0,551,867,342,248,384,
0,546,853,339,246,380,
0,540,896,335,243,376,
0,534,901,332,242,371,
0,529,883,329,287,368,
0,524,867,326,284,364,
0,519,853,323,281,361,
0,515,836,319,279,358,
0,510,824,318,275,358,
0,504,812,325,273,396,
0,500,799,322,271,391,
0,496,787,319,269,387,
0,489,892,316,267,384,
0,485,900,313,263,380,
0,481,882,310,285,376,
0,476,866,307,282,372,
0,472,852,305,280,369,
0,468,835,303,276,366,
0,464,822,300,275,391,
0,460,876,349,272,387,
0,455,905,345,270,384,
0,452,911,342,268,380,
0,448,912,337,265,376,
0,444,901,335,263,371,
0,440,878,332,283,368,
0,436,864,328,280,364,
0,432,899,344,278,361,
0,429,909,480,275,358,
0,425,907,474,272,403,
0,422,903,468,270,398,
0,419,910,463,268,393,
0,415,914,459,265,390,
0,411,916,453,263,386,
0,408,915,449,262,382,
0,513,905,444,267,377,
0,511,908,440,264,374,
0,504,913,489,263,371,
0,499,916,483,259,367,
0,493,919,479,257,396,
0,487,920,473,255,391,
0,483,915,468,254,388,
0,478,888,463,252,384,
0,472,905,457,249,380,
0,467,911,454,265,376,
0,462,915,449,270,372,
0,457,917,444,267,369,
0,452,914,440,264,366,
0,448,883,436,262,363,
0,444,868,432,259,377,
0,440,855,428,257,373,
0,435,841,424,255,369,
0,432,828,420,253,366,
0,426,884,416,251,361,
0,423,906,413,270,359,
0,497,911,409,267,355,
0,492,913,406,263,352,
0,486,911,402,262,348,
0,480,915,399,259,345,
0,476,917,448,257,367,
0,471,919,443,255,363,
0,465,919,438,253,359,
0,460,920,433,251,356,
0,455,921,428,249,352,
0,450,922,424,251,349,
0,463,919,420,248,345,
0,458,890,416,246,343,
0,454,873,413,244,339,
0,448,856,408,241,382,
0,444,887,405,240,390,
0,440,906,401,238,386,
0,435,911,398,236,383,
0,431,915,395,235,379,
0,425,915,391,233,375,
0,424,898,387,274,371,
0,420,876,384,271,367,
0,416,861,381,269,364,
0,412,847,377,267,359,
0,408,831,376,263,403,
0,406,896,371,262,398,
0,402,879,368,259,393,
0,399,863,366,257,390,
0,396,849,363,255,386,
0,391,871,359,253,382,
0,389,856,356,275,377,
0,385,891,353,272,374,
0,383,906,352,270,371,
0,380,911,348,268,368,
0,377,916,345,265,387,
0,374,915,344,263,384,
0,371,896,340,260,380,
0,369,899,338,259,376,
0,366,909,335,255,371,
0,363,913,332,272,368,
0,499,915,329,273,364,
0,492,917,327,271,360,
0,486,919,324,269,358,
0,480,918,323,267,355,
0,476,916,319,263,389,
0,471,890,318,262,385,
0,465,873,315,259,381,
0,460,859,313,257,377,
0,455,845,311,255,374,
0,450,831,307,271,369,
0,446,819,305,268,366,
0,441,898,304,265,363,
0,437,899,301,263,359,
0,433,880,299,261,355,
0,428,861,296,258,391,
0,423,847,295,255,387,
0,420,833,292,254,384,
0,416,820,291,252,380,
0,412,807,289,249,376,
0,408,851,286,273,371,
0,483,836,284,271,368,
0,477,823,282,268,364,
0,472,809,297,266,361,
0,467,797,308,263,379,
0,462,783,305,260,380,
0,456,771,303,259,376,
0,451,760,300,255,371,
0,448,750,297,254,368,
0,441,739,295,252,364,
0,483,731,291,278,360,
0,504,720,289,275,358,
0,499,711,287,271,354,
0,493,702,284,270,351,
0,487,693,283,268,353,
0,483,884,300,264,349,
0,478,867,295,263,345,
0,472,854,294,260,343,
0,467,839,291,258,339,
0,462,825,288,255,337,
0,457,812,286,281,334,
0,452,799,283,279,331,
0,448,839,281,276,327,
0,444,878,419,273,326,
0,440,862,414,271,371,
0,435,844,409,268,367,
0,431,831,406,266,363,
0,427,829,401,263,359,
0,423,903,398,262,356,
0,417,910,393,280,353,
0,515,914,390,290,349,
0,508,912,385,287,345,
0,503,891,383,285,343,
0,497,873,379,282,339,
0,492,856,376,280,391,
0,487,880,372,276,387,
0,481,905,369,275,383,
0,476,911,366,272,379,
0,472,913,363,270,376,
0,465,902,359,281,371,
0,623,879,355,278,367,
0,620,864,353,275,364,
0,612,850,350,273,359,
0,604,836,347,271,357,
0,598,820,344,268,384,
0,591,851,342,266,379,
0,583,903,339,263,376,
0,576,910,336,262,371,
0,570,910,334,259,368,
0,563,889,331,283,365,
0,556,871,327,280,360,
0,550,857,325,278,357,
0,543,844,323,275,355,
0,538,896,396,272,361,
0,532,909,391,270,366,
0,527,912,387,267,361,
0,521,908,384,265,358,
0,516,884,380,263,355,
0,511,868,376,261,352,
0,560,856,373,287,348,
0,685,840,368,284,344,
0,675,828,366,281,342,
0,666,815,363,279,339,
0,657,803,359,276,388,
0,649,787,356,274,384,
0,641,776,353,271,380,
0,633,766,351,269,376,
0,625,755,348,267,372,
0,618,743,344,265,369,
0,609,735,341,290,366,
0,603,724,339,287,361,
0,595,715,335,284,358,
0,589,705,332,283,355,
0,583,696,330,280,352,
0,575,686,327,278,348,
0,569,833,324,275,345,
0,563,819,322,271,342,
0,558,806,319,270,339,
0,551,793,317,271,336,
0,545,792,314,286,334,
0,539,779,312,284,329,
0,534,768,310,281,327,
0,527,755,307,279,324,
0,523,745,366,276,361,
0,518,732,361,274,358,
0,512,888,358,271,355,
0,508,903,355,269,351,
0,503,892,352,267,348,
0,497,874,348,287,344,
0,492,859,344,284,341,
0,487,845,342,281,337,
0,483,831,339,279,335,
0,478,819,335,276,332,
0,473,807,332,273,375,
0,470,884,329,271,371,
0,465,881,327,268,367,
0,460,865,324,267,364,
0,455,851,321,263,359,
0,452,900,319,283,357,
0,566,908,316,280,353,
0,559,912,313,278,350,
0,551,910,311,275,346,
0,545,888,308,273,364,
0,539,871,305,271,379,
0,532,854,303,268,376,
0,527,839,301,265,371,
0,521,827,299,263,368,
0,515,814,295,261,364,
0,510,802,294,287,361,
0,504,790,291,284,358,
0,498,779,289,281,353,
0,494,768,408,279,351,
0,487,756,418,276,349,
0,483,746,414,273,345,
0,479,734,409,271,343,
0,473,723,405,268,339,
0,469,780,401,267,336,
0,464,775,398,263,334,
0,460,763,393,281,331,
0,454,751,390,279,327,
0,450,739,386,275,324,
0,446,729,383,273,321,
0,441,719,380,271,364,
0,438,708,376,268,359,
0,435,785,372,266,356,
0,431,901,369,263,353,
0,427,908,366,262,350,
0,423,901,363,260,347,
0,441,880,359,281,344,
0,541,864,356,280,340,
0,535,851,363,277,336,
0,528,836,380,275,334,
0,523,898,376,271,370,
0,516,908,372,270,366,
0,511,913,369,267,363,
0,505,914,366,265,359,
0,499,899,363,263,355,
0,495,877,359,278,352,
0,599,863,356,275,349,
0,632,849,352,272,345,
0,624,835,350,270,342,
0,616,822,347,268,339,
0,609,892,448,265,359,
0,601,907,442,263,355,
0,595,913,438,260,352,
0,588,913,433,259,349,
0,580,903,428,255,345,
0,575,879,424,279,343,
0,752,864,420,275,339,
0,736,849,415,273,335,
0,726,836,457,271,333,
0,716,824,549,268,344,
0,705,811,542,266,370,
0,696,799,536,263,367,
0,688,784,529,261,363,
0,679,773,524,259,359,
0,670,762,519,257,356,
0,662,880,513,291,353,
0,764,903,508,287,350,
0,749,896,502,285,345,
0,738,877,496,283,343,
0,728,862,492,280,387,
0,718,847,487,278,382,
0,709,844,483,275,378,
0,699,905,478,273,375,
0,691,911,473,271,371,
0,681,914,468,268,368,
0,673,915,464,284,364,
0,665,918,460,280,359,
0,655,920,455,279,356,
0,647,920,451,275,353,
0,639,917,447,273,378,
0,632,888,443,271,374,
0,625,871,439,269,371,
0,618,860,435,267,367,
0,611,904,431,263,364,
0,604,911,428,262,359,
0,598,912,423,277,356,
0,591,903,419,275,353,
0,583,879,415,272,350,
0,577,864,412,270,347,
0,572,851,408,268,388,
0,566,890,406,265,384,
0,560,905,402,263,380,
0,553,891,399,260,376,
0,548,873,396,259,373,
0,543,860,391,276,369,
0,537,845,389,274,366,
0,531,831,386,271,362,
0,526,819,382,269,358,
0,520,807,461,267,355,
0,515,796,455,263,406,
0,511,877,451,262,401,
0,505,864,446,260,397,
0,500,846,441,257,393,
0,496,831,438,255,390,
0,492,819,433,276,385,
0,509,889,430,273,382,
0,502,906,425,271,379,
0,496,906,420,268,374,
0,491,885,416,267,391,
0,486,870,412,263,427,
0,481,855,408,262,422,
0,476,841,405,259,418,
0,472,903,401,257,414,
0,467,908,398,255,409,
0,463,897,395,284,406,
0,528,876,391,281,401,
0,519,862,387,279,398,
0,515,847,384,276,393,
0,508,834,380,273,414,
0,503,821,455,271,409,
0,497,808,450,269,404,
0,492,796,446,267,400,
0,487,782,441,263,396,
0,481,771,436,262,393,
0,480,836,432,275,390,
0,585,822,428,273,385,
0,575,808,423,271,382,
0,569,796,419,268,377,
0,563,828,415,267,406,
0,556,896,412,263,401,
0,550,879,408,262,396,
0,543,864,404,259,393,
0,537,846,400,257,390,
0,531,831,397,255,385,
0,526,819,393,273,382,
0,519,807,390,271,378,
0,513,795,387,268,375,
0,508,783,383,266,371,
0,503,901,435,263,368,
0,497,902,431,262,364,
0,492,882,425,259,360,
0,487,863,422,257,358,
0,483,849,418,255,355,
0,478,835,414,274,352,
0,491,822,409,273,348,
0,485,809,406,271,345,
0,478,797,402,268,344,
0,473,785,398,266,339,
0,468,774,394,263,384,
0,463,763,391,262,379,
0,460,888,387,259,376,
0,455,906,384,257,371,
0,451,894,380,255,368,
0,448,876,377,280,365,
0,560,860,374,278,361,
0,551,847,371,275,358,
0,543,833,368,272,355,
0,537,820,364,270,351,
0,531,807,361,268,388,
0,526,796,359,265,384,
0,519,896,356,263,380,
0,514,899,353,262,376,
0,508,879,351,259,373,
0,504,864,348,280,369,
0,498,849,345,276,366,
0,492,835,343,274,363,
0,487,823,340,271,359,
0,481,810,337,270,397,
0,476,798,335,267,393,
0,472,785,332,264,391,
0,467,775,329,263,386,
0,463,760,327,260,383,
0,458,750,325,257,379,
0,454,739,323,276,376,
0,449,729,319,274,371,
0,445,719,318,271,368,
0,440,711,316,270,364,
0,436,701,326,267,384,
0,432,692,334,265,380,
0,429,851,330,263,376,
0,425,835,327,260,371,
0,422,819,324,258,368,
0,418,806,321,255,364,
0,415,794,319,290,361,
0,516,781,316,287,358,
0,510,769,313,284,355,
0,503,759,311,282,352,
0,497,886,404,280,382,
0,492,900,399,278,377,
0,486,883,395,275,374,
0,481,867,391,272,370,
0,476,849,387,270,367,
0,472,835,384,280,363,
0,551,823,380,280,359,
0,610,809,376,278,356,
0,602,798,372,275,353,
0,593,785,368,272,350,
0,586,775,365,270,399,
0,579,763,362,268,395,
0,572,752,359,265,391,
0,566,864,355,263,387,
0,560,907,353,262,384,
0,553,911,350,291,380,
0,547,910,347,288,376,
0,541,888,344,286,372,
0,536,871,342,284,369,
0,527,857,337,280,366,
0,523,844,335,279,361,
0,517,830,332,275,358,
0,512,817,329,273,355,
0,507,891,327,271,352,
0,502,907,324,268,348,
0,496,903,321,283,345,
0,492,880,319,280,343,
0,487,865,316,278,339,
0,481,851,313,275,337,
0,476,838,311,272,334,
0,472,824,308,271,382,
0,467,812,306,268,377,
0,463,799,304,265,374,
0,458,889,302,263,370,
0,454,903,300,261,367,
0,450,884,297,284,363,
0,487,868,295,280,359,
0,482,854,294,278,356,
0,478,840,350,275,353,
0,471,827,345,273,369,
0,465,814,342,271,396,
0,460,801,339,268,392,
0,455,790,335,267,388,
0,451,777,332,263,385,
0,447,764,329,262,381,
0,474,753,327,276,377,
0,473,743,323,273,374,
0,468,732,321,271,371,
0,463,723,318,269,367,
0,457,713,315,267,392,
0,452,704,312,264,387,
0,448,847,310,263,384,
0,443,833,307,260,380,
0,439,820,304,258,376,
0,435,803,302,274,372,
0,460,792,300,284,369,
0,474,779,297,282,366,
0,468,768,295,280,362,
0,463,756,292,277,359,
0,457,746,290,275,393,
0,452,735,287,272,390,
0,448,724,286,270,385,
0,443,715,284,268,382,
0,439,782,282,265,377,
0,434,902,280,280,375,
0,553,892,278,276,371,
0,545,873,276,273,368,
0,539,859,275,271,364,
0,532,845,272,269,360,
0,525,831,270,267,403,
0,519,818,268,264,399,
0,513,806,267,263,396,
0,508,793,264,260,391,
0,503,782,263,258,388,
0,497,768,262,271,384,
0,492,757,259,269,380,
0,487,746,257,267,377,
0,482,736,334,263,374,
0,478,726,377,262,370,
0,472,716,372,259,391,
0,467,706,368,257,388,
0,462,697,365,255,385,
0,457,688,361,254,381,
0,452,679,359,252,377,
0,448,669,355,271,374,
0,532,660,352,268,370,
0,526,653,349,265,367,
0,519,645,428,263,364,
0,513,638,423,260,366,
0,507,630,417,259,380,
0,501,623,413,255,376,
0,496,615,408,254,372,
0,490,608,405,252,369,
0,486,601,401,251,366,
0,480,593,398,275,362,
0,476,587,393,271,359,
0,471,580,390,270,355,
0,465,574,459,267,352,
0,461,568,454,264,350,
0,455,562,448,263,345,
0,451,556,444,260,343,
0,446,550,439,258,339,
0,442,544,435,255,337,
0,438,539,430,254,334,
0,434,532,426,263,332,
0,430,527,422,262,328,
0,426,521,418,259,326,
0,423,516,415,257,323,
0,417,511,411,255,367,
0,414,507,406,253,362,
0,411,502,403,251,359,
0,408,496,399,249,355,
0,403,492,396,248,352,
0,400,555,391,248,348,
0,476,546,388,265,345,
0,472,539,385,263,342,
0,467,532,382,261,339,
0,462,526,379,259,335,
0,455,519,376,255,369,
0,451,514,371,255,365,
0,446,508,368,252,361,
0,441,503,366,250,358,
0,437,497,363,248,354,
0,433,492,359,278,352,
0,604,486,356,274,348,
0,593,481,353,271,344,
0,585,476,352,270,342,
0,578,472,348,267,339,
0,569,467,345,265,399,
0,563,463,342,263,393,
0,557,459,339,260,390,
0,551,455,337,258,385,
0,543,451,334,255,382,
0,539,446,332,293,379,
0,671,530,329,289,375,
0,661,524,327,287,371,
0,652,517,324,284,368,
0,644,511,321,281,364,
0,635,524,319,279,361,
0,626,517,316,276,357,
0,619,511,314,274,353,
0,611,505,312,271,351,
0,604,499,309,270,348,
0,598,494,307,280,344,
0,591,487,304,276,342,
0,583,481,302,273,339,
0,577,476,300,271,335,
0,571,472,297,269,364,
0,563,466,295,267,359,
0,558,461,293,264,355,
0,551,455,291,263,352,
0,545,451,289,260,350,
0,540,528,287,258,346,
0,630,556,284,281,343,
0,723,548,283,279,339,
0,713,542,280,275,337,
0,704,535,279,273,334,
0,694,528,276,271,359,
0,683,522,275,268,355,
0,673,516,272,267,351,
0,665,510,271,263,348,
0,657,504,269,262,344,
0,649,558,267,260,342,
0,641,555,265,280,338,
0,634,573,263,276,335,
0,627,566,262,274,332,
0,620,559,259,271,329,
0,612,551,295,269,359,
0,604,544,292,267,355,
0,596,538,288,264,352,
0,590,531,286,263,348,
0,583,526,284,260,345,
0,577,519,281,281,342,
0,572,512,279,281,339,
0,566,507,276,278,335,
0,560,501,274,275,332,
0,553,496,271,273,329,
0,548,491,312,271,387,
0,541,486,307,268,382,
0,536,480,305,265,377,
0,530,475,302,263,374,
0,524,470,299,262,370,
0,519,608,297,271,367,
0,610,657,295,269,363,
0,601,648,291,266,359,
0,595,639,289,263,356,
0,588,632,374,262,354,
0,580,623,369,259,399,
0,572,688,365,257,396,
0,566,677,361,255,391,
0,559,668,358,253,387,
0,552,658,355,251,384,
0,547,649,352,279,380,
0,540,639,348,275,376,
0,535,630,345,272,372,
0,529,622,343,270,369,
0,524,615,339,268,380,
0,518,607,375,265,376,
0,512,600,370,263,371,
0,507,622,367,261,367,
0,502,614,363,259,364,
0,497,605,359,257,360,
0,492,598,356,276,358,
0,487,588,353,274,354,
0,483,582,350,271,351,
0,479,575,347,268,348,
0,475,568,344,267,351,
0,470,561,341,263,347,
0,465,657,337,262,344,
0,460,886,335,259,340,
0,455,903,332,257,337,
0,452,888,328,255,334,
0,448,871,326,287,332,
0,444,854,323,284,328,
0,440,839,320,281,326,
0,436,827,318,279,323,
0,432,814,316,276,380,
0,428,801,313,274,376,
0,423,800,310,271,372,
0,420,788,307,270,368,
0,417,777,305,267,364,
0,414,766,303,281,361,
0,500,755,300,284,358,
0,494,742,297,280,354,
0,488,732,295,278,351,
0,483,722,294,275,348,
0,478,711,291,273,383,
0,472,739,289,271,378,
0,466,728,286,268,375,
0,462,716,284,267,370,
0,456,706,281,263,367,
0,452,697,280,273,363,
0,450,688,278,270,359,
0,446,677,275,268,356,
0,441,668,273,265,353,
0,436,660,271,263,350,
0,432,652,269,260,378,
0,428,643,267,259,375,
0,423,636,265,255,371,
0,419,628,263,255,366,
0,415,622,261,252,363,
0,412,615,259,271,359,
0,600,644,257,269,356,
0,591,633,255,267,352,
0,583,624,254,263,350,
0,577,707,252,262,347,
0,570,772,332,259,344,
0,563,760,328,257,340,
0,556,748,324,255,337,
0,549,737,321,253,334,
0,543,727,319,252,331,
0,609,717,316,276,327,
0,687,707,313,274,326,
0,676,695,311,271,323,
0,668,685,307,268,319,
0,659,676,420,267,335,
0,651,820,468,263,332,
0,643,807,463,262,329,
0,632,793,457,259,325,
0,625,782,452,257,322,
0,617,769,448,255,319,
0,611,759,443,275,316,
0,604,748,439,271,314,
0,596,735,484,269,312,
0,590,723,478,267,309,
0,583,714,472,264,359,
0,577,704,467,262,355,
0,571,695,463,260,352,
0,563,685,457,257,348,
0,557,676,452,255,344,
0,551,673,448,260,342,
0,652,781,444,268,338,
0,643,768,440,265,335,
0,634,754,435,263,332,
0,626,743,432,260,329,
0,619,732,428,257,374,
0,611,721,423,255,369,
0,604,711,419,254,366,
0,595,701,415,252,361,
0,588,691,411,249,358,
0,581,683,408,279,355,
0,575,673,403,276,352,
0,568,664,400,274,348,
0,561,654,398,271,345,
0,556,646,393,268,342,
0,550,638,391,267,368,
0,543,630,387,263,364,
0,538,623,384,262,360,
0,531,615,380,259,356,
0,526,615,376,258,353,
0,521,700,374,270,350,
0,647,814,371,267,347,
0,637,799,368,263,344,
0,630,785,364,262,340,
0,621,773,361,259,337,
0,614,761,359,257,335,
0,607,855,356,255,332,
0,600,902,353,253,328,
0,590,888,350,251,325,
0,583,871,347,248,322,
0,577,857,344,268,319,
0,571,872,342,264,317,
0,564,857,339,263,314,
0,558,839,336,259,312,
0,551,827,334,258,360,
0,545,814,332,255,356,
0,540,801,328,254,352,
0,533,790,326,252,350,
0,527,892,323,249,345,
0,522,907,321,248,343,
0,517,911,319,280,339,
0,512,911,316,278,335,
0,507,894,313,275,333,
0,502,871,312,271,329,
0,497,857,310,270,376,
0,492,843,307,267,371,
0,487,830,304,265,368,
0,482,889,303,263,364,
0,477,906,300,260,359,
0,472,911,297,265,356,
0,596,915,295,265,353,
0,588,911,294,263,350,
0,580,887,291,260,347,
0,574,867,289,258,344,
0,567,854,287,255,396,
0,560,839,285,254,391,
0,553,827,284,252,387,
0,546,814,281,249,384,
0,540,802,279,248,380,
0,534,791,276,263,376,
0,542,779,275,262,371,
0,536,768,273,259,368,
0,529,900,271,257,365,
0,524,906,269,255,361,
0,519,888,278,252,408,
0,512,871,275,251,404,
0,508,857,273,248,399,
0,500,844,271,246,396,
0,496,867,268,244,391,
0,491,896,265,259,387,
0,486,878,263,256,384,
0,481,863,263,255,380,
0,476,849,351,252,377,
0,472,831,391,249,384,
0,467,819,387,248,399,
0,463,807,384,246,396,
0,459,795,379,243,391,
0,454,783,376,241,388,
0,449,771,371,240,384,
0,463,761,368,278,380,
0,530,750,364,275,376,
0,524,739,361,272,372,
0,518,728,358,270,369,
0,512,718,355,268,384,
0,505,859,407,265,379,
0,500,844,403,263,375,
0,495,830,399,260,371,
0,487,816,395,259,368,
0,483,803,391,255,364,
0,567,792,387,275,359,
0,565,780,384,271,357,
0,558,768,380,270,354,
0,551,754,376,268,351,
0,544,743,373,264,359,
0,539,732,369,262,356,
0,532,723,366,260,353,
0,527,713,364,258,350,
0,519,814,359,255,347,
0,514,884,356,255,343,
0,508,868,353,275,339,
0,504,854,350,273,337,
0,498,839,348,271,334,
0,493,823,344,268,332,
0,487,811,342,265,384,
0,483,798,339,263,380,
0,478,786,335,262,376,
0,473,774,334,259,371,
0,467,763,331,257,368,
0,463,899,327,280,364,
0,459,908,324,278,360,
0,454,911,322,275,358,
0,449,908,319,273,354,
0,446,886,318,271,351,
0,441,905,315,268,376,
0,438,910,312,265,371,
0,433,903,310,263,368,
0,430,880,307,262,364,
0,425,865,304,259,361,
0,422,851,302,282,357,
0,419,838,300,280,353,
0,415,824,297,276,351,
0,412,812,295,274,348,
0,408,796,293,271,350,
0,405,878,291,269,379,
0,401,905,288,267,375,
0,398,907,287,263,371,
0,395,887,284,263,368,
0,391,903,282,260,364,
0,412,911,280,284,359,
0,494,912,278,281,356,
0,487,904,275,279,353,
0,482,880,273,275,351,
0,477,862,332,273,418,
0,472,902,391,271,417,
0,467,909,388,268,412,
0,462,913,384,266,408,
0,457,916,380,263,404,
0,451,917,376,262,400,
0,448,908,372,287,396,
0,443,881,369,284,391,
0,439,866,366,282,388,
0,435,852,449,280,385,
0,430,906,443,278,433,
0,425,910,438,274,428,
0,422,906,433,271,423,
0,417,883,429,270,419,
0,414,867,425,268,415,
0,409,900,420,265,411,
0,542,909,415,280,406,
0,561,913,412,278,401,
0,555,915,408,275,398,
0,547,909,404,273,394,
0,542,879,401,270,391,
0,536,864,397,268,387,
0,529,850,394,265,384,
0,523,837,391,263,381,
0,518,824,387,262,377,
0,511,812,384,275,374,
0,505,799,380,273,369,
0,500,893,376,271,367,
0,495,908,373,268,364,
0,489,911,369,265,359,
0,485,896,367,263,369,
0,480,876,364,260,366,
0,475,860,360,259,362,
0,471,847,358,255,359,
0,465,903,355,255,355,
0,460,911,352,287,353,
0,552,913,348,284,349,
0,545,910,345,281,346,
0,539,886,343,279,344,
0,532,870,340,276,340,
0,527,851,337,273,337,
0,520,839,335,271,335,
0,515,825,332,269,332,
0,510,813,329,267,329,
0,504,800,327,263,327,
0,519,790,324,280,323,
0,622,777,321,278,320,
0,614,766,319,275,318,
0,606,755,316,272,316,
0,599,745,314,270,359,
0,591,732,312,268,359,
0,584,723,310,265,355,
0,577,713,307,263,352,
0,571,704,304,260,348,
0,564,792,303,259,345,
0,588,902,300,280,341,
0,612,908,297,276,338,
0,604,907,295,274,335,
0,596,885,294,271,332,
0,590,869,291,270,381,
0,583,851,289,267,377,
0,575,838,287,263,374,
0,569,825,285,262,369,
0,563,899,283,260,366,
0,556,908,280,258,363,
0,578,904,278,287,359,
0,571,882,276,285,355,
0,563,867,275,283,352,
0,557,852,272,280,348,
0,551,839,271,278,371,
0,544,823,270,275,367,
0,539,810,268,272,364,
0,533,798,265,270,359,
0,527,786,263,268,356,
0,521,775,263,295,353,
0,731,764,259,296,349,
0,719,752,258,295,345,
0,708,743,255,291,343,
0,699,732,266,289,339,
0,689,723,263,287,336,
0,680,710,262,284,334,
0,671,701,259,281,331,
0,664,692,257,279,327,
0,655,683,255,276,326,
0,647,675,254,287,323,
0,638,666,251,285,319,
0,630,658,249,283,317,
0,624,651,329,280,314,
0,615,643,410,278,312,
0,609,635,406,275,346,
0,602,625,401,272,343,
0,595,619,397,270,339,
0,588,611,393,268,336,
0,583,604,390,265,333,
0,575,598,386,278,330,
0,568,591,382,275,326,
0,563,584,379,271,323,
0,556,578,376,270,321,
0,551,681,371,268,356,
0,545,783,368,265,360,
0,539,768,365,263,357,
0,534,756,361,260,353,
0,528,897,359,259,351,
0,524,886,355,257,347,
0,536,870,353,276,344,
0,531,855,349,273,339,
0,526,841,346,271,337,
0,519,828,344,269,334,
0,514,814,340,267,377,
0,509,802,337,263,372,
0,504,787,335,262,369,
0,499,883,332,259,366,
0,495,906,329,257,361,
0,489,909,327,255,359,
0,484,896,324,275,355,
0,480,876,321,272,351,
0,475,862,348,270,348,
0,471,847,438,268,344,
0,467,834,432,265,388,
0,462,821,428,263,384,
0,458,806,423,260,380,
0,454,881,419,258,376,
0,449,881,415,255,372,
0,446,866,412,271,369,
0,555,851,408,273,366,
0,547,837,403,271,361,
0,541,824,399,268,358,
0,535,811,396,265,355,
0,528,799,391,263,377,
0,523,787,388,262,374,
0,516,772,385,259,369,
0,511,761,382,256,366,
0,505,751,379,255,363,
0,500,740,376,285,359,
0,525,731,372,282,356,
0,519,720,368,280,352,
0,512,711,365,277,349,
0,507,702,361,275,345,
0,502,692,359,272,387,
0,496,768,355,270,384,
0,491,775,353,267,380,
0,486,763,351,265,376,
0,481,751,348,263,372,
0,476,740,344,271,369,
0,514,833,342,269,365,
0,508,855,339,267,361,
0,502,839,335,263,358,
0,496,826,333,262,381,
0,491,813,331,259,382,
0,486,798,327,258,377,
0,480,785,326,255,374,
0,476,774,323,253,371,
0,471,763,319,252,367,
0,466,752,318,277,364,
0,460,740,315,275,359,
0,455,731,312,271,355,
0,451,721,395,270,353,
0,448,799,394,268,408,
0,443,785,390,265,403,
0,440,770,387,263,399,
0,435,759,383,260,396,
0,432,748,379,258,391,
0,428,736,376,255,387,
0,454,727,372,285,384,
0,519,716,369,282,380,
0,512,706,364,280,376,
0,507,696,361,278,372,
0,501,688,359,275,412,
0,496,679,355,272,407,
0,490,668,352,270,403,
0,485,660,349,268,399,
0,480,652,346,265,395,
0,475,644,344,270,391,
0,477,636,340,271,387,
0,491,628,337,268,384,
0,485,768,377,266,379,
0,480,755,372,263,376,
0,475,743,368,262,404,
0,469,732,366,259,399,
0,463,719,362,257,396,
0,460,878,359,255,391,
0,455,903,355,252,388,
0,451,896,352,268,385,
0,446,876,349,265,381,
0,440,862,345,263,377,
0,436,847,342,261,373,
0,432,833,339,259,369,
0,428,820,356,255,391,
0,423,807,353,254,387,
0,420,792,350,252,384,
0,417,781,347,249,380,
0,414,769,344,248,376,
0,410,760,340,273,372,
0,505,748,337,270,368,
0,497,737,334,268,366,
0,492,728,331,265,361,
0,487,718,328,263,399,
0,481,721,347,261,414,
0,476,816,344,259,409,
0,471,899,340,255,406,
0,465,883,337,254,401,
0,461,868,334,252,398,
0,456,854,331,271,393,
0,451,839,327,268,390,
0,446,826,324,266,387,
0,441,814,322,263,382,
0,438,801,319,262,416,
0,433,789,317,259,412,
0,429,777,315,257,408,
0,425,764,312,255,403,
0,421,753,310,252,399,
0,417,743,307,251,396,
0,414,732,305,275,391,
0,431,721,303,272,388,
0,425,711,300,270,384,
0,421,703,297,268,380,
0,416,694,295,265,412,
0,412,685,294,263,408,
0,409,676,291,261,403,
0,406,688,289,259,399,
0,402,745,287,255,395,
0,399,734,286,267,391,
0,457,723,283,280,387,
0,479,711,281,276,384,
0,472,702,279,274,380,
0,467,692,287,271,376,
0,462,683,312,270,418,
0,456,673,308,267,414,
0,451,664,306,265,409,
0,448,659,303,263,406,
0,443,760,300,259,401,
0,438,748,297,285,398,
0,441,736,295,285,393,
0,436,726,292,282,390,
0,431,716,289,280,386,
0,426,705,287,278,382,
0,422,696,285,275,385,
0,418,880,282,272,381,
0,414,863,280,270,377,
0,410,844,278,268,374,
0,407,831,275,265,370,
0,403,839,274,279,368,
0,545,870,271,275,364,
0,537,856,270,273,360,
0,529,841,271,271,356,
0,524,827,323,268,373,
0,518,814,319,266,388,
0,512,801,316,263,384,
0,506,790,313,262,381,
0,500,775,311,259,377,
0,495,764,307,257,374,
0,490,753,305,281,369,
0,614,742,302,280,366,
0,606,732,300,276,363,
0,596,721,368,275,359,
0,588,711,364,271,388,
0,582,702,359,270,384,
0,575,693,357,268,380,
0,568,684,353,265,376,
0,561,673,351,262,372,
0,556,664,347,260,369,
0,588,883,344,269,365,
0,728,900,341,266,361,
0,717,882,338,263,359,
0,705,867,335,262,355,
0,696,852,332,259,389,
0,687,839,328,257,385,
0,678,888,326,255,381,
0,669,906,323,254,377,
0,660,911,320,251,374,
0,652,910,318,255,370,
0,645,886,316,268,367,
0,637,870,312,265,363,
0,630,856,310,263,359,
0,620,843,307,260,355,
0,614,829,305,259,359,
0,607,816,302,255,357,
0,600,804,300,254,353,
0,593,792,297,252,351,
0,587,777,295,249,348,
0,580,766,292,282,344,
0,637,755,291,280,342,
0,627,745,288,278,339,
0,620,735,286,275,335,
0,610,725,283,272,332,
0,603,716,281,270,359,
0,595,705,279,268,356,
0,588,696,277,265,353,
0,582,688,275,263,350,
0,575,676,272,261,347,
0,568,668,271,271,344,
0,563,659,268,269,340,
0,557,652,267,267,337,
0,551,644,265,263,334,
0,543,636,263,262,342,
0,539,628,260,259,381,
0,533,622,259,258,377,
0,527,614,257,255,374,
0,523,607,255,254,369,
0,518,599,254,251,366,
0,512,591,252,259,363,
0,523,585,250,257,359,
0,516,579,248,255,355,
0,510,572,320,253,353,
0,504,566,316,251,374,
0,499,611,313,248,370,
0,495,804,310,247,366,
0,490,791,307,245,363,
0,486,777,304,243,359,
0,481,763,302,240,355,
0,476,752,300,259,352,
0,472,740,296,255,349,
0,467,729,295,254,346,
0,463,719,291,252,344,
0,459,884,412,251,387,
0,455,905,422,248,383,
0,450,906,417,246,379,
0,446,886,412,244,375,
0,442,870,408,242,371,
0,439,852,404,255,368,
0,504,839,401,287,364,
0,600,825,397,285,360,
0,591,812,393,283,358,
0,583,799,390,280,354,
0,575,788,385,278,407,
0,568,776,382,275,402,
0,562,766,379,273,398,
0,556,758,376,271,395,
0,550,900,372,268,391,
0,543,910,369,282,387,
0,604,910,366,280,383,
0,599,891,363,278,380,
0,591,873,359,275,376,
0,582,859,367,273,372,
0,575,845,362,271,403,
0,568,831,359,269,399,
0,562,900,355,267,395,
0,556,909,353,263,391,
0,550,912,350,262,387,
0,543,902,347,281,384,
0,551,878,344,279,380,
0,543,863,342,276,376,
0,538,849,339,273,373,
0,531,836,335,271,369,
0,526,900,332,269,366,
0,519,909,329,267,362,
0,514,912,327,264,359,
0,509,910,324,263,355,
0,504,882,322,260,352,
0,499,867,319,295,350,
0,494,853,317,291,347,
0,489,839,315,289,344,
0,484,827,312,287,340,
0,478,814,310,284,337,
0,473,801,307,281,344,
0,469,790,304,280,341,
0,464,779,303,276,338,
0,460,806,300,275,335,
0,455,789,297,272,332,
0,451,777,295,278,329,
0,489,766,293,275,327,
0,483,755,291,273,324,
0,479,744,289,271,321,
0,472,734,287,268,356,
0,467,724,284,266,368,
0,462,723,282,263,364,
0,457,713,280,262,361,
0,452,870,278,259,358,
0,448,851,275,258,355,
0,460,837,274,281,351,
0,487,824,271,279,348,
0,481,811,289,276,345,
0,476,798,371,274,342,
0,469,785,366,271,370,
0,464,774,361,270,365,
0,460,763,359,268,361,
0,455,752,355,265,358,
0,449,741,352,263,355,
0,445,728,349,260,352,
0,494,718,345,280,348,
0,491,708,343,278,344,
0,485,700,339,275,342,
0,480,690,336,273,339,
0,473,681,333,271,356,
0,467,673,331,268,352,
0,463,734,327,266,349,
0,458,828,324,263,345,
0,454,814,322,262,342,
0,449,798,319,271,339,
0,551,786,316,271,335,
0,543,774,314,269,333,
0,536,762,312,267,330,
0,531,751,309,263,327,
0,524,847,305,262,367,
0,517,831,304,259,361,
0,511,817,301,258,359,
0,505,804,299,255,355,
0,500,792,295,254,352,
0,496,777,295,271,348,
0,540,765,291,268,345,
0,534,754,289,265,342,
0,527,743,287,263,339,
0,521,732,285,260,335,
0,514,723,308,258,387,
0,508,849,305,255,382,
0,504,884,302,254,377,
0,497,868,300,252,374,
0,492,854,296,250,371,
0,499,836,295,285,367,
0,614,823,291,281,363,
0,605,809,289,279,359,
0,598,797,287,276,356,
0,591,785,284,274,384,
0,582,774,339,271,400,
0,575,763,335,269,395,
0,568,752,332,267,391,
0,562,741,329,264,387,
0,556,731,327,263,384,
0,550,719,323,275,380,
0,543,708,320,272,376,
0,537,700,318,271,372,
0,531,690,317,268,369,
0,526,681,315,265,416,
0,519,671,312,263,412,
0,513,664,308,262,406,
0,508,736,305,259,402,
0,504,724,304,257,398,
0,498,713,300,255,395,
0,588,701,298,279,391,
0,604,691,295,276,387,
0,597,681,300,273,384,
0,589,672,327,271,380,
0,583,664,325,269,429,
0,574,655,321,267,423,
0,568,647,318,263,419,
0,560,639,316,262,414,
0,554,632,312,260,410,
0,548,624,310,266,406,
0,543,615,307,279,402,
0,536,608,304,276,398,
0,531,601,302,273,395,
0,525,595,300,271,391,
0,519,632,307,269,399,
0,512,623,303,267,393,
0,508,615,300,263,390,
0,502,607,297,262,386,
0,497,599,295,260,383,
0,492,591,293,287,380,
0,668,604,290,284,376,
0,657,595,287,281,372,
0,648,588,286,280,369,
0,639,580,283,277,366,
0,632,574,281,275,401,
0,623,568,279,272,396,
0,615,562,276,270,391,
0,608,718,274,268,387,
0,600,707,272,265,384,
0,593,696,271,285,380,
0,587,684,268,281,376,
0,579,675,266,279,373,
0,574,665,263,276,369,
0,568,656,263,274,368,
0,561,647,261,271,367,
0,553,639,259,270,363,
0,547,632,256,268,359,
0,542,792,255,265,356,
0,536,777,253,263,353,
0,531,765,251,283,351,
0,526,751,249,280,348,
0,519,739,248,278,344,
0,515,728,246,275,342,
0,510,718,244,272,401,
0,504,708,283,270,396,
0,498,698,280,268,391,
0,494,688,277,265,387,
0,488,679,275,263,384,
0,484,670,271,261,380,
0,526,662,270,260,376,
0,523,651,268,258,372,
0,517,643,267,255,369,
0,511,635,315,254,366,
0,505,627,312,252,408,
0,499,620,308,249,403,
0,492,615,305,248,398,
0,487,608,302,246,393,
0,483,601,300,244,390,
0,478,595,297,249,386,
0,474,588,295,270,382,
0,470,579,291,267,379,
0,465,572,289,263,376,
0,460,566,287,263,371,
0,456,560,285,259,389,
0,452,554,283,257,385,
0,447,548,280,255,380,
0,443,542,277,254,376,
0,440,536,275,252,373,
0,435,531,273,271,369,
0,540,632,271,268,366,
0,532,620,268,264,363,
0,527,612,355,263,359,
0,520,604,351,260,356,
0,515,596,347,258,401,
0,508,588,344,255,397,
0,502,736,339,254,391,
0,496,723,336,252,388,
0,492,711,334,249,385,
0,502,702,331,258,381,
0,673,691,327,255,377,
0,664,679,324,253,374,
0,655,670,322,251,370,
0,646,662,319,248,367,
0,638,652,316,247,364,
0,628,643,314,244,359,
0,620,636,311,243,356,
0,614,627,308,241,353,
0,606,620,305,239,350,
0,611,739,304,268,347,
0,690,783,301,265,344,
0,680,768,298,263,341,
0,671,756,295,260,338,
0,663,745,294,259,371,
0,654,739,291,255,367,
0,644,728,289,254,363,
0,636,718,286,252,359,
0,628,734,284,249,355,
0,621,723,281,248,352,
0,614,711,280,280,348,
0,607,702,278,277,345,
0,600,690,275,273,343,
0,593,843,273,271,339,
0,587,827,300,269,375,
0,579,813,309,267,371,
0,572,799,307,263,367,
0,566,787,303,262,363,
0,560,775,300,260,359,
0,553,764,297,258,355,
0,548,753,295,268,352,
0,543,742,292,265,349,
0,537,729,370,263,345,
0,531,719,388,260,343,
0,526,710,384,258,384,
0,521,700,380,255,380,
0,514,690,376,254,376,
0,509,681,371,252,371,
0,504,671,368,250,368,
0,499,664,365,292,364,
0,539,655,361,289,360,
0,532,645,359,287,358,
0,526,638,355,284,355,
0,519,630,352,281,352,
0,515,622,349,279,374,
0,508,615,346,276,370,
0,502,608,344,275,366,
0,496,600,339,271,361,
0,492,593,337,270,359,
0,487,587,334,291,355,
0,574,579,331,287,352,
0,566,572,327,285,348,
0,559,566,326,282,345,
0,552,560,323,280,344,
0,546,553,388,277,363,
0,540,547,384,275,359,
0,532,542,380,272,355,
0,527,536,376,270,352,
0,520,530,372,268,348,
0,515,525,369,279,344,
0,510,519,366,275,342,
0,504,513,362,273,339,
0,499,508,359,270,335,
0,494,504,355,268,380,
0,488,498,380,266,378,
0,483,494,376,263,375,
0,478,639,373,262,370,
0,473,629,368,259,366,
0,469,620,365,257,363,
0,563,612,361,280,359,
0,579,604,359,278,355,
0,571,595,355,275,352,
0,564,588,352,272,349,
0,558,580,350,270,376,
0,551,573,346,268,371,
0,545,566,344,265,368,
0,537,560,339,263,364,
0,531,552,337,261,359,
0,526,547,334,259,357,
0,534,540,331,274,353,
0,527,534,327,271,350,
0,521,527,326,270,348,
0,515,521,323,266,344,
0,510,515,320,263,344,
0,504,613,318,262,341,
0,499,604,316,259,337,
0,493,606,312,257,335,
0,487,686,310,255,331,
0,483,675,307,280,328,
0,488,666,305,279,326,
0,483,657,303,276,323,
0,478,781,323,273,320,
0,473,766,319,271,318,
0,468,755,317,268,375,
0,464,743,315,266,370,
0,460,732,312,263,367,
0,455,721,308,262,363,
0,451,711,305,259,359,
0,447,702,303,280,355,
0,639,691,300,276,352,
0,631,683,298,273,349,
0,623,671,295,271,345,
0,615,748,294,268,343,
0,608,880,377,266,376,
0,600,864,374,263,371,
0,592,849,370,262,368,
0,583,835,366,259,364,
0,577,822,362,257,359,
0,598,899,359,280,356,
0,652,907,355,277,353,
0,643,899,352,275,350,
0,636,875,349,271,347,
0,627,860,346,270,344,
0,620,846,344,267,340,
0,612,832,340,265,337,
0,605,819,337,263,335,
0,596,807,334,260,332,
0,590,795,331,259,327,
0,583,783,327,275,326,
0,575,771,326,273,323,
0,569,761,323,271,319,
0,563,748,319,268,318,
0,558,895,318,265,366,
0,551,906,315,263,361,
0,545,901,312,260,359,
0,540,880,310,259,355,
0,532,865,307,255,352,
0,527,851,304,255,348,
0,521,837,302,272,344,
0,516,824,300,270,341,
0,511,812,297,268,338,
0,505,796,295,264,335,
0,502,886,407,263,375,
0,496,870,412,260,371,
0,491,856,408,258,367,
0,487,841,403,255,364,
0,481,828,398,254,359,
0,476,815,395,271,356,
0,525,802,391,270,352,
0,519,790,387,268,350,
0,513,778,384,265,346,
0,507,764,380,262,343,
0,502,753,376,260,397,
0,496,743,374,257,392,
0,490,732,369,255,388,
0,485,723,367,254,385,
0,479,713,363,252,380,
0,473,704,359,270,376,
0,470,695,356,267,373,
0,465,686,353,264,369,
0,460,678,352,262,366,
0,455,667,348,259,363,
0,452,658,345,257,392,
0,448,651,344,255,388,
0,444,642,340,253,385,
0,440,635,337,251,381,
0,435,627,334,249,376,
0,446,654,332,271,372,
0,536,649,328,270,369,
0,528,641,326,267,366,
0,522,632,323,264,363,
0,516,622,321,262,396,
0,511,614,319,259,399,
0,505,704,316,257,396,
0,499,770,313,255,391,
0,494,759,311,253,387,
0,487,747,308,251,384,
0,527,736,306,279,380,
0,585,724,304,276,376,
0,577,715,301,273,372,
0,571,704,299,271,369,
0,563,692,296,269,377,
0,557,683,295,266,374,
0,551,673,292,263,369,
0,544,664,290,262,366,
0,539,655,287,259,363,
0,531,647,285,257,359,
0,535,639,283,278,355,
0,527,632,281,275,352,
0,523,624,279,273,350,
0,517,616,276,271,347,
0,511,608,287,268,393,
0,505,600,286,265,390,
0,500,593,283,263,385,
0,496,699,280,261,382,
0,491,688,278,259,378,
0,484,679,275,270,374,
0,638,669,273,271,369,
0,647,659,271,268,366,
0,638,651,269,265,363,
0,630,642,267,263,359,
0,622,632,292,260,380,
0,614,624,289,259,376,
0,607,615,287,255,371,
0,600,647,284,254,368,
0,591,637,281,252,365,
0,583,628,279,263,360,
0,577,620,276,261,357,
0,572,611,273,259,354,
0,565,604,271,255,351,
0,558,596,270,254,348,
0,552,697,267,252,384,
0,547,687,265,249,380,
0,540,677,263,248,376,
0,536,668,262,246,373,
0,527,659,259,243,369,
0,523,649,257,267,365,
0,524,641,255,263,361,
0,519,632,254,262,358,
0,513,624,319,259,355,
0,508,616,316,257,388,
0,504,607,313,255,401,
0,498,600,311,252,398,
0,493,591,307,251,393,
0,488,589,305,248,390,
0,483,787,303,247,386,
0,493,774,299,280,381,
0,487,761,295,276,377,
0,483,750,294,274,374,
0,478,739,291,271,371,
0,472,728,289,270,387,
0,468,715,287,267,384,
0,463,705,284,263,380,
0,460,696,282,262,376,
0,455,687,280,259,371,
0,449,677,278,258,368,
0,550,668,275,279,364,
0,560,659,272,276,361,
0,553,651,271,273,358,
0,547,643,268,271,354,
0,541,734,267,269,372,
0,535,831,263,266,368,
0,528,817,262,263,365,
0,523,804,259,262,361,
0,517,792,258,259,358,
0,510,780,255,259,355,
0,536,768,254,261,351,
0,529,757,252,259,348,
0,523,746,250,257,344,
0,517,736,248,255,342,
0,511,723,247,252,369,
0,505,712,244,249,366,
0,500,706,243,248,362,
0,496,697,241,246,359,
0,490,688,240,243,355,
0,483,679,238,278,352,
0,479,670,236,275,348,
0,474,661,235,272,344,
0,470,653,233,270,342,
0,465,645,231,268,339,
0,461,737,231,265,401,
0,455,725,229,263,398,
0,451,714,227,260,393,
0,448,704,226,258,390,
0,443,694,224,255,386,
0,439,684,223,275,383,
0,513,675,221,273,377,
0,508,665,220,271,375,
0,502,657,219,268,371,
0,496,647,217,265,372,
0,491,638,216,263,388,
0,486,630,214,260,385,
0,480,718,212,259,381,
0,475,707,211,255,377,
0,470,696,210,254,374,
0,484,688,209,276,370,
0,530,677,207,274,366,
0,524,668,206,271,362,
0,518,659,205,269,359,
0,511,650,204,267,415,
0,505,639,203,264,409,
0,500,632,201,262,405,
0,495,624,199,259,401,
0,490,752,199,257,397,
0,484,739,198,255,393,
0,536,728,195,287,390,
0,590,718,212,285,385,
0,582,707,211,283,381,
0,575,697,208,280,377,
0,568,688,207,278,398,
0,561,675,205,275,394,
0,555,667,204,272,391,
0,548,657,201,270,387,
0,543,649,199,268,383,
0,536,641,199,269,380,
0,631,632,197,283,376,
0,622,625,195,280,371,
0,614,617,194,278,368,
0,606,609,193,275,364,
0,598,603,192,273,387,
0,591,593,191,271,384,
0,583,587,189,268,380,
0,577,580,188,265,376,
0,571,574,187,263,371,
0,564,568,185,272,368,
0,557,561,184,271,364,
0,551,556,184,269,360,
0,544,550,182,267,358,
0,539,691,181,264,355,
0,534,768,258,262,376,
0,527,752,255,260,372,
0,522,740,253,257,368,
0,516,729,251,255,365,
0,511,719,248,253,361,
0,506,708,247,279,358,
0,504,699,243,275,355,
0,498,688,241,273,351,
0,493,679,240,271,348,
0,487,671,238,268,364,
0,483,859,303,267,391,
0,479,884,300,263,388,
0,474,868,296,262,384,
0,470,854,295,259,380,
0,465,839,291,257,377,
0,461,825,289,263,374,
0,455,813,286,262,370,
0,451,800,284,259,366,
0,448,788,280,257,362,
0,443,776,279,255,364,
0,440,766,276,253,360,
0,435,752,274,250,358,
0,431,742,271,248,355,
0,428,731,270,246,352,
0,423,721,268,244,348,
0,470,711,265,279,345,
0,588,702,263,276,342,
0,581,692,260,273,338,
0,574,684,259,271,335,
0,567,675,255,269,333,
0,560,667,255,267,330,
0,553,655,252,263,327,
0,547,647,251,262,324,
0,542,639,248,259,322,
0,536,632,247,263,319,
0,529,625,245,289,317,
0,523,617,243,287,314,
0,517,611,240,284,312,
0,512,668,239,281,308,
0,507,659,237,279,359,
0,501,649,236,276,355,
0,496,870,233,273,352,
0,491,855,231,271,348,
0,486,839,231,269,345,
0,481,826,228,281,343,
0,482,813,227,280,339,
0,476,800,225,277,335,
0,471,788,224,275,332,
0,466,776,223,272,329,
0,462,765,221,270,342,
0,457,753,220,268,339,
0,453,740,217,264,335,
0,448,730,216,263,332,
0,444,720,215,260,329,
0,440,711,214,286,327,
0,505,701,211,283,323,
0,498,691,209,280,319,
0,492,683,246,279,318,
0,487,674,270,275,326,
0,481,665,267,273,368,
0,476,657,263,271,365,
0,472,647,262,268,361,
0,467,639,259,266,358,
0,462,632,257,263,355,
0,456,624,255,287,352,
0,529,616,253,284,348,
0,521,609,251,281,344,
0,515,602,283,279,340,
0,510,595,280,276,384,
0,504,588,277,274,379,
0,499,582,275,271,376,
0,493,763,271,269,371,
0,487,750,270,267,368,
0,483,739,268,263,364,
0,507,728,265,275,360,
0,643,716,263,271,358,
0,632,707,260,270,353,
0,624,696,258,268,350,
0,616,687,255,265,391,
0,609,678,254,263,387,
0,601,668,252,261,384,
0,595,657,250,258,380,
0,588,649,248,255,376,
0,581,641,246,254,372,
0,593,633,244,277,369,
0,623,625,242,275,365,
0,612,617,240,271,361,
0,605,610,238,270,358,
0,598,603,236,268,388,
0,591,595,235,265,384,
0,583,588,231,263,380,
0,577,676,231,260,376,
0,571,667,229,258,372,
0,564,657,227,280,369,
0,617,647,225,279,366,
0,606,639,224,276,363,
0,599,632,273,274,359,
0,591,623,270,271,355,
0,584,615,267,269,393,
0,577,607,264,267,389,
0,571,600,262,263,385,
0,564,590,260,262,382,
0,558,583,258,259,377,
0,551,575,255,275,375,
0,546,569,254,271,371,
0,539,563,252,270,368,
0,533,558,249,268,363,
0,527,551,247,265,366,
0,522,546,245,263,403,
0,516,540,243,260,398,
0,511,535,241,259,394,
0,507,527,239,255,391,
0,502,522,237,254,387,
0,496,517,236,280,384,
0,519,512,233,276,380,
0,512,507,231,274,376,
0,506,502,230,271,371,
0,500,497,227,270,396,
0,495,492,237,267,391,
0,490,561,235,265,387,
0,486,553,233,263,384,
0,480,545,231,260,380,
0,476,538,230,258,376,
0,472,531,227,280,374,
0,519,526,225,277,369,
0,512,519,224,275,366,
0,506,513,243,272,361,
0,500,508,240,270,408,
0,495,502,239,268,403,
0,489,704,236,265,399,
0,484,692,235,263,395,
0,480,679,231,260,391,
0,475,671,231,258,387,
0,515,662,228,286,384,
0,586,652,227,283,380,
0,577,643,225,280,376,
0,570,636,223,278,371,
0,563,627,269,275,408,
0,556,619,265,273,404,
0,551,611,263,271,399,
0,543,602,260,269,396,
0,537,667,258,266,391,
0,532,657,255,282,388,
0,532,648,254,285,385,
0,526,639,252,282,381,
0,519,632,302,280,377,
0,513,623,359,277,374,
0,508,615,416,275,406,
0,503,607,412,272,401,
0,498,600,408,270,398,
0,492,591,403,268,393,
0,487,583,399,265,390,
0,483,577,396,287,386,
0,479,570,391,284,382,
0,473,563,388,281,379,
0,467,557,385,279,376,
0,463,551,380,276,371,
0,459,609,377,273,417,
0,455,600,375,271,412,
0,451,591,371,269,408,
0,446,583,368,267,403,
0,443,575,364,263,399,
0,438,568,361,281,396,
0,435,561,359,279,391,
0,431,555,355,275,389,
0,425,547,352,273,385,
0,422,542,349,271,403,
0,419,536,346,269,398,
0,415,530,344,267,393,
0,412,524,340,263,390,
0,408,517,337,263,386,
0,404,512,335,259,384,
0,407,507,332,279,380,
0,548,501,329,276,376,
0,541,496,327,274,372,
0,532,492,368,271,368,
0,527,486,364,269,377,
0,520,482,359,267,374,
0,515,477,356,264,369,
0,510,502,353,263,367,
0,504,718,350,260,363,
0,498,706,347,257,359,
0,494,696,344,279,356,
0,489,686,341,275,353,
0,484,676,338,273,350,
0,479,668,335,271,347,
0,473,658,332,268,344,
0,468,649,328,267,340,
0,463,641,326,263,337,
0,460,632,323,262,335,
0,455,623,321,259,332,
0,451,837,319,276,329,
0,536,895,316,278,327,
0,528,876,313,275,323,
0,521,861,311,272,321,
0,515,847,308,270,319,
0,509,834,305,268,371,
