=~=~=~=~=~=~=~=~=~=~=~= PuTTY log 2021.04.22 11:12:06 =~=~=~=~=~=~=~=~=~=~=~=

5,17,568,
0,604,230,331,17,624,
0,599,227,327,17,615,
0,593,
,20,609,
0,572,164,353,21,602,
037,20,563,
0,540,169,335,19,556,
0,534,167,361,19,626,
0,588,167,359,19,617,
0,579,166,356,20,609,
0,572,164,353,21,602,
0,566,163,350,20,595,
0,559,161,347,20,588,
0,553,160,344,20,580,
0,547,159,340,19,574,
0,540,158,337,19,568,
0,535,157,335bbj
0,529,156,359,19,613,
0,572,155,368,19,620,
0,5StartUp!
127,496,435,264,86,438,
0,504,433,287,86,490,
0,545,430,286,85,487,
0,540,428,284,84,483,
0,535,423,282,84,478,
0,530,421,280,83,474,
0,526,418,279,83,471,
0,523,415,278,83,467,
0,519,414,275,83,463,
0,514,471,273,83,460,
0,508,464,271,83,455,
0,503,460,269,82,451,
0,497,455,268,81,446,
0,494,449,265,80,450,
0,543,445,287,79,483,
0,536,440,285,79,478,
0,528,436,283,79,472,
0,523,432,280,79,467,
0,516,427,278,78,462,
0,511,467,275,78,457,
0,505,462,273,77,452,
0,499,457,271,76,448,
0,494,451,268,76,444,
0,489,448,266,75,441,
0,533,443,265,75,506,
0,547,438,263,74,499,
0,540,433,261,73,494,
0,536,429,259,73,488,
0,529,424,257,71,483,
0,523,425,255,72,479,
0,518,486,253,71,473,
0,511,480,251,71,467,
0,505,476,251,71,465,
0,503,472,248,71,460,
0,498,468,273,71,515,
0,567,463,271,70,508,
0,560,457,268,70,503,
0,552,453,265,69,497,
0,546,448,263,68,493,
0,540,444,262,86,487,
0,534,504,259,91,482,
0,529,497,257,89,477,
0,524,492,255,89,472,
0,518,487,253,88,467,
0,512,481,277,88,521,
0,584,476,295,87,514,
0,576,471,291,86,508,
0,569,465,289,86,502,
0,563,462,287,85,496,
0,556,457,284,84,492,
1,550,556,281,99,486,
1,543,547,280,99,480,
1,537,541,277,98,476,
1,531,535,275,96,472,
2,526,529,273,96,484,
3,590,523,294,95,519,
3,587,516,290,95,513,
3,579,511,287,94,507,
3,572,505,285,93,501,
3,566,500,283,92,496,
3,560,556,280,112,490,
3,552,548,278,110,484,
3,546,542,275,109,480,
3,540,536,273,108,475,
3,532,529,271,108,475,
3,590,524,287,107,521,
3,583,518,286,105,515,
4,575,512,283,104,510,
4,568,506,280,103,504,
4,561,499,278,103,498,
4,556,495,275,108,492,
4,548,489,273,107,487,
4,542,484,271,106,482,
4,536,480,269,105,477,
4,529,475,294,104,537,
4,591,470,291,103,528,
4,583,465,287,103,523,
4,576,460,285,102,516,
4,569,455,283,101,511,
4,563,451,280,100,505,
4,556,519,278,119,499,
4,550,512,275,118,494,
4,543,506,273,116,488,
4,538,500,271,115,483,
4,531,496,310,115,532,
4,585,489,306,113,524,
4,579,484,303,112,518,
4,571,480,300,112,512,
4,564,475,297,111,507,
4,558,468,295,110,501,
4,551,498,292,111,496,
3,545,492,290,110,490,
4,539,487,287,109,484,
3,533,481,285,108,480,
3,539,477,306,108,529,
3,583,472,304,107,520,
3,575,467,301,105,515,
3,568,462,298,104,509,
4,562,457,295,103,504,
3,556,473,293,122,497,
3,549,478,290,120,492,
3,543,472,287,120,487,
3,536,467,286,119,482,
3,531,463,283,118,477,
3,591,457,294,116,472,
3,590,453,291,115,466,
3,583,448,289,115,462,
3,575,444,287,113,456,
3,569,440,284,113,452,
3,563,435,281,113,448,
3,556,431,280,112,444,
3,550,427,277,112,439,
3,543,423,275,111,435,
3,537,419,272,110,432,
3,595,415,299,109,496,
3,587,412,295,108,489,
3,579,408,293,108,484,
3,573,404,291,107,479,
3,567,401,287,106,473,
3,560,464,286,111,468,
3,553,459,284,110,463,
3,547,454,280,109,459,
3,540,449,279,108,454,
3,535,444,276,107,499,
3,607,440,304,106,502,
3,598,435,302,105,496,
2,591,430,299,104,491,
2,583,426,295,103,486,
2,575,422,294,103,480,
2,570,417,291,114,475,
2,563,412,287,113,470,
2,557,408,286,112,464,
2,551,405,284,112,460,
2,543,401,283,111,496,
2,606,398,290,110,487,
2,598,395,287,108,483,
2,591,391,284,108,477,
2,583,388,283,107,472,
1,575,385,280,106,467,
1,569,448,278,107,462,
1,563,444,275,107,457,
1,556,439,273,105,452,
1,551,434,271,105,448,
1,544,430,297,103,512,
1,608,425,293,103,504,
1,600,421,291,102,499,
1,592,416,287,102,493,
1,585,412,286,100,487,
1,579,408,284,115,482,
1,572,455,280,113,477,
1,566,450,279,112,472,
1,559,446,276,111,467,
1,552,440,273,110,462,
1,547,436,300,109,536,
1,603,432,295,108,527,
1,595,427,293,108,521,
1,588,423,290,107,516,
1,580,419,287,105,510,
1,574,417,286,107,504,
0,567,447,283,106,499,
0,560,442,280,105,494,
0,553,438,278,103,487,
1,547,432,275,103,483,
0,575,428,295,103,545,
0,598,423,291,102,537,
0,590,419,288,100,531,
1,583,415,286,100,525,
0,575,412,284,99,519,
0,569,425,281,100,513,
0,563,420,279,99,508,
0,556,415,276,99,502,
0,550,412,274,98,497,
0,543,408,271,97,493,
0,610,403,295,96,535,
0,601,399,291,96,528,
0,594,396,289,95,522,
0,588,391,287,95,516,
0,582,388,284,94,510,
0,575,438,282,99,504,
0,568,440,280,97,499,
0,561,435,278,97,494,
0,555,430,275,96,489,
0,549,427,273,96,483,
0,552,423,291,95,522,
0,600,418,287,94,516,
0,591,414,286,94,510,
0,583,409,283,92,505,
0,577,406,280,92,500,
0,571,401,279,96,495,
0,563,462,276,96,489,
0,559,457,274,95,484,
0,552,451,271,94,479,
0,547,448,270,94,475,
0,540,443,297,92,470,
0,603,438,294,92,465,
0,595,433,291,92,460,
0,587,429,289,91,455,
0,580,425,286,90,451,
0,573,422,284,89,448,
0,567,427,281,94,443,
0,560,422,279,93,439,
0,553,417,276,93,435,
0,547,414,274,92,431,
0,542,409,272,92,499,
0,608,406,300,91,492,
0,600,401,297,89,487,
0,591,398,295,89,481,
0,585,395,291,88,476,
0,577,391,289,88,471,
0,572,467,287,91,465,
0,564,462,284,90,460,
0,558,458,281,89,455,
0,551,453,280,89,451,
0,545,448,277,88,511,
0,599,444,304,88,519,
0,590,439,301,87,514,
0,583,435,299,86,508,
0,575,430,295,86,502,
0,571,425,294,85,496,
0,564,459,291,97,492,
0,558,453,288,96,486,
0,551,448,286,96,481,
0,545,443,284,95,476,
0,539,439,281,94,471,
0,551,434,302,93,521,
0,591,431,299,92,515,
0,583,427,295,92,509,
0,576,422,294,91,504,
0,569,417,291,91,497,
0,563,414,289,99,494,
0,556,455,286,98,487,
0,551,449,284,97,483,
0,545,445,281,96,478,
0,540,440,280,96,473,
0,534,436,323,95,483,
0,593,431,319,94,478,
0,585,427,316,93,472,
0,577,423,313,93,467,
0,571,418,311,92,463,
0,564,415,307,92,458,
0,558,436,305,92,454,
0,551,432,303,91,449,
0,545,427,300,90,444,
0,539,423,297,89,441,
0,534,419,312,89,518,
0,600,414,308,88,510,
0,591,410,305,88,504,
0,586,406,303,87,497,
0,579,403,300,86,492,
0,572,399,297,86,487,
0,566,460,295,88,481,
0,559,455,293,86,476,
0,551,449,291,86,472,
0,546,446,287,85,467,
0,540,441,286,85,534,
0,582,436,300,84,526,
0,574,432,298,83,519,
0,567,428,295,83,515,
0,560,423,292,82,510,
0,553,419,290,81,504,
0,547,480,288,83,499,
0,543,472,286,82,493,
0,536,467,284,81,487,
0,531,462,281,80,483,
0,525,457,279,79,478,
0,556,452,309,79,542,
0,571,448,305,79,536,
0,563,443,303,79,529,
0,557,440,300,78,523,
0,551,435,297,78,517,
0,543,431,295,86,511,
0,537,460,292,84,505,
0,531,455,290,84,502,
0,526,450,287,83,496,
0,520,445,286,83,491,
0,516,440,318,81,540,
0,568,436,313,81,534,
0,560,432,311,80,527,
0,553,428,308,79,521,
0,547,423,305,79,515,
0,540,419,303,86,510,
0,534,415,300,84,504,
0,528,412,297,84,499,
0,523,408,295,83,494,
0,518,404,292,83,487,
0,512,400,315,82,529,
0,556,396,312,81,524,
0,549,393,308,80,518,
0,543,390,306,80,512,
0,537,386,304,79,506,
0,531,384,302,79,500,
0,526,441,299,81,495,
0,519,436,295,80,489,
0,514,432,294,79,484,
0,508,428,291,79,480,
0,504,423,290,79,507,
0,556,419,332,78,500,
0,548,415,329,77,495,
0,542,411,326,76,488,
0,536,408,323,76,483,
0,529,403,319,76,480,
0,524,435,317,77,475,
0,518,430,315,76,470,
0,513,425,312,76,465,
0,508,421,310,75,460,
0,503,416,307,75,455,
0,538,412,323,74,510,
0,543,408,319,73,504,
0,537,403,317,73,497,
0,531,399,314,72,492,
0,524,397,312,71,487,
0,519,393,309,78,481,
0,513,416,306,77,476,
0,508,412,304,76,472,
0,502,408,301,76,467,
0,497,403,299,75,463,
0,529,399,325,74,528,
0,557,396,323,73,521,
0,551,391,319,73,515,
0,545,388,316,71,510,
0,539,384,313,71,504,
0,533,382,311,82,499,
0,527,430,308,81,493,
0,520,425,305,81,487,
0,515,422,303,80,483,
0,510,417,300,79,478,
0,504,414,322,79,527,
0,563,408,319,78,520,
0,556,405,316,78,515,
0,550,401,312,77,510,
0,543,397,310,76,504,
0,537,393,308,76,499,
0,533,462,305,76,494,
0,527,455,303,75,487,
0,521,451,300,75,483,
0,515,446,297,73,478,
0,510,441,299,73,542,
0,563,436,323,72,535,
0,556,432,319,71,527,
0,550,428,318,71,521,
0,543,423,315,71,516,
0,536,420,312,71,511,
0,531,479,310,79,504,
0,524,472,307,78,500,
0,519,467,304,77,495,
0,513,462,302,76,489,
0,509,457,300,76,489,
0,556,452,322,75,536,
0,551,448,319,75,530,
0,543,443,316,74,524,
0,537,439,313,73,518,
0,531,433,311,73,512,
0,525,472,307,76,507,
0,519,467,305,76,501,
0,513,462,303,75,496,
0,508,455,300,74,490,
0,503,451,297,73,487,
0,536,447,321,72,556,
0,547,442,318,71,549,
0,541,438,315,71,543,
0,536,433,312,71,536,
0,530,429,310,71,530,
0,524,427,307,76,524,
0,519,502,305,76,518,
0,512,496,302,75,512,
0,507,490,300,75,507,
0,502,484,297,74,502,
0,496,481,324,73,558,
0,543,476,321,73,551,
0,537,471,318,71,543,
0,531,465,315,71,537,
0,525,460,312,71,532,
0,519,455,310,73,527,
0,513,451,307,79,520,
0,508,447,305,79,515,
0,504,443,303,79,510,
0,498,439,300,78,504,
0,493,434,307,77,559,
0,547,430,329,76,551,
0,540,425,327,76,544,
0,534,422,323,76,538,
0,527,419,320,75,531,
0,521,415,318,74,526,
0,516,460,315,79,519,
0,510,455,312,79,514,
0,504,449,310,78,510,
0,499,444,307,78,504,
0,494,440,304,77,515,
0,539,435,327,77,550,
0,534,431,324,76,543,
0,527,426,321,76,537,
0,521,422,319,75,531,
0,515,418,316,74,524,
0,510,497,313,76,519,
0,504,494,311,76,513,
0,499,488,307,76,507,
0,494,484,305,75,502,
0,488,479,303,74,499,
0,534,474,323,73,548,
0,545,468,319,73,542,
0,539,463,317,72,536,
0,532,459,314,71,531,
0,527,454,312,71,524,
0,522,450,310,81,519,
0,516,473,307,79,513,
0,510,468,304,79,507,
0,504,463,302,79,502,
0,499,459,299,78,496,
0,495,454,319,77,492,
0,543,449,316,77,487,
0,537,446,312,76,482,
0,531,441,310,76,477,
0,525,436,307,76,472,
0,519,432,304,75,467,
0,513,486,302,75,463,
0,508,480,299,74,460,
0,503,475,296,73,455,
0,499,470,295,73,451,
0,493,465,313,72,514,
0,560,460,325,71,507,
0,551,455,322,71,501,
0,545,451,319,71,496,
0,539,446,316,70,489,
0,532,441,313,70,485,
0,527,519,311,76,480,
0,520,511,308,75,475,
0,515,505,305,74,470,
0,510,499,303,73,464,
0,504,494,305,73,496,
0,558,487,327,71,527,
0,551,483,323,71,520,
0,545,478,321,71,515,
0,539,473,319,71,508,
0,532,468,316,70,504,
0,527,465,313,75,497,
0,520,460,311,73,492,
0,515,455,307,73,487,
0,510,451,305,72,482,
0,504,448,303,71,486,
0,553,444,330,71,529,
0,545,440,327,71,523,
0,539,435,323,70,516,
0,532,431,321,70,512,
0,526,427,318,69,507,
0,520,423,316,75,501,
0,514,435,313,73,496,
0,510,430,311,73,491,
0,504,425,307,72,485,
0,499,422,305,71,480,
0,495,418,332,71,535,
0,545,414,327,71,527,
0,539,409,324,70,521,
0,533,407,321,70,515,
0,527,403,319,69,510,
0,520,399,316,71,504,
0,515,427,313,73,499,
0,509,422,311,73,495,
0,504,418,307,71,489,
0,499,414,305,71,484,
0,493,410,324,71,541,
0,553,406,327,70,534,
0,546,401,326,70,527,
0,540,398,323,69,521,
0,534,393,319,68,515,
0,527,391,316,69,510,
0,521,446,313,71,504,
0,515,441,311,71,498,
0,510,438,308,71,493,
0,504,432,305,70,487,
0,499,428,315,69,553,
0,551,423,335,69,545,
0,545,419,333,68,541,
0,539,415,329,67,535,
0,532,411,327,67,528,
0,527,408,324,67,523,
0,521,458,322,70,516,
0,515,452,319,69,511,
0,510,448,316,68,505,
0,504,443,313,67,499,
0,499,438,311,67,514,
0,560,433,335,67,556,
0,560,430,332,66,549,
0,553,425,327,66,543,
0,546,422,326,65,536,
0,540,417,323,65,530,
0,534,438,319,73,526,
0,527,455,317,73,519,
0,522,450,314,72,514,
0,518,446,312,71,508,
0,512,440,310,71,503,
0,507,436,334,71,555,
0,552,432,331,70,548,
0,545,427,327,70,542,
0,540,423,324,69,536,
0,533,419,321,68,529,
0,527,415,319,69,524,
0,521,505,316,69,518,
0,515,499,313,68,512,
0,510,494,311,67,506,
0,504,488,308,67,502,
0,499,483,329,67,553,
0,540,478,326,66,547,
0,536,472,323,65,540,
0,528,467,321,65,534,
0,523,463,318,64,527,
0,517,458,316,67,521,
0,511,476,312,67,516,
0,505,472,310,66,510,
0,500,466,307,65,504,
0,495,462,304,65,499,
0,489,457,321,65,536,
0,534,452,319,64,529,
0,527,448,316,63,523,
0,521,444,312,63,519,
0,515,440,310,63,512,
0,510,435,307,62,507,
0,504,484,305,76,502,
0,499,478,303,76,496,
0,494,472,300,75,491,
0,489,467,297,75,486,
0,484,463,295,73,503,
0,526,457,322,73,502,
0,519,453,319,72,496,
0,512,449,316,71,491,
0,507,444,313,71,485,
0,500,440,310,71,480,
0,496,455,307,74,475,
0,489,470,305,73,472,
0,484,463,302,72,466,
0,480,459,300,71,462,
0,475,454,297,71,457,
0,476,449,329,71,499,
0,511,444,326,70,494,
0,504,440,323,70,488,
0,499,435,319,69,483,
0,494,432,316,68,478,
0,487,428,314,77,472,
0,483,423,312,76,467,
0,478,419,308,76,463,
0,472,415,306,75,458,
0,468,412,304,74,454,
0,463,409,326,73,511,
0,523,404,323,73,506,
0,516,401,319,72,500,
0,510,398,317,71,495,
0,505,393,315,71,489,
0,500,391,312,71,484,
0,495,454,310,71,479,
0,489,448,307,71,473,
0,484,444,304,70,468,
0,480,440,302,70,463,
0,474,435,326,69,515,
0,519,431,323,68,509,
0,513,427,321,67,503,
0,508,423,318,67,497,
0,502,418,315,67,492,
0,496,414,312,66,487,
0,491,519,310,72,482,
0,486,512,307,71,477,
0,481,505,305,71,472,
0,476,500,302,71,467,
0,472,494,300,70,504,
0,521,489,307,70,519,
0,515,483,304,69,513,
0,508,479,301,68,508,
0,503,473,299,67,502,
0,497,470,295,67,496,
0,492,465,294,73,491,
0,486,460,291,71,486,
0,481,455,289,71,480,
0,476,451,287,71,476,
0,472,446,284,71,472,
0,530,443,282,70,523,
0,524,438,280,70,516,
0,519,433,279,68,510,
0,514,429,276,68,504,
0,508,425,274,67,499,
0,503,431,271,87,493,
0,497,444,270,86,487,
0,492,440,268,85,483,
0,487,436,265,84,478,
0,481,432,263,83,472,
0,476,428,295,83,530,
0,537,423,292,83,524,
0,531,419,289,81,519,
0,524,415,287,81,513,
0,519,411,285,80,507,
0,512,408,283,80,502,
0,508,410,280,79,496,
0,503,406,278,79,491,
0,497,402,275,79,486,
0,492,399,273,78,480,
0,487,396,303,78,553,
0,545,391,311,77,546,
0,539,388,307,76,540,
0,532,385,305,76,534,
0,527,382,303,75,527,
0,520,379,300,75,521,
0,515,451,297,76,516,
0,508,445,295,75,511,
0,504,440,292,75,505,
0,498,435,290,74,500,
0,494,431,287,73,518,
0,550,427,315,72,543,
0,542,422,312,71,536,
0,536,417,308,71,530,
0,529,414,305,71,524,
0,524,409,303,70,518,
0,518,472,300,80,512,
0,511,467,297,79,507,
0,505,463,295,79,501,
0,500,457,292,79,496,
0,496,452,291,78,507,
0,555,448,311,77,536,
0,547,444,307,76,530,
0,540,439,305,76,524,
0,536,434,303,75,518,
0,529,430,300,74,512,
0,524,455,297,79,507,
0,518,480,295,79,501,
0,512,475,292,78,496,
0,507,469,290,77,491,
0,501,463,287,77,485,
0,496,460,310,76,503,
0,551,455,307,76,497,
0,545,451,304,75,492,
0,539,446,301,74,486,
0,532,441,298,73,483,
0,526,437,295,76,478,
0,520,497,294,75,472,
0,516,492,291,75,467,
0,511,486,289,73,463,
0,505,481,287,73,459,
0,499,476,313,72,508,
0,542,471,310,71,501,
0,536,465,307,71,496,
0,529,460,304,71,489,
0,523,457,301,71,484,
0,517,452,299,70,480,
0,511,497,295,86,474,
0,505,491,294,86,470,
0,499,485,291,85,465,
0,495,480,288,84,460,
0,489,475,315,83,519,
0,531,470,316,83,519,
0,526,464,312,82,514,
0,519,460,310,81,508,
0,513,455,307,80,503,
0,508,450,304,79,497,
0,503,545,302,88,492,
0,496,538,299,87,486,
0,491,534,295,87,481,
0,486,527,294,86,476,
0,481,520,291,85,472,
0,527,515,319,84,466,
0,521,510,316,83,463,
0,515,504,312,83,457,
0,510,499,310,82,454,
0,504,494,307,81,448,
0,499,519,305,82,444,
0,494,519,303,81,440,
0,488,512,300,81,436,
0,483,507,297,80,432,
0,479,500,295,79,428,
0,478,496,312,79,492,
0,534,489,309,79,487,
0,527,487,306,78,481,
0,520,481,304,77,476,
0,515,476,301,76,471,
0,509,472,299,79,465,
0,504,467,295,78,462,
0,498,462,294,77,457,
0,492,457,291,76,452,
0,488,453,289,76,448,
0,483,449,321,75,514,
0,556,444,318,75,507,
0,548,440,315,74,501,
0,542,435,312,73,496,
0,536,432,309,72,489,
0,529,428,306,72,484,
0,524,425,304,81,480,
0,518,421,301,80,474,
0,512,417,298,79,469,
0,506,414,295,79,464,
0,500,409,311,79,527,
0,564,406,307,78,537,
0,557,403,304,78,531,
0,551,399,303,77,524,
0,545,396,300,76,519,
0,539,391,297,76,513,
0,534,457,295,76,507,
0,527,451,291,75,502,
0,521,446,289,74,496,
0,515,441,287,73,491,
0,510,439,285,73,518,
0,579,433,312,72,532,
0,571,430,309,71,526,
0,563,424,306,71,519,
0,557,420,303,71,515,
0,551,416,300,71,510,
0,544,441,297,73,504,
0,540,435,295,73,499,
0,534,432,294,71,494,
0,527,427,291,71,487,
0,521,423,289,71,483,
0,517,418,321,71,499,
0,562,414,318,70,495,
0,555,409,315,70,488,
0,548,407,312,69,483,
0,542,403,310,68,478,
0,536,399,307,70,473,
0,530,453,304,70,468,
0,524,448,302,69,465,
0,518,443,299,68,460,
0,513,439,295,67,455,
0,521,435,332,67,516,
0,611,429,328,67,510,
0,603,425,326,66,504,
0,595,420,323,65,498,
0,588,416,319,65,492,
0,580,412,317,67,487,
0,574,428,314,67,481,
0,568,423,312,67,477,
0,561,420,308,66,472,
0,555,415,306,65,467,
0,548,412,325,65,540,
0,630,408,321,65,535,
0,621,404,318,63,527,
0,613,400,315,63,521,
0,606,396,313,63,515,
0,6StartUp!
127,555,576,268,97,508,
0,550,572,267,97,504,
0,547,567,265,97,502,
0,542,563,263,96,497,
0,537,558,270,96,536,
0,593,553,269,95,540,
0,587,549,267,95,536,
0,583,543,265,94,532,
0,577,542,263,94,527,
0,572,536,262,93,524,
0,566,531,259,92,518,
0,559,526,257,92,512,
0,552,563,255,91,506,
0,547,556,254,90,500,
0,542,549,252,89,495,
0,536,543,249,89,490,
0,530,536,286,88,537,
0,555,530,282,88,531,
0,547,524,280,87,524,
0,542,519,276,87,519,
0,536,515,275,86,513,
0,529,509,271,85,507,
0,524,552,270,86,502,
0,518,545,268,85,496,
0,512,539,265,84,492,
0,508,532,263,83,487,
0,502,527,263,83,518,
0,545,519,271,82,512,
0,539,514,268,81,505,
0,532,508,265,81,499,
0,526,504,263,80,494,
0,519,498,262,79,488,
0,514,569,260,81,486,
0,511,562,259,80,481,
0,505,557,255,79,476,
0,548,551,254,79,472,
0,553,543,252,79,515,
0,591,537,279,78,508,
0,583,531,275,78,504,
0,575,526,273,77,498,
0,569,519,271,76,492,
0,564,514,270,76,487,
0,558,560,267,116,482,
0,550,551,264,115,476,
0,543,545,262,114,471,
0,547,540,260,113,465,
0,548,533,257,112,508,
1,574,527,294,111,502,
1,567,520,291,110,496,
2,560,513,288,109,491,
3,552,508,286,108,485,
3,546,503,284,108,480,
3,540,566,281,120,475,
4,532,558,279,118,470,
4,527,551,275,117,463,
5,521,544,273,116,459,
5,515,539,299,115,508,
6,560,532,299,114,502,
6,551,526,295,113,496,
6,545,519,293,112,491,
6,539,513,291,111,486,
7,533,508,287,113,480,
7,527,608,285,121,475,
7,519,600,283,121,470,
7,513,591,280,120,463,
7,508,584,278,119,459,
7,504,577,299,118,511,
7,550,571,295,117,505,
7,543,563,292,116,499,
7,536,556,289,115,494,
7,529,550,287,113,487,
7,524,569,285,125,483,
7,518,719,283,123,478,
7,511,708,280,122,472,
7,505,699,277,121,467,
7,499,689,275,120,462,
7,496,681,307,120,511,
7,543,671,304,119,504,
7,537,660,302,118,499,
6,531,652,299,116,494,
7,525,644,295,115,487,
6,519,637,294,121,483,
6,513,629,291,120,478,
6,507,622,288,119,472,
6,500,615,286,119,466,
6,496,608,283,118,463,
6,540,600,318,116,518,
6,547,593,315,115,511,
6,540,585,312,115,505,
6,534,579,308,113,499,
5,527,572,305,113,494,
5,521,609,304,123,488,
5,515,600,300,121,483,
6,508,593,298,120,478,
5,504,585,295,120,472,
5,499,579,292,119,519,
5,561,572,312,118,524,
5,553,566,309,116,518,
4,547,558,306,115,512,
4,540,551,304,115,506,
4,535,546,301,114,500,
4,528,590,299,113,495,
4,523,582,295,112,489,
4,515,575,294,112,484,
4,510,568,291,111,478,
4,504,561,301,110,548,
4,557,555,316,109,540,
3,550,547,312,108,534,
3,543,540,310,108,527,
4,536,535,307,107,521,
3,531,529,304,109,516,
3,524,552,302,124,510,
3,519,545,299,123,504,
3,512,539,295,122,499,
3,506,533,294,121,492,
3,501,527,331,120,536,
3,563,521,327,120,529,
3,556,515,323,118,524,
3,550,510,319,117,518,
3,543,504,318,116,511,
3,537,499,315,121,505,
3,531,551,312,120,500,
3,525,543,309,119,495,
3,518,537,306,118,489,
3,512,531,304,118,483,
3,507,526,328,116,527,
3,546,519,325,115,519,
3,540,514,322,115,514,
3,533,507,319,113,508,
3,527,502,316,113,503,
3,521,564,313,119,497,
3,515,669,311,117,492,
2,510,660,307,116,487,
3,503,652,304,115,481,
3,497,643,302,114,475,
3,540,635,323,113,524,
2,555,627,319,112,519,
2,548,619,316,112,512,
2,542,609,313,111,507,
3,536,603,311,110,500,
3,529,636,308,117,496,
2,523,627,305,116,489,
2,518,619,303,115,484,
2,510,611,300,114,480,
2,504,604,297,113,505,
2,554,596,320,112,502,
2,547,589,318,112,496,
1,540,583,315,111,491,
2,534,574,312,110,486,
1,527,568,309,109,480,
2,522,600,307,120,475,
1,515,591,304,119,470,
1,510,584,301,118,465,
1,504,577,297,116,460,
1,498,571,306,115,519,
1,554,564,318,115,512,
1,547,558,316,113,506,
1,540,551,312,113,500,
1,534,543,310,112,495,
1,527,538,307,112,489,
1,521,555,304,120,483,
1,515,548,302,118,479,
1,510,542,300,117,473,
1,504,536,295,116,468,
1,498,530,310,115,521,
1,545,524,305,115,515,
1,538,519,303,113,509,
1,531,513,300,113,504,
1,526,507,297,112,497,
1,519,502,295,113,492,
1,514,552,292,112,487,
0,508,546,290,112,481,
0,503,540,287,111,476,
0,496,534,285,110,470,
1,492,527,308,109,521,
0,548,521,305,108,515,
0,542,515,303,108,509,
0,536,510,300,106,504,
0,529,503,297,105,497,
0,523,515,295,108,492,
0,517,581,291,107,487,
0,511,574,289,105,481,
0,505,567,287,105,476,
0,499,560,284,103,471,
0,526,553,312,103,519,
0,537,547,309,103,514,
0,531,540,307,102,508,
0,524,535,304,101,502,
0,519,527,301,100,496,
0,512,556,299,103,491,
0,507,548,295,102,486,
0,502,541,294,101,480,
0,496,535,291,100,476,
0,489,528,287,99,471,
0,537,523,300,99,527,
0,532,516,297,98,520,
0,526,511,295,97,515,
0,519,505,291,96,508,
0,514,500,289,96,504,
0,508,551,287,107,497,
0,503,584,284,106,492,
0,497,577,283,105,487,
0,492,571,280,103,481,
0,486,563,277,103,476,
0,539,557,307,103,528,
0,531,551,304,102,522,
0,524,543,302,101,516,
0,519,537,299,100,510,
0,513,531,295,99,504,
0,508,571,294,104,499,
0,502,612,291,103,493,
0,496,604,288,103,487,
0,491,597,286,102,483,
0,486,590,284,101,496,
0,536,583,310,100,542,
0,531,575,306,99,535,
0,526,569,304,99,528,
0,521,563,301,97,523,
0,515,556,299,97,516,
0,510,555,295,97,511,
0,504,548,294,96,505,
0,498,542,291,96,499,
0,493,536,288,95,494,
0,487,530,286,95,489,
0,524,526,313,94,536,
0,537,520,311,94,530,
0,531,515,307,93,524,
0,525,510,305,92,518,
0,519,504,302,92,513,
0,513,499,300,103,507,
0,507,552,297,103,500,
0,502,545,295,102,496,
0,496,540,292,100,491,
0,491,533,289,100,485,
0,508,525,312,99,532,
0,537,519,310,98,526,
0,531,515,307,97,520,
0,524,509,304,97,514,
0,519,504,301,96,508,
0,513,499,299,112,503,
0,507,529,295,111,497,
0,502,524,294,109,492,
0,496,515,291,108,487,
0,491,510,288,108,481,
0,491,504,304,107,539,
0,540,499,300,105,532,
0,534,494,297,104,526,
0,526,488,295,103,519,
0,519,483,291,103,512,
0,515,495,289,117,507,
0,508,493,287,116,501,
0,504,487,285,115,496,
0,497,481,283,113,491,
0,492,476,280,113,492,
0,543,472,295,112,537,
0,551,467,294,111,531,
0,544,463,291,110,524,
0,536,458,287,110,518,
0,530,454,285,108,512,
0,525,604,283,110,506,
0,519,615,280,108,500,
0,513,606,278,108,495,
0,507,597,275,107,489,
0,502,590,273,105,553,
0,559,583,286,104,554,
0,551,575,284,103,547,
0,545,568,281,103,540,
0,536,562,278,103,533,
0,531,556,275,102,527,
0,525,624,273,106,520,
0,519,615,271,105,515,
0,513,608,269,103,510,
0,508,598,267,103,504,
0,502,591,285,103,560,
0,563,583,283,102,552,
0,556,576,280,100,545,
0,550,570,278,100,540,
0,542,563,275,99,533,
0,536,558,273,105,527,
0,529,590,270,105,519,
0,524,583,268,103,514,
0,518,575,265,103,508,
0,512,568,263,103,504,
0,507,562,295,102,499,
0,565,553,291,100,493,
0,558,547,289,99,487,
0,551,542,286,99,483,
0,544,536,284,99,478,
0,538,531,281,99,473,
0,532,532,279,110,468,
0,526,525,276,109,463,
0,520,519,274,108,459,
0,515,514,271,107,455,
0,509,509,294,105,489,
0,569,504,290,105,484,
0,560,498,287,103,479,
0,553,493,284,103,472,
0,547,487,281,103,467,
0,540,483,280,108,462,
0,535,544,276,107,457,
0,527,536,275,105,452,
0,523,530,271,104,448,
0,517,524,270,103,444,
0,512,518,297,103,494,
0,562,512,294,102,487,
0,553,506,291,102,483,
0,547,500,288,100,476,
0,540,496,286,99,471,
0,535,494,284,105,465,
0,528,529,281,103,461,
0,523,523,279,103,455,
0,516,518,276,103,451,
0,511,510,273,101,448,
0,543,504,293,100,507,
0,553,499,291,99,501,
0,547,493,287,99,496,
0,540,487,285,98,489,
0,534,483,283,97,484,
0,527,480,280,98,480,
0,522,515,278,97,473,
0,516,509,275,96,469,
0,511,504,273,96,463,
0,505,497,271,95,460,
0,522,492,286,94,517,
0,551,487,283,94,511,
0,543,481,281,93,504,
0,539,476,279,92,499,
0,532,472,276,92,494,
0,527,467,273,102,487,
0,520,520,271,100,483,
0,515,515,269,99,478,
0,509,508,267,99,472,
0,504,503,264,98,467,
0,499,497,289,97,523,
0,555,492,286,96,516,
0,548,487,283,96,510,
0,542,481,280,95,504,
0,536,477,278,94,499,
0,529,472,275,94,494,
0,523,489,273,103,487,
0,518,483,271,102,483,
0,512,476,268,101,478,
0,506,472,267,100,472,
0,500,467,287,99,534,
0,560,462,283,99,527,
0,552,457,280,98,521,
0,545,453,278,97,515,
0,540,450,275,96,510,
0,534,446,273,96,504,
0,527,519,271,103,498,
0,521,512,268,102,492,
0,515,504,267,101,487,
0,510,499,263,100,482,
0,504,494,292,99,547,
0,567,487,287,99,540,
0,560,483,286,98,532,
0,552,478,283,97,527,
0,546,473,280,96,520,
0,540,468,278,96,515,
0,534,523,275,99,509,
0,527,515,273,98,504,
0,521,510,271,97,499,
0,516,504,269,97,494,
0,511,499,268,96,541,
0,568,493,295,96,544,
0,560,487,292,95,538,
0,552,482,289,94,531,
0,547,477,287,93,526,
0,540,472,284,92,519,
0,535,527,282,97,513,
0,527,519,280,96,508,
0,522,515,277,96,503,
0,516,510,275,95,497,
0,511,504,272,95,502,
0,580,498,298,94,514,
0,572,492,295,93,510,
0,565,487,292,92,504,
0,559,482,290,92,498,
0,553,477,287,91,492,
0,547,505,286,91,487,
0,540,513,284,90,483,
0,535,508,281,89,478,
0,528,502,279,89,472,
0,523,496,276,88,467,
0,519,491,288,88,524,
0,583,487,286,87,518,
0,577,481,284,86,512,
0,569,476,281,86,506,
0,563,472,279,86,500,
0,556,467,276,88,496,
0,550,539,273,87,491,
0,543,531,271,87,486,
0,540,526,270,86,480,
0,534,519,268,85,476,
0,527,513,284,84,507,
0,590,508,280,84,500,
0,582,502,279,83,495,
0,574,496,275,83,489,
0,568,492,273,82,483,
0,561,487,271,81,479,
0,555,566,269,83,473,
0,547,558,267,82,468,
0,542,551,263,81,463,
0,536,544,263,81,460,
0,529,538,290,80,508,
0,586,532,287,79,504,
0,579,526,284,79,498,
0,574,519,282,79,492,
0,567,515,280,78,487,
0,560,509,278,77,481,
0,553,568,275,90,476,
0,547,560,272,89,472,
0,540,552,270,88,467,
0,535,547,268,88,462,
0,528,542,265,88,499,
0,588,536,291,87,508,
0,579,529,289,86,502,
0,572,523,287,85,497,
0,566,518,284,84,492,
0,559,512,281,83,487,
0,551,583,280,92,481,
0,547,595,277,91,476,
0,541,588,275,90,471,
0,536,581,272,89,466,
0,529,574,270,88,462,
0,532,568,286,88,529,
0,579,560,283,88,523,
0,572,553,280,87,516,
0,566,549,278,86,511,
0,559,543,275,86,504,
0,552,537,273,92,499,
0,546,588,271,90,494,
0,540,581,268,89,489,
0,534,574,265,88,484,
0,527,568,263,88,480,
0,524,561,287,88,526,
0,572,553,284,87,519,
0,564,547,281,86,513,
0,557,541,280,86,508,
0,551,536,277,84,502,
0,543,529,275,92,496,
0,538,524,272,91,491,
0,532,519,270,89,485,
0,526,514,268,89,480,
0,520,508,265,88,475,
0,515,504,291,88,526,
0,582,497,287,87,520,
0,574,492,285,86,515,
0,568,487,283,86,508,
0,562,483,280,85,503,
0,556,478,278,84,497,
0,550,598,275,91,492,
0,543,589,273,89,487,
0,536,582,271,89,481,
0,531,574,269,88,476,
0,525,568,267,88,518,
0,583,563,291,87,518,
0,575,556,289,86,512,
0,568,550,286,86,506,
0,561,543,284,85,500,
0,555,537,281,84,496,
0,548,582,279,99,491,
0,542,574,276,98,486,
0,536,566,275,97,480,
0,531,560,272,96,476,
0,526,553,270,96,471,
0,540,547,288,95,543,
0,581,540,286,94,536,
0,574,534,283,93,529,
0,567,527,280,92,524,
0,560,524,278,92,518,
0,553,518,275,96,512,
0,547,566,273,95,506,
0,541,559,271,95,500,
0,535,551,268,94,496,
0,529,545,267,93,492,
0,526,540,304,92,543,
0,572,533,300,92,536,
0,567,527,298,91,529,
0,560,521,295,90,524,
0,553,515,292,89,518,
0,547,510,290,91,512,
0,540,564,287,90,506,
0,534,557,286,89,500,
0,527,551,283,88,495,
0,523,545,280,88,489,
0,517,539,283,88,545,
0,572,532,280,87,538,
0,565,527,278,86,531,
0,559,520,275,86,527,
0,551,515,273,85,521,
0,545,509,271,84,515,
0,540,505,269,99,510,
0,535,499,267,99,504,
0,528,495,265,98,499,
0,523,489,263,97,493,
0,517,484,260,96,541,
0,561,480,295,96,533,
0,554,475,292,95,527,
0,547,472,289,94,521,
0,542,467,287,93,515,
0,536,463,284,92,510,
0,529,583,282,102,504,
0,523,620,280,100,498,
0,517,611,277,99,492,
0,512,603,275,99,487,
0,506,595,272,98,531,
0,556,588,297,97,531,
0,549,582,295,96,526,
0,542,575,291,96,519,
0,536,568,289,95,514,
0,531,561,287,94,508,
0,526,586,284,99,503,
0,519,578,282,98,497,
0,513,571,280,97,492,
0,508,564,278,96,487,
0,503,558,275,96,481,
0,510,551,303,95,537,
0,555,547,300,95,531,
0,547,540,297,94,524,
0,541,534,295,93,519,
0,535,528,292,92,512,
0,528,523,290,96,508,
0,523,572,287,95,503,
0,516,566,284,94,497,
0,512,559,283,94,492,
0,507,551,280,93,487,
0,502,547,294,92,534,
0,558,540,290,92,527,
0,551,533,287,91,521,
0,544,527,285,90,515,
0,538,521,283,89,509,
0,531,518,280,88,504,
0,526,583,278,89,498,
0,519,575,275,88,492,
0,515,568,273,88,487,
0,508,561,271,88,483,
0,504,555,298,87,516,
0,560,547,295,86,508,
0,555,542,292,86,503,
0,548,536,289,84,497,
0,542,529,287,84,492,
0,536,524,284,83,486,
0,529,555,283,93,481,
0,524,548,280,92,476,
0,518,542,278,92,472,
0,512,536,275,91,466,
0,507,530,273,90,519,
0,571,524,289,89,532,
0,563,519,286,88,527,
0,556,513,284,88,521,
0,550,508,281,88,515,
0,543,502,279,87,510,
0,537,497,276,90,504,
0,532,492,275,89,499,
0,526,487,271,88,494,
0,520,483,270,88,487,
0,515,478,268,87,483,
0,524,473,281,87,540,
0,568,468,279,86,532,
0,560,465,276,85,526,
0,553,460,274,84,519,
0,547,455,271,83,514,
0,541,451,270,86,508,
0,535,481,267,85,504,
0,528,476,265,84,499,
0,523,470,263,83,494,
0,517,465,262,83,487,
0,513,460,259,82,553,
0,569,455,257,82,546,
0,563,451,255,81,540,
0,556,447,253,80,534,
0,549,442,251,79,527,
0,543,439,249,104,521,
0,536,577,248,103,515,
0,531,569,246,102,510,
0,524,563,243,102,504,
0,518,556,242,100,499,
0,512,550,280,99,548,
0,566,543,278,99,542,
0,560,536,275,98,536,
0,553,531,273,97,529,
0,547,524,271,96,523,
0,541,519,268,102,518,
0,535,551,266,100,511,
0,528,543,263,99,505,
0,523,537,262,99,500,
0,517,531,259,98,495,
0,512,526,292,97,542,
0,564,519,289,96,535,
0,558,514,287,96,528,
0,551,508,284,96,522,
0,543,504,281,95,516,
0,538,499,280,94,511,
0,532,557,277,94,504,
0,526,550,275,93,499,
0,519,543,272,92,495,
0,515,537,270,92,489,
0,509,531,291,91,526,
0,569,524,294,90,528,
0,562,519,291,89,522,
0,556,513,288,89,516,
0,548,507,286,88,510,
0,542,502,284,88,504,
0,536,571,281,92,499,
0,529,563,279,91,494,
0,524,558,276,90,488,
0,518,551,274,89,483,
0,512,545,271,88,479,
0,568,539,297,88,473,
0,560,532,295,88,470,
0,553,526,292,87,464,
0,547,520,289,86,460,
0,542,515,287,86,455,
0,536,551,285,86,451,
0,529,568,283,85,447,
0,524,560,280,84,443,
0,518,553,278,84,439,
0,512,547,275,83,435,
0,507,541,294,83,476,
0,572,536,291,82,471,
0,564,530,287,81,465,
0,558,524,286,81,460,
0,551,519,283,80,455,
0,545,513,280,88,452,
0,539,563,278,88,448,
0,532,556,275,87,443,
0,526,549,274,86,439,
0,522,543,271,86,434,
0,516,536,298,84,506,
0,571,530,295,83,499,
0,563,524,291,83,494,
0,557,519,289,83,487,
0,551,512,287,81,483,
0,543,508,284,81,478,
0,537,575,281,85,472,
0,531,568,280,84,467,
0,526,560,276,83,463,
0,519,553,275,83,460,
0,514,547,291,83,509,
0,577,541,287,81,508,
0,570,535,286,81,502,
0,564,527,284,80,496,
0,558,523,281,79,491,
0,551,517,279,79,486,
0,545,565,275,79,480,
0,539,558,273,78,475,
0,532,551,271,78,470,
0,527,544,269,77,465,
0,521,540,267,76,504,
0,588,534,291,76,518,
0,580,527,288,76,511,
0,573,521,286,75,507,
0,566,515,284,75,502,
0,560,510,281,73,496,
0,553,540,280,80,490,
0,547,534,276,79,485,
0,542,527,274,79,480,
0,536,521,271,79,475,
0,529,515,270,78,470,
0,524,509,296,77,516,
0,572,504,294,76,510,
0,566,498,291,76,504,
0,559,495,288,76,498,
0,551,489,286,75,493,
0,545,484,284,87,487,
0,540,540,281,86,482,
0,533,534,279,85,478,
0,527,527,276,84,473,
0,521,521,274,83,468,
0,518,516,286,83,529,
0,574,510,282,82,523,
0,567,504,280,81,516,
0,560,499,278,81,511,
0,553,494,275,80,504,
0,547,487,272,87,499,
0,540,662,270,86,494,
0,534,653,268,86,487,
0,527,644,265,84,483,
0,523,636,263,83,478,
0,516,627,291,83,530,
0,569,620,287,83,524,
0,563,612,284,82,519,
0,556,605,282,81,512,
0,551,598,280,80,507,
0,544,591,278,81,501,
0,538,630,275,103,496,
0,531,621,273,103,490,
0,524,614,271,103,485,
0,519,606,268,102,479,
0,513,599,275,101,539,
0,586,591,272,100,531,
0,579,584,270,99,525,
0,572,577,268,99,519,
0,564,571,265,97,513,
0,558,564,263,97,509,
0,551,560,262,99,503,
0,545,553,259,99,497,
0,539,547,257,97,492,
0,535,541,255,97,487,
0,528,536,254,96,507,
0,583,529,282,95,524,
0,575,524,280,95,519,
0,568,519,277,94,512,
0,561,513,275,93,507,
0,555,508,271,92,501,
0,549,527,270,94,496,
0,543,519,268,93,489,
0,536,514,265,92,484,
0,530,508,263,92,480,
0,524,503,261,91,476,
0,575,497,284,90,523,
0,567,492,282,89,516,
0,561,487,280,88,510,
0,555,483,278,88,504,
0,547,479,275,88,499,
0,542,510,273,89,493,
0,536,540,270,89,487,
0,529,534,268,88,482,
0,524,527,265,88,477,
0,518,523,263,87,472,
0,512,516,286,86,497,
0,562,511,283,86,492,
0,555,505,280,85,486,
0,548,499,278,84,482,
0,542,494,275,83,477,
0,536,489,273,84,472,
0,531,550,271,83,467,
0,525,542,269,83,462,
0,519,536,267,83,457,
0,513,529,263,82,453,
0,508,524,289,81,521,
0,560,518,287,81,515,
0,553,512,284,80,508,
0,547,508,281,79,503,
0,540,502,280,79,497,
0,535,496,277,79,492,
0,528,504,275,83,486,
0,523,499,271,83,482,
0,516,493,270,82,477,
0,511,487,268,82,472,
0,505,483,265,81,511,
0,556,478,282,80,524,
0,548,473,280,79,518,
0,542,468,277,79,512,
0,536,463,275,79,505,
0,529,460,272,78,500,
0,524,514,270,84,495,
0,518,509,268,84,489,
0,512,503,265,83,484,
0,506,497,263,83,480,
0,501,492,261,82,483,
0,573,487,281,81,502,
0,566,480,279,80,496,
0,559,476,276,79,491,
0,551,471,274,79,485,
0,547,465,271,79,480,
0,540,496,270,85,475,
0,535,515,268,84,470,
0,527,509,264,83,464,
0,523,504,263,83,460,
0,516,497,260,82,455,
0,512,492,285,81,515,
0,568,487,282,81,508,
0,561,483,280,80,503,
0,555,478,277,79,496,
0,548,472,275,79,491,
0,542,467,272,81,487,
0,536,532,270,79,481,
0,529,526,268,79,476,
0,525,519,265,78,472,
0,519,514,263,78,467,
0,513,508,289,77,534,
0,572,503,286,76,526,
0,565,496,284,76,519,
0,559,492,281,76,514,
0,551,486,279,76,508,
0,545,482,275,75,503,
0,539,505,273,84,497,
0,532,499,271,83,492,
0,527,493,269,83,487,
0,520,487,267,82,483,
0,515,482,288,81,529,
0,575,477,294,80,540,
0,570,472,292,79,533,
0,563,467,289,79,527,
0,556,462,287,79,520,
0,550,457,284,78,515,
0,543,508,281,87,509,
0,537,502,280,86,504,
0,531,496,277,85,498,
0,526,492,275,84,493,
0,519,487,272,83,521,
0,583,481,295,83,545,
0,575,476,291,83,540,
0,568,471,289,81,535,
0,561,465,287,81,528,
0,555,461,284,80,523,
0,550,536,283,81,516,
0,543,603,280,81,511,
0,537,595,278,80,505,
0,531,587,275,79,499,
0,525,579,273,79,495,
0,519,573,284,79,540,
0,574,567,281,78,532,
0,567,561,279,77,526,
0,560,555,276,76,520,
0,553,548,274,76,515,
0,547,543,271,88,508,
0,540,536,270,87,504,
0,534,531,268,86,499,
0,528,524,265,85,494,
0,523,519,263,84,488,
0,519,513,286,83,483,
0,574,508,283,83,478,
0,567,503,280,82,473,
0,560,497,277,81,468,
0,553,492,275,81,463,
0,547,487,272,88,460,
0,540,536,270,87,455,
0,534,528,268,86,450,
0,527,522,265,86,446,
0,522,516,263,84,441,
0,516,511,263,84,489,
0,575,504,262,83,486,
0,568,499,259,83,480,
0,560,494,257,82,475,
0,556,488,255,81,470,
0,549,483,254,81,464,
0,543,559,252,95,460,
0,536,551,249,94,455,
0,531,545,248,92,450,
0,524,539,246,92,446,
0,519,532,243,92,448,
0,574,527,246,91,449,
0,566,521,243,90,444,
0,559,515,241,89,440,
0,552,510,240,88,435,
0,546,504,238,88,432,
0,540,540,236,102,428,
0,534,553,235,101,423,
0,527,547,233,100,419,
0,521,540,231,99,415,
0,516,534,230,99,441,
0,582,527,229,98,469,
0,573,521,227,97,465,
0,567,515,226,96,460,
0,560,510,224,96,455,
0,555,504,224,95,450,
0,548,568,222,107,446,
0,540,651,220,105,440,
0,534,642,219,103,435,
0,527,633,216,103,431,
0,523,625,216,103,444,
0,572,618,220,102,486,
0,569,608,219,100,481,
0,563,601,217,99,476,
0,556,594,216,99,471,
0,549,588,214,99,465,
0,543,603,212,109,460,
0,536,637,211,108,455,
0,531,627,209,107,451,
0,524,619,208,105,446,
0,519,611,207,105,441,
0,556,604,207,103,451,
0,568,596,205,103,446,
0,561,589,204,103,440,
0,555,582,202,102,435,
0,548,575,201,100,432,
0,542,630,199,105,428,
0,536,620,199,104,423,
0,529,610,197,103,419,
0,524,603,196,103,415,
0,518,595,195,102,414,
0,583,588,193,101,417,
0,574,582,192,100,412,
0,567,575,191,99,408,
0,560,568,190,99,406,
0,555,561,189,98,401,
0,548,647,188,112,398,
0,540,638,186,111,395,
0,535,629,185,111,391,
0,528,621,184,110,388,
0,523,613,183,109,444,
0,580,606,182,108,438,
0,572,599,181,107,432,
0,566,590,180,105,428,
0,559,583,179,105,423,
0,551,575,177,106,419,
0,546,619,176,115,415,
0,539,610,176,114,411,
0,532,602,174,113,406,
0,526,595,173,112,402,
0,520,588,185,111,423,
0,575,580,184,110,419,
0,568,574,182,110,415,
0,560,566,180,108,411,
0,553,559,179,108,407,
0,547,553,177,126,403,
0,541,606,176,124,399,
0,533,598,175,123,395,
0,527,591,173,121,391,
0,521,583,172,120,387,
0,516,577,180,120,408,
0,568,570,179,119,404,
0,561,561,177,118,400,
0,555,555,176,116,396,
0,547,548,175,115,392,
0,542,563,174,130,388,
0,536,619,172,129,385,
0,527,611,171,127,382,
0,521,603,169,126,378,
0,516,595,167,125,376,
0,543,588,167,124,430,
0,572,581,167,123,425,
0,566,572,167,122,420,
0,558,566,166,121,416,
0,551,560,164,120,412,
0,545,626,163,124,408,
0,539,624,162,122,403,
0,531,615,161,121,399,
0,526,608,159,120,395,
0,519,600,159,120,428,
0,583,593,159,119,443,
0,575,586,159,118,438,
0,568,577,158,116,433,
0,561,571,156,115,428,
0,554,564,156,115,424,
0,548,617,155,121,420,
0,542,609,153,120,415,
0,534,601,153,120,412,
0,527,593,152,118,407,
0,521,587,151,118,456,
0,583,579,151,116,451,
0,575,572,150,115,446,
0,568,564,149,115,440,
0,561,558,148,113,436,
0,555,551,147,113,432,
0,548,622,146,114,428,
0,542,614,145,113,423,
0,535,606,144,112,419,
0,528,599,143,111,414,
0,523,591,148,110,455,
0,575,583,147,110,450,
0,569,577,145,108,444,
0,562,568,144,108,440,
0,556,562,143,107,435,
0,549,556,143,127,431,
0,543,568,142,125,427,
0,536,560,141,124,423,
0,529,553,140,123,418,
0,523,547,139,122,413,
0,518,542,141,121,440,
0,563,536,140,120,435,
0,556,529,139,120,430,
0,550,523,138,118,425,
0,543,518,137,118,422,
0,537,524,135,125,417,
0,531,578,135,124,413,
0,524,571,135,123,409,
0,518,563,134,122,405,
0,512,557,133,121,400,
0,540,551,134,120,435,
0,574,543,132,119,430,
0,567,537,131,118,426,
0,560,531,131,117,422,
0,553,524,130,116,417,
0,547,608,129,118,413,
0,540,627,129,117,408,
0,534,619,127,116,404,
0,527,611,127,115,401,
0,520,604,126,114,415,
0,585,596,140,113,427,
0,577,588,139,112,423,
0,569,582,137,112,418,
0,563,574,135,111,414,
0,556,567,135,110,409,
0,550,600,134,115,406,
0,543,591,133,114,401,
0,537,583,131,113,398,
0,529,577,131,112,394,
0,524,570,131,111,390,
0,571,563,145,110,386,
0,563,557,143,110,383,
0,557,551,143,109,379,
0,551,543,142,108,376,
0,543,537,140,107,372,
0,537,595,140,109,369,
0,531,587,138,108,367,
0,526,579,137,107,364,
0,519,572,135,106,361,
0,513,566,147,105,412,
0,572,559,145,104,407,
0,566,551,144,103,403,
0,558,545,143,103,398,
0,551,538,142,102,394,
0,545,532,141,108,391,
0,539,545,140,107,387,
0,532,539,139,106,384,
0,527,532,137,105,380,
0,519,527,135,104,376,
0,515,521,135,103,426,
0,582,515,134,103,422,
0,575,510,133,102,417,
0,568,504,131,102,412,
0,561,499,131,100,408,
0,555,505,130,104,404,
0,547,572,129,103,399,
0,542,566,127,103,396,
0,536,559,127,102,392,
0,527,551,126,101,388,
0,551,546,126,100,415,
0,583,539,124,99,412,
0,575,533,124,99,408,
0,569,527,123,98,404,
0,563,521,122,97,399,
0,558,515,122,103,396,
0,550,510,121,103,391,
0,543,504,120,103,387,
0,537,499,120,102,384,
0,531,494,119,101,380,
0,536,489,137,100,423,
0,572,483,135,99,419,
0,565,479,135,99,415,
0,559,475,134,97,411,
0,551,470,133,97,407,
0,545,465,132,103,403,
0,539,468,131,103,399,
0,533,463,130,102,395,
0,527,457,129,100,391,
0,521,454,127,99,387,
0,521,449,140,99,431,
0,575,445,140,98,427,
0,568,442,138,97,422,
0,561,438,137,97,417,
0,555,434,135,96,414,
0,548,431,135,98,409,
0,542,440,134,97,406,
0,536,435,132,96,402,
0,529,431,131,96,399,
0,524,428,131,95,395,
0,519,423,130,95,433,
0,587,419,129,94,428,
0,579,415,127,93,423,
0,572,412,127,92,419,
0,566,409,126,92,415,
0,559,406,125,111,411,
0,551,456,124,111,407,
0,545,451,123,110,403,
0,540,446,122,109,399,
0,534,441,121,108,395,
0,526,437,121,108,391,
0,591,432,120,107,387,
0,583,428,119,105,384,
0,577,423,119,104,380,
0,570,419,118,103,376,
0,563,414,117,122,373,
0,557,463,116,120,369,
0,551,459,115,120,366,
0,543,454,115,119,363,
0,536,448,114,118,359,
0,542,444,114,116,390,
0,595,440,113,115,385,
0,588,435,112,115,382,
0,580,431,112,114,378,
0,574,426,111,113,375,
0,568,481,111,139,371,
0,560,511,110,137,368,
0,553,504,109,135,364,
0,547,499,108,135,360,
0,540,494,108,134,358,
0,596,487,107,132,371,
0,598,483,107,131,368,
0,591,478,106,130,364,
0,583,472,105,129,361,
0,576,467,104,127,358,
0,570,543,103,137,355,
0,563,535,103,135,352,
0,556,527,103,135,349,
0,550,521,102,134,347,
0,543,515,102,133,344,
0,613,510,114,131,341,
0,604,504,113,131,339,
0,596,499,112,129,335,
0,590,494,112,129,334,
0,583,487,110,127,331,
0,575,569,110,161,328,
0,568,561,108,159,326,
0,562,554,108,158,323,
0,556,547,107,157,321,
0,547,541,106,156,332,
0,619,535,105,154,332,
0,611,528,104,153,329,
0,603,523,103,152,327,
0,595,517,103,151,323,
0,588,511,102,150,320,
0,582,572,102,160,318,
0,574,564,101,159,316,
0,568,558,100,158,313,
0,561,551,99,156,312,
0,555,545,99,155,310,
0,616,539,99,153,307,
0,608,532,98,152,305,
0,600,526,97,152,304,
0,593,520,96,151,302,
0,587,516,96,150,300,
0,579,577,96,158,297,
0,572,569,95,156,295,
0,566,563,95,155,294,
0,560,556,94,153,291,
0,553,550,94,152,312,
0,617,543,93,151,335,
0,609,536,92,150,332,
0,604,530,92,148,328,
0,596,524,92,147,326,
0,589,519,91,147,323,
0,583,641,90,172,319,
0,575,637,89,171,317,
0,568,628,89,169,315,
0,562,623,89,167,312,
0,556,615,88,166,309,
0,607,608,88,165,321,
0,605,600,88,163,318,
0,598,592,87,162,316,
0,590,585,87,161,312,
0,583,579,86,159,310,
0,575,580,86,167,307,
0,571,599,85,165,304,
0,564,591,84,163,302,
0,558,583,84,163,300,
0,551,577,83,161,297,
0,545,571,83,160,327,
0,609,563,83,159,324,
0,601,557,82,158,321,
0,593,552,81,156,319,
0,586,547,81,156,316,
0,579,541,81,163,312,
0,572,650,80,163,310,
0,566,641,79,162,307,
0,560,632,79,160,305,
0,553,624,79,159,303,
0,548,617,79,158,342,
0,611,609,78,157,337,
0,604,601,78,156,335,
0,595,594,78,154,332,
0,588,588,77,153,327,
0,582,580,76,152,326,
0,575,679,76,165,322,
0,568,671,76,163,319,
0,561,664,75,162,316,
0,555,655,75,161,313,
0,548,646,76,159,318,
0,617,638,76,159,315,
0,609,630,76,157,312,
0,601,623,75,156,310,
0,595,615,75,155,307,
0,588,608,74,153,304,
0,582,729,73,166,302,
0,575,725,73,164,299,
0,568,715,72,163,296,
0,561,704,71,162,294,
0,555,696,71,161,292,
0,615,688,96,159,292,
0,608,679,96,158,290,
0,600,671,95,158,287,
0,592,662,94,156,286,
0,585,654,93,155,284,
0,579,710,92,156,283,
0,572,774,92,155,280,
0,568,762,91,153,279,
0,560,752,90,152,276,
0,554,740,89,152,275,
0,548,731,88,151,310,
0,614,719,88,150,306,
0,606,711,88,148,304,
0,599,701,87,147,300,
0,591,694,86,146,297,
0,584,686,86,163,295,
0,577,684,85,161,292,
0,571,675,84,159,290,
0,564,667,83,159,287,
0,558,659,83,158,286,
0,551,652,82,156,321,
0,615,643,81,155,318,
0,608,636,81,153,315,
0,600,628,80,152,312,
0,593,621,79,152,309,
0,587,614,79,156,307,
0,579,665,79,157,304,
0,572,656,78,156,301,
0,566,649,78,154,299,
0,560,641,77,153,295,
0,553,633,77,152,345,
0,612,625,76,151,342,
0,604,617,76,150,339,
0,596,610,75,148,335,
0,589,603,75,147,332,
0,582,596,74,146,329,
0,577,659,73,150,327,
0,570,649,73,148,323,
0,563,641,72,147,319,
0,557,633,71,146,318,
0,551,624,71,145,343,
0,617,617,71,144,364,
0,608,609,71,143,359,
0,600,604,71,142,356,
0,592,596,70,141,353,
0,585,590,70,140,350,
0,579,655,70,143,347,
0,572,684,68,143,344,
0,565,675,68,141,341,
0,559,666,68,140,338,
0,554,657,67,139,335,
0,548,649,78,138,367,
0,615,639,77,137,363,
0,608,632,76,135,359,
0,600,624,76,135,356,
0,593,617,75,135,353,
0,586,611,75,143,350,
0,579,623,73,141,346,
0,572,615,73,140,344,
0,566,608,72,139,340,
0,560,600,71,138,337,
0,553,593,89,136,384,
0,619,586,88,135,380,
0,610,579,88,135,376,
0,604,574,88,134,371,
0,598,568,87,132,368,
0,590,561,86,135,365,
0,583,602,85,135,361,
0,575,594,84,134,358,
0,569,587,83,134,355,
0,563,579,83,132,352,
0,556,575,98,131,387,
0,607,568,97,131,382,
0,599,561,96,129,378,
0,591,555,95,127,375,
0,583,549,94,127,371,
0,577,543,93,127,368,
0,571,537,92,142,365,
0,564,532,92,141,361,
0,559,527,92,140,358,
0,552,521,91,139,355,
0,547,516,90,137,352,
0,611,511,90,136,348,
0,602,506,89,135,345,
0,595,502,89,135,343,
0,587,497,88,134,339,
0,580,493,88,132,336,
0,574,529,87,134,334,
0,567,543,87,132,331,
0,560,537,86,131,328,
0,553,531,85,130,326,
0,547,525,84,129,323,
0,607,519,96,128,376,
0,600,513,95,127,371,
0,591,508,94,127,368,
0,584,502,93,126,364,
0,577,497,92,125,359,
0,571,519,92,131,357,
0,564,536,91,129,354,
0,558,530,90,128,351,
0,551,525,89,127,348,
0,545,519,89,127,344,
0,540,513,110,126,342,
0,598,508,108,124,339,
0,590,502,107,124,335,
0,583,495,107,123,332,
0,575,489,105,121,329,
0,568,502,104,132,327,
0,562,551,103,131,324,
0,553,543,103,130,321,
0,547,537,102,129,318,
0,541,531,101,127,316,
0,571,526,112,127,373,
0,596,519,111,126,369,
0,589,513,110,125,365,
0,582,506,108,124,361,
0,575,500,108,123,359,
0,568,553,107,131,355,
0,561,546,105,129,352,
0,553,539,104,127,348,
0,547,533,103,127,344,
0,540,527,103,126,376,
0,614,520,108,125,389,
0,604,515,106,124,384,
0,596,508,105,123,381,
0,590,502,104,121,377,
0,582,496,103,121,374,
0,575,492,103,127,369,
0,568,487,102,126,367,
0,560,481,102,126,363,
0,553,477,100,124,359,
0,547,472,100,124,416,
0,606,468,110,123,411,
0,598,463,108,121,406,
0,591,459,108,120,402,
0,583,455,107,120,398,
0,575,450,106,119,395,
0,569,541,105,123,391,
0,563,534,103,121,387,
0,555,527,103,120,384,
0,548,521,103,120,379,
0,543,515,124,119,433,
0,607,510,121,118,428,
0,600,504,120,117,423,
0,591,497,120,116,419,
0,583,492,119,115,415,
0,577,487,118,120,411,
0,571,531,116,119,407,
0,563,524,115,118,403,
0,556,518,115,116,399,
0,550,512,113,115,394,
0,543,507,126,115,435,
0,607,500,124,114,431,
0,600,496,124,113,425,
0,591,488,122,112,422,
0,583,483,121,112,417,
0,577,483,120,113,413,
0,571,527,120,112,409,
0,564,521,119,111,405,
0,556,515,117,110,401,
0,550,510,116,109,396,
0,572,504,116,109,448,
0,606,498,115,108,444,
0,599,492,115,107,439,
0,591,486,113,107,434,
0,583,481,112,105,430,
0,577,543,112,127,425,
0,570,547,111,126,421,
0,563,541,110,125,417,
0,556,535,109,124,413,
0,550,528,108,123,443,
0,611,523,135,121,459,
0,603,516,135,121,453,
0,595,511,134,120,448,
0,588,504,132,119,444,
0,580,498,131,118,440,
0,574,569,130,120,434,
0,568,561,129,119,430,
0,560,554,127,118,425,
0,553,547,127,116,422,
0,547,541,132,116,417,
0,609,535,151,115,412,
0,601,528,149,114,408,
0,594,523,147,113,405,
0,587,515,147,112,401,
0,579,510,145,112,398,
0,573,593,144,114,394,
0,566,584,143,113,391,
0,560,577,142,112,387,
0,551,571,140,111,384,
0,545,563,163,111,443,
0,611,557,161,110,438,
0,604,551,159,109,433,
0,595,544,158,108,428,
0,588,536,157,107,423,
0,582,531,156,108,420,
0,575,525,155,107,415,
0,568,519,153,105,412,
0,561,513,152,105,408,
0,553,508,151,103,403,
0,547,504,195,103,442,
0,606,497,193,103,437,
0,598,492,191,102,432,
0,591,487,189,102,428,
0,583,481,188,100,423,
0,575,487,186,113,419,
0,569,549,184,112,415,
0,563,542,184,111,412,
0,557,536,182,110,408,
0,549,529,179,109,403,
0,569,524,180,108,451,
0,608,518,179,108,446,
0,600,511,178,107,440,
0,593,505,176,106,436,
0,585,499,175,105,432,
0,579,519,174,108,428,
0,572,512,172,107,423,
0,566,507,172,105,419,
0,559,500,169,104,415,
0,551,496,167,103,443,
0,614,490,216,103,467,
0,604,484,213,103,462,
0,596,480,211,102,455,
0,589,475,209,101,451,
0,582,469,207,100,447,
0,575,566,206,112,443,
0,568,557,204,112,438,
0,561,550,202,111,433,
0,556,543,200,110,429,
0,547,537,199,109,483,
0,605,531,197,108,476,
0,596,524,195,107,470,
0,589,519,194,106,464,
0,582,513,192,105,460,
0,575,506,192,104,455,
0,569,595,190,114,451,
0,562,586,188,113,446,
0,556,579,187,112,441,
0,549,572,185,111,437,
0,542,564,184,110,432,
0,600,558,182,110,428,
0,591,551,180,108,423,
0,585,545,179,108,419,
0,578,540,178,107,415,
0,571,531,177,110,412,
0,564,526,176,109,408,
0,558,519,175,108,404,
0,551,515,173,107,400,
0,545,509,172,107,397,
0,537,504,178,105,451,
0,595,499,176,105,445,
0,588,493,175,103,440,
0,580,487,174,103,435,
0,574,483,172,103,432,
0,568,477,171,118,428,
0,560,472,169,116,423,
0,553,467,167,115,419,
0,547,463,167,114,415,
0,542,459,166,113,411,
0,547,455,173,112,456,
0,590,449,171,112,451,
0,583,446,169,111,447,
0,575,441,168,110,442,
0,568,438,167,108,438,
0,562,478,166,118,433,
0,556,495,165,115,428,
0,548,489,163,115,424,
0,543,483,163,114,420,
0,536,478,161,113,415,
0,595,473,161,112,462,
0,595,467,159,111,455,
0,588,463,159,110,451,
0,580,457,158,110,447,
0,574,453,156,109,442,
0,567,492,156,123,438,
0,560,486,155,121,433,
0,553,480,153,120,428,
0,547,475,152,120,424,
0,540,470,152,119,420,
0,590,463,162,118,444,
0,583,459,161,116,440,
0,575,454,159,115,435,
0,568,449,158,115,430,
0,561,445,157,113,426,
0,555,467,156,118,422,
0,548,461,155,116,417,
0,542,455,153,115,414,
0,536,451,152,115,409,
0,529,446,151,114,458,
0,601,441,173,113,459,
0,593,437,171,112,454,
0,585,433,169,111,448,
0,579,429,167,110,444,
0,572,425,167,110,440,
0,565,420,166,117,435,
0,559,417,164,116,431,
0,551,414,163,115,426,
0,546,410,161,114,422,
0,538,407,176,113,475,
0,593,403,177,112,467,
0,585,399,176,112,462,
0,579,397,174,111,457,
0,572,393,172,110,452,
0,565,391,172,110,448,
0,559,455,169,115,443,
0,551,451,168,115,439,
0,545,446,167,114,434,
0,540,441,166,112,430,
0,537,437,171,112,478,
0,572,432,168,111,471,
0,566,428,167,110,465,
0,559,423,166,109,460,
0,551,419,164,108,455,
0,546,415,163,112,451,
0,540,469,162,111,446,
0,534,463,161,110,441,
0,527,459,159,109,438,
0,522,454,159,108,433,
0,572,448,171,107,474,
0,563,444,169,106,467,
0,557,440,167,105,463,
0,551,435,166,104,457,
0,543,431,165,103,452,
0,537,472,163,112,448,
0,531,466,162,111,444,
0,525,461,161,110,439,
0,519,455,159,109,435,
0,514,451,159,108,433,
0,568,446,179,108,467,
0,561,441,177,107,460,
0,555,436,176,105,455,
0,547,432,174,105,451,
0,541,428,173,103,447,
0,536,470,172,111,441,
0,529,464,170,110,438,
0,523,459,168,109,433,
0,518,454,167,108,428,
0,512,449,166,107,460,
0,562,444,177,106,454,
0,555,440,175,105,448,
0,548,435,174,104,443,
0,542,431,172,103,439,
0,536,427,171,103,434,
0,529,462,169,107,430,
0,524,455,167,105,425,
0,518,451,167,103,422,
0,512,446,166,103,417,
0,507,441,177,103,422,
0,575,438,178,102,417,
0,569,432,176,101,412,
0,562,428,175,100,408,
0,556,423,173,99,404,
0,549,419,172,103,401,
0,543,456,171,113,397,
0,536,451,169,112,393,
0,530,445,167,111,390,
0,524,440,167,110,387,
0,519,436,166,109,440,
0,577,431,164,108,434,
0,570,427,163,108,430,
0,561,423,161,107,425,
0,555,418,159,105,419,
0,548,414,159,107,415,
0,542,460,158,106,411,
0,536,455,156,105,408,
0,529,448,155,103,403,
0,524,444,154,103,399,
0,519,439,158,103,451,
0,577,434,156,102,446,
0,571,430,155,101,441,
0,562,425,153,100,435,
0,555,421,152,99,432,
0,549,417,151,107,427,
0,543,412,150,106,423,
0,536,408,149,105,419,
0,530,404,147,103,415,
0,524,401,147,103,411,
0,556,396,173,103,456,
0,576,392,171,102,451,
0,569,390,169,101,447,
0,563,386,167,100,443,
0,555,384,167,99,438,
0,550,454,166,101,433,
0,542,455,164,99,429,
0,537,450,163,99,424,
0,531,445,161,99,420,
0,525,440,160,97,416,
0,549,435,193,97,462,
0,564,431,191,96,457,
0,558,427,189,96,452,
0,551,423,188,95,448,
0,543,419,185,94,443,
0,538,415,184,103,438,
0,531,455,183,102,433,
0,526,448,182,100,429,
0,519,444,180,100,425,
0,515,439,179,99,421,
0,536,434,191,98,459,
0,560,430,189,97,454,
0,553,425,188,97,449,
0,547,421,186,96,444,
0,540,418,184,96,440,
0,534,414,183,107,435,
0,527,427,182,106,431,
0,521,420,180,104,426,
0,516,416,179,103,422,
0,511,412,177,103,418,
0,512,408,219,103,455,
0,547,404,216,102,449,
0,539,400,214,100,444,
0,532,396,211,99,440,
0,526,392,210,99,435,
0,520,443,207,109,432,
0,515,476,206,108,426,
0,508,471,204,108,422,
0,504,465,203,107,417,
0,498,460,201,105,414,
0,558,454,199,105,412,
0,560,449,199,103,408,
0,553,444,197,103,403,
0,547,440,195,102,399,
0,540,435,194,101,396,
0,533,504,192,108,393,
0,527,499,191,107,388,
0,521,494,189,105,385,
0,515,487,188,105,382,
0,510,483,187,103,438,
0,569,476,211,103,436,
0,561,472,209,102,432,
0,555,466,207,102,427,
0,548,461,207,100,423,
0,542,455,204,99,419,
0,536,486,203,113,414,
0,529,480,201,113,410,
0,522,474,199,112,406,
0,516,469,198,111,401,
0,511,463,197,110,448,
0,567,459,195,109,443,
0,559,454,194,108,438,
0,551,448,192,107,433,
0,545,444,192,106,429,
0,540,440,190,105,425,
0,534,519,188,110,420,
0,527,512,187,109,416,
0,519,506,185,108,412,
0,514,500,184,107,408,
0,508,495,201,106,457,
0,564,489,199,105,452,
0,557,484,198,103,448,
0,550,478,195,103,443,
0,543,472,194,103,438,
0,537,467,192,116,433,
0,531,487,191,115,429,
0,524,480,190,114,424,
0,518,476,188,113,419,
0,512,470,186,112,415,
0,508,465,198,111,473,
0,568,460,196,110,468,
0,561,455,195,109,463,
0,555,450,193,108,458,
0,548,446,192,108,454,
0,542,494,190,116,448,
0,536,531,188,115,444,
0,527,525,187,115,440,
0,522,519,185,113,434,
0,516,513,184,112,430,
0,552,508,201,112,480,
0,572,502,199,111,475,
0,564,496,198,110,470,
0,558,489,196,109,464,
0,551,484,195,108,460,
0,544,480,193,110,455,
0,538,474,192,108,451,
0,531,470,190,108,446,
0,525,464,188,107,440,
0,519,460,187,106,480,
0,587,455,206,105,484,
0,579,451,204,104,480,
0,572,446,203,103,473,
0,564,440,200,103,468,
0,558,436,199,102,463,
0,551,511,198,105,459,
0,545,504,195,103,454,
0,537,498,195,103,449,
0,531,492,192,102,444,
0,526,487,230,102,494,
0,626,482,239,100,487,
0,617,476,236,99,482,
0,609,472,235,99,476,
0,601,467,232,99,472,
0,594,462,231,97,467,
0,587,457,228,97,463,
0,580,452,227,96,459,
0,575,448,225,96,454,
0,568,444,224,95,449,
0,562,440,222,94,444,
0,616,435,240,94,440,
0,662,431,239,93,435,
0,653,427,236,92,432,
0,644,423,235,92,428,
0,637,419,231,91,423,
0,628,415,231,91,419,
0,621,412,228,90,415,
0,614,408,227,89,412,
0,607,404,225,89,408,
0,600,401,223,88,405,
0,628,398,246,88,462,
0,665,393,243,88,457,
0,659,390,241,87,451,
0,649,387,239,86,448,
0,641,384,238,86,443,
0,633,391,236,91,438,
0,626,413,233,90,433,
0,618,408,231,89,429,
0,611,406,230,88,425,
0,604,401,227,88,421,
0,598,398,240,88,469,
0,671,393,238,87,463,
0,662,390,236,86,460,
0,654,385,233,86,455,
0,645,382,231,84,450,
0,637,379,231,85,446,
0,632,428,228,85,441,
0,623,423,227,84,436,
0,615,419,225,84,432,
0,609,414,223,83,428,
0,601,410,236,83,484,
0,668,406,239,82,478,
0,659,401,236,81,472,
0,651,399,235,81,467,
0,642,395,231,80,462,
0,634,391,231,80,457,
0,627,387,228,83,452,
0,619,384,227,83,449,
0,611,380,225,81,444,
0,604,376,223,81,440,
0,600,374,222,80,465,
0,655,371,238,79,496,
0,676,368,236,79,490,
0,667,364,233,79,484,
0,658,361,231,78,480,
0,649,359,230,78,474,
0,641,356,227,83,469,
0,633,355,225,83,464,
0,626,352,224,82,460,
0,619,349,222,81,455,
0,611,347,220,81,456,
0,647,344,242,80,499,
0,676,342,240,79,493,
0,668,339,238,79,487,
0,661,336,236,78,482,
0,652,334,234,78,477,
0,644,364,231,83,472,
0,636,395,231,83,467,
0,628,391,228,82,462,
0,621,387,227,81,457,
0,614,384,225,80,452,
0,607,380,237,80,508,
0,687,376,235,79,501,
0,677,372,232,79,496,
0,668,369,231,78,489,
0,659,366,229,78,486,
0,652,363,227,89,481,
0,643,409,225,89,476,
0,636,404,224,88,471,
0,630,400,222,88,466,
0,622,396,220,88,461,
0,615,392,230,87,499,
0,692,388,227,86,493,
0,682,385,225,85,487,
0,673,381,224,84,483,
0,664,379,222,84,478,
0,655,375,220,83,472,
0,647,381,219,86,467,
0,639,377,216,86,463,
0,632,373,215,84,459,
0,624,369,214,84,454,
0,616,366,221,83,475,
0,705,363,226,83,492,
0,697,359,224,82,486,
0,688,356,222,81,481,
0,679,353,220,81,476,
0,670,350,219,80,471,
0,662,459,216,89,465,
0,653,452,215,88,460,
0,645,448,214,88,455,
0,637,444,211,87,451,
0,630,439,210,86,459,
0,673,435,231,86,496,
0,704,430,229,85,491,
0,694,425,227,84,486,
0,684,420,225,83,480,
0,675,417,224,83,476,
0,669,412,222,86,471,
0,660,408,220,85,465,
0,652,404,219,84,460,
0,644,400,216,83,455,
0,636,398,215,83,451,
0,630,394,217,82,496,
0,708,390,216,81,490,
0,699,387,214,81,484,
0,689,384,212,80,480,
0,679,380,211,79,474,
0,671,377,209,108,470,
0,663,473,207,105,464,
0,654,467,206,105,460,
0,647,462,204,103,455,
0,639,455,203,103,451,
0,632,451,229,102,490,
0,655,447,226,101,484,
0,647,442,224,100,479,
0,636,438,222,99,473,
0,631,433,220,99,468,
0,624,452,219,109,463,
0,614,489,216,108,459,
0,607,483,215,107,453,
0,600,479,213,106,448,
0,593,473,211,105,444,
0,588,468,219,103,487,
0,632,462,217,103,481,
0,624,457,216,102,476,
0,615,452,214,102,472,
0,608,448,211,100,466,
0,600,515,210,105,461,
0,591,507,208,103,456,
0,585,500,206,103,451,
0,579,495,205,103,446,
0,572,489,203,102,447,
0,608,484,222,101,487,
0,624,478,220,100,483,
0,615,472,217,99,478,
0,608,467,216,99,472,
0,601,463,215,97,467,
0,594,512,212,102,462,
0,587,539,211,100,457,
0,580,530,209,99,452,
0,574,524,207,99,448,
0,567,519,206,98,444,
0,584,514,224,97,476,
0,613,508,222,96,471,
0,605,503,220,96,465,
0,598,497,217,95,462,
0,590,492,216,94,455,
0,583,487,215,106,451,
0,575,481,212,104,446,
0,569,476,211,103,441,
0,563,472,209,103,437,
0,557,467,207,102,432,
0,563,461,219,101,476,
0,601,455,217,100,470,
0,593,451,216,99,465,
0,587,448,214,99,460,
0,579,443,211,98,455,
0,573,519,210,103,451,
0,566,512,208,102,446,
0,560,506,207,102,441,
0,553,500,205,100,436,
0,547,495,204,99,432,
0,543,489,231,99,473,
0,603,483,229,98,467,
0,595,479,227,97,463,
0,588,473,225,96,457,
0,580,468,223,96,452,
0,574,575,221,97,448,
0,568,569,220,96,443,
0,560,563,217,96,439,
0,555,556,216,95,435,
0,547,549,214,94,431,
0,542,543,246,93,463,
0,605,536,243,93,457,
0,598,531,240,92,452,
0,591,524,239,92,448,
0,585,519,236,91,444,
0,578,513,235,96,439,
0,571,536,232,95,434,
0,564,530,231,94,430,
0,558,524,229,94,425,
0,551,518,227,93,422,
0,545,513,241,92,478,
0,609,508,239,92,472,
0,601,503,236,91,467,
0,593,497,235,90,462,
0,586,492,231,89,457,
0,579,487,231,92,453,
0,572,482,229,110,448,
0,566,477,227,108,443,
0,559,472,225,108,439,
0,553,467,224,107,434,
0,547,463,244,106,480,
0,604,457,242,105,473,
0,596,453,240,103,467,
0,589,448,238,103,463,
0,582,444,236,102,457,
0,575,440,233,103,454,
0,567,512,231,102,448,
0,560,505,230,102,443,
0,553,499,227,100,438,
0,547,494,225,99,433,
0,541,489,245,99,479,
0,606,483,242,98,475,
0,598,479,240,97,469,
0,590,473,238,96,463,
0,583,468,236,96,459,
0,578,463,235,97,455,
0,572,532,232,97,449,
0,564,526,231,96,445,
0,558,519,229,96,440,
0,551,514,227,95,435,
0,545,508,230,94,492,
0,600,504,231,94,486,
0,592,498,231,93,480,
0,584,492,228,92,475,
0,577,487,226,91,470,
0,571,482,224,91,466,
0,564,479,223,108,460,
0,558,473,221,107,455,
0,551,468,219,106,450,
0,545,463,217,105,446,
0,539,459,216,103,482,
0,581,454,222,103,476,
0,574,449,220,103,471,
0,567,445,219,102,465,
0,560,440,216,100,460,
0,551,436,215,103,455,
0,545,472,212,103,449,
0,539,467,211,103,445,
0,533,462,209,103,440,
0,527,457,207,102,436,
0,522,451,231,100,483,
0,583,446,227,100,476,
0,575,441,225,99,472,
0,569,437,224,98,466,
0,562,433,222,98,461,
0,556,429,220,103,456,
0,549,492,218,102,451,
0,543,486,216,100,447,
0,536,480,215,99,443,
0,531,475,213,99,438,
0,525,471,243,98,483,
0,580,465,240,97,478,
0,573,460,238,96,472,
0,566,455,236,96,467,
0,560,451,233,95,462,
0,552,448,231,95,457,
0,547,515,230,104,452,
0,540,508,227,103,448,
0,534,503,225,103,444,
0,527,495,224,102,439,
0,523,490,241,102,463,
0,572,484,248,100,457,
0,563,480,246,99,451,
0,556,474,243,99,447,
0,550,470,241,98,443,
0,543,464,240,103,439,
0,537,488,238,103,433,
0,531,483,236,102,429,
0,526,478,233,102,425,
0,519,472,231,100,420,
0,513,467,248,99,472,
0,563,463,245,99,466,
0,556,457,243,98,461,
0,551,452,241,97,455,
0,543,448,239,96,451,
0,538,444,238,97,447,
0,532,440,236,103,441,
0,526,436,233,102,438,
0,519,432,231,100,433,
0,513,428,230,99,428,
0,508,423,228,99,478,
0,560,419,242,98,471,
0,552,416,240,97,465,
0,545,412,238,97,460,
0,540,408,236,96,455,
0,533,406,234,96,451,
0,527,536,231,97,446,
0,521,531,231,96,441,
0,515,524,228,96,438,
0,510,518,227,95,433,
0,504,512,225,94,483,
0,553,507,259,94,481,
0,547,501,255,93,476,
0,540,496,254,92,470,
0,534,490,252,92,465,
0,529,485,250,91,460,
0,523,481,248,108,455,
0,517,476,246,106,451,
0,510,471,243,105,444,
0,504,466,241,104,440,
0,499,462,240,103,476,
0,559,457,269,103,484,
0,551,452,266,102,479,
0,543,447,263,101,473,
0,537,442,262,100,468,
0,531,438,259,99,463,
0,525,460,257,103,459,
0,519,455,255,102,454,
0,513,450,253,100,449,
0,507,445,251,99,444,
0,503,440,248,99,455,
0,552,435,248,98,480,
0,550,432,245,97,473,
0,543,428,243,96,468,
0,536,423,241,96,463,
0,530,419,239,95,459,
0,524,417,238,102,454,
0,519,412,236,100,449,
0,513,408,233,99,444,
0,507,404,231,99,440,
0,502,401,230,97,440,
0,539,399,228,97,480,
0,556,395,227,96,475,
0,548,391,225,96,470,
0,542,388,224,95,465,
0,536,385,222,94,461,
0,529,382,220,100,455,
0,524,379,219,99,450,
0,518,376,217,99,448,
0,512,372,216,97,442,
0,507,369,214,97,438,
0,503,367,243,96,484,
0,582,364,240,96,479,
0,575,359,238,95,473,
0,568,358,236,94,468,
0,561,411,234,93,463,
0,555,492,231,95,459,
0,547,516,231,94,454,
0,542,512,228,93,449,
0,536,505,227,92,444,
0,529,499,225,92,440,
0,524,495,231,91,498,
0,583,488,230,90,494,
0,575,483,228,89,487,
0,568,478,226,89,483,
0,563,473,225,88,478,
0,557,468,223,92,472,
0,551,553,221,93,467,
0,544,547,220,92,462,
0,538,540,217,92,457,
0,532,534,216,91,452,
0,526,527,225,90,504,
0,577,524,224,89,497,
0,569,517,222,88,491,
0,563,511,220,88,486,
0,556,505,217,88,480,
0,550,504,216,88,476,
0,543,500,214,101,470,
0,536,495,213,100,465,
0,531,489,211,99,460,
0,525,484,209,99,455,
0,519,480,217,97,454,
0,590,475,236,96,475,
0,582,470,233,96,470,
0,576,465,231,95,464,
0,569,460,230,94,460,
0,563,455,227,94,455,
0,556,515,226,94,449,
0,550,509,224,92,446,
0,543,504,223,92,441,
0,537,497,220,92,436,
0,531,494,219,91,432,
0,570,487,219,90,432,
0,627,483,217,89,428,
0,620,478,216,89,423,
0,611,472,214,88,420,
0,604,467,212,88,416,
0,596,463,211,88,413,
0,589,458,209,87,409,
0,583,454,207,86,406,
0,577,449,206,86,401,
0,571,444,205,85,398,
0,564,440,204,84,455,
0,660,436,202,83,449,
0,651,432,200,83,444,
0,643,429,199,83,440,
0,635,425,198,82,435,
0,627,452,196,86,431,
0,619,556,195,85,426,
0,611,548,193,84,423,
0,604,542,192,83,419,
0,597,536,191,83,415,
0,590,529,202,83,476,
0,660,524,199,81,470,
0,651,518,198,81,463,
0,643,512,196,80,459,
0,635,507,195,79,454,
0,627,501,193,91,450,
0,620,496,192,93,445,
0,611,491,190,92,440,
0,604,487,189,92,436,
0,598,481,188,91,432,
0,591,477,252,91,487,
0,637,472,280,89,480,
0,628,467,276,89,476,
0,620,463,274,88,472,
0,612,458,271,88,466,
0,607,454,270,87,461,
0,600,449,268,93,455,
0,592,444,265,92,451,
0,585,440,263,92,447,
0,579,436,261,91,443,
0,572,432,259,90,452,
0,615,428,260,89,489,
0,639,425,258,88,483,
0,632,422,255,88,478,
0,624,417,254,88,473,
0,615,414,252,87,468,
0,608,455,249,105,463,
0,600,449,248,103,458,
0,593,444,246,103,454,
0,587,440,243,102,449,
0,580,434,242,102,445,
0,597,430,248,100,495,
0,612,425,246,99,489,
0,604,420,243,99,483,
0,597,416,241,98,479,
0,590,412,240,97,473,
0,583,460,238,107,468,
0,575,459,236,105,463,
0,569,454,235,103,459,
0,563,449,232,103,454,
0,557,444,231,103,449,
0,591,440,231,102,505,
0,583,435,228,100,498,
0,577,431,227,99,494,
0,570,427,225,99,488,
0,563,422,223,98,483,
0,557,535,222,99,478,
0,551,564,220,98,473,
0,546,558,219,97,468,
0,540,551,217,96,463,
0,535,544,216,96,459,
0,529,538,275,95,499,
0,524,531,272,95,494,
0,518,527,270,94,488,
0,512,521,268,93,483,
0,508,516,265,92,478,
0,503,511,263,97,473,
0,497,504,261,96,469,
0,492,499,259,96,463,
0,487,494,256,94,460,
0,483,489,255,94,455,
0,480,484,253,93,496,
0,483,480,251,92,491,
0,478,475,249,92,485,
0,473,470,247,91,480,
0,468,465,245,90,475,
0,464,460,243,94,470,
0,460,455,241,94,464,
0,455,452,240,93,460,
0,451,448,238,92,455,
0,448,444,236,92,451,
0,444,440,234,91,505,
0,481,435,231,90,501,
0,476,432,231,89,496,
0,471,428,228,88,489,
0,467,423,227,88,484,
0,462,419,225,88,480,
0,457,415,224,89,474,
0,452,412,223,89,469,
0,448,408,221,88,463,
0,443,405,219,88,459,
0,440,401,217,87,494,
0,511,399,252,87,487,
0,504,396,250,86,482,
0,499,391,248,85,477,
0,492,389,246,84,472,
0,487,385,243,83,467,
0,483,440,241,91,463,
0,477,489,240,89,458,
0,473,483,238,89,454,
0,468,478,236,88,449,
0,463,473,235,88,444,
0,459,467,232,87,490,
0,505,463,231,86,484,
0,499,457,229,86,479,
0,494,453,227,85,473,
0,487,449,225,84,468,
0,483,445,224,86,463,
0,478,440,222,84,459,
0,472,436,220,84,454,
0,467,432,219,83,451,
0,463,428,216,83,446,
0,458,423,241,82,508,
0,539,419,239,81,502,
0,534,415,237,81,496,
0,527,412,235,80,491,
0,521,408,233,79,485,
0,515,404,231,100,480,
0,510,400,229,99,475,
0,504,396,227,98,470,
0,499,393,225,97,464,
0,494,390,224,96,460,
0,488,387,222,96,504,
0,551,384,220,95,499,
0,543,380,219,94,493,
0,536,377,216,93,487,
0,531,374,216,92,482,
0,524,371,214,92,478,
0,519,368,212,94,473,
0,513,365,211,93,468,
0,509,362,209,92,463,
0,504,359,207,92,459,
0,498,356,207,91,504,
0,563,353,252,91,499,
0,555,351,249,89,494,
0,547,348,248,89,488,
0,542,423,246,88,483,
0,536,419,243,88,478,
0,529,415,241,97,472,
0,523,411,240,96,467,
0,518,406,238,96,463,
0,511,402,236,95,460,
0,506,398,234,94,455,
0,501,393,231,93,495,
0,497,390,231,92,489,
0,492,387,228,92,483,
0,487,389,227,91,479,
0,481,496,225,91,473,
0,477,600,224,95,468,
0,472,616,222,94,463,
0,467,608,220,93,458,
0,463,603,219,92,454,
0,458,595,217,92,449,
0,454,588,219,91,445,
0,524,580,216,91,440,
0,518,574,215,89,438,
0,512,568,213,89,433,
0,505,561,211,88,429,
0,500,555,211,94,425,
0,496,623,209,94,421,
0,491,615,207,92,417,
0,486,607,206,92,414,
0,480,600,204,91,409,
0,476,591,233,90,468,
0,478,584,230,89,463,
0,472,579,228,89,457,
0,467,572,226,88,452,
0,463,566,224,88,448,
0,457,560,222,89,443,
0,454,553,220,91,440,
0,449,547,219,89,435,
0,445,542,217,88,431,
0,440,536,216,88,427,
0,438,530,214,88,465,
0,541,524,212,87,460,
0,543,519,211,86,455,
0,536,513,209,86,449,
0,530,508,207,84,445,
0,524,547,206,85,440,
0,519,540,204,90,435,
0,512,536,203,89,432,
0,507,529,201,88,427,
0,502,523,199,88,423,
0,496,518,199,87,461,
0,579,512,203,87,461,
0,586,505,211,86,455,
0,579,500,209,85,451,
0,574,496,207,84,446,
0,567,491,206,83,441,
0,560,653,204,93,437,
0,553,835,202,92,432,
0,547,820,200,92,428,
0,541,807,199,91,423,
0,535,796,198,90,419,
0,547,787,227,89,469,
0,639,775,225,88,463,
0,632,764,223,88,459,
0,623,753,221,88,454,
0,615,743,219,87,449,
0,608,814,217,94,446,
0,600,896,216,93,440,
0,595,878,215,93,436,
0,588,864,212,92,432,
0,582,849,211,91,428,
0,575,838,268,90,476,
0,693,824,272,89,471,
0,683,812,270,89,465,
0,673,799,267,88,460,
0,664,831,265,88,455,
0,655,903,263,88,451,
0,647,910,260,89,446,
0,639,914,259,88,441,
0,632,917,255,88,438,
0,624,919,255,87,433,
0,617,916,252,87,483,
0,737,896,251,86,476,
0,755,876,248,85,472,
0,743,862,247,84,466,
0,733,852,244,83,461,
0,723,839,243,83,455,
0,713,827,240,88,451,
0,704,815,239,88,447,
0,695,806,237,88,443,
0,686,795,235,87,438,
0,678,783,233,86,488,
0,775,772,246,86,483,
0,765,762,243,84,479,
0,753,752,241,84,473,
0,743,742,239,83,468,
0,733,732,238,83,463,
0,726,723,236,89,459,
0,716,714,234,89,454,
0,705,705,231,88,449,
0,697,696,231,88,444,
0,688,688,229,87,440,
0,696,679,227,86,476,
0,792,673,225,86,472,
0,779,665,224,84,466,
0,768,657,222,84,461,
0,757,649,220,83,455,
0,747,643,219,92,453,
0,736,636,217,92,448,
0,727,628,216,91,444,
0,717,622,214,90,440,
0,711,615,212,89,435,
0,701,608,226,88,488,
0,811,601,224,88,483,
0,798,595,222,87,478,
0,785,588,220,86,472,
0,774,582,218,86,467,
0,764,680,216,92,463,
0,753,809,215,99,457,
0,742,796,213,99,452,
0,732,783,211,98,448,
0,723,772,210,97,444,
0,713,761,209,97,500,
0,804,750,207,96,494,
0,793,849,283,95,488,
0,783,887,280,94,483,
0,771,871,276,93,478,
0,761,856,274,93,472,
0,750,880,271,95,467,
0,740,905,269,94,463,
0,729,908,267,93,457,
0,720,893,264,92,454,
0,711,880,332,92,497,
0,828,865,361,91,489,
0,828,851,358,90,484,
0,816,838,354,89,479,
0,803,825,351,89,475,
0,792,813,348,88,470,
0,780,801,344,91,465,
0,773,871,343,90,460,
0,762,905,339,89,455,
0,752,911,336,88,451,
0,742,909,334,88,447,
0,766,888,331,88,496,
0,895,871,327,87,491,
0,879,858,326,86,486,
0,865,847,323,86,480,
0,851,835,319,84,475,
0,838,823,318,93,470,
0,825,810,315,92,465,
0,814,871,312,92,461,
0,802,905,310,91,455,
0,791,908,307,89,451,
0,789,889,306,89,481,
0,856,872,304,88,476,
0,843,892,301,88,471,
0,830,903,299,88,465,
0,817,907,295,87,460,
0,805,912,294,92,455,
0,793,915,291,92,451,
0,782,916,289,91,446,
0,771,913,287,90,441,
0,761,888,286,89,438,
0,752,872,384,88,492,
0,892,859,376,88,487,
0,879,845,372,87,482,
0,864,831,369,87,477,
0,851,899,367,86,472,
0,841,902,363,86,467,
0,828,883,359,87,462,
0,816,867,357,87,457,
0,804,902,353,86,452,
0,793,910,351,85,448,
0,782,912,348,84,515,
0,878,908,344,83,508,
0,907,888,342,83,503,
0,903,871,339,82,496,
0,883,858,336,81,491,
0,869,904,334,81,486,
0,856,911,331,83,482,
0,843,914,327,83,477,
0,830,914,326,83,472,
0,821,900,323,82,467,
0,809,878,321,81,462,
0,828,864,318,80,510,
0,903,850,316,79,504,
0,896,838,313,79,497,
0,879,825,311,79,492,
0,864,812,308,78,487,
0,851,807,306,92,481,
0,838,829,304,92,476,
0,825,816,301,91,472,
0,814,803,299,89,467,
0,802,792,296,89,463,
0,807,781,295,88,513,
0,896,770,292,88,507,
0,883,760,291,87,501,
0,868,750,288,86,496,
0,855,739,286,86,491,
0,841,857,284,89,485,
0,828,888,282,88,480,
0,816,871,280,88,475,
0,805,857,278,87,470,
0,793,847,276,86,465,
0,783,902,295,86,505,
0,889,909,294,85,499,
0,873,910,291,84,494,
0,859,895,288,83,489,
0,846,876,286,83,484,
0,833,900,284,83,479,
0,824,909,281,86,473,
0,812,913,280,85,468,
0,799,915,277,84,463,
0,788,911,275,83,460,
0,777,886,273,83,519,
0,880,871,271,83,512,
0,908,856,269,82,507,
0,907,847,267,81,500,
0,888,834,265,80,495,
0,872,822,263,80,489,
0,860,809,261,81,484,
0,847,872,259,80,481,
0,833,894,257,79,476,
0,822,876,255,79,472,
0,809,862,254,79,466,
0,851,848,252,78,511,
0,905,835,251,78,504,
0,905,823,248,77,499,
0,886,896,248,76,494,
0,871,908,246,76,487,
0,857,913,243,80,483,
1,844,915,242,79,478,
0,831,915,240,79,472,
0,819,914,239,79,467,
0,808,917,329,78,463,
0,857,917,340,78,512,
0,907,907,336,76,505,
0,913,880,334,76,499,
0,916,884,332,76,495,
0,915,905,327,75,489,
0,894,911,326,77,483,
0,877,914,323,76,479,
0,864,917,319,76,473,
0,851,919,317,75,468,
0,838,919,314,75,463,
0,825,908,312,74,523,
0,872,883,309,73,516,
0,858,903,307,72,510,
0,845,911,304,71,504,
0,831,914,302,71,499,
0,819,917,300,80,495,
0,807,917,297,79,489,
0,796,907,295,79,484,
0,788,880,293,78,480,
0,777,866,291,78,475,
0,768,854,322,77,497,
0,891,840,368,76,491,
0,909,828,364,76,485,
0,914,816,359,75,480,
0,913,803,356,75,475,
0,892,795,353,74,470,
0,877,899,350,75,465,
0,863,908,347,75,460,
0,850,913,344,73,455,
0,836,916,341,73,452,
0,824,916,339,72,460,
0,894,908,335,71,511,
0,908,881,333,71,505,
0,913,867,331,71,499,
0,913,854,327,71,494,
0,894,840,325,70,488,
0,878,851,323,74,483,
0,864,838,319,73,479,
0,850,824,317,73,473,
0,838,816,315,71,468,
0,825,804,312,71,463,
0,847,792,310,71,527,
0,904,782,307,71,520,
0,892,771,305,71,516,
0,876,807,303,70,511,
0,863,794,300,69,505,
0,852,782,299,74,499,
0,839,771,295,73,494,
0,827,760,294,73,488,
0,815,750,291,71,483,
0,803,739,289,71,479,
0,792,731,287,71,514,
0,901,721,285,71,508,
0,911,759,283,70,502,
0,913,792,280,70,496,
0,904,780,279,69,491,
0,883,768,276,73,486,
0,869,758,275,73,481,
0,856,746,272,71,476,
0,843,736,271,71,472,
0,831,726,269,71,467,
0,821,716,283,71,512,
0,897,707,306,70,505,
0,910,697,304,69,499,
0,913,723,300,69,494,
0,908,883,297,68,488,
0,884,867,295,71,483,
0,871,856,293,78,478,
0,856,842,290,77,473,
0,844,845,287,76,468,
0,831,900,286,76,463,
0,819,886,284,75,466,
0,892,871,280,75,500,
0,909,856,279,73,495,
0,912,843,277,73,489,
0,908,829,275,72,483,
0,886,817,272,71,479,
0,871,899,271,73,473,
0,857,908,268,73,468,
0,844,912,266,71,463,
0,831,910,263,71,459,
0,820,887,263,71,456,
0,852,876,260,71,510,
0,907,892,259,70,504,
0,911,907,256,70,499,
0,902,908,255,69,494,
0,881,888,253,68,489,
0,867,880,251,70,483,
0,854,905,249,70,479,
0,844,911,248,69,473,
0,831,914,247,68,468,
0,819,911,244,68,463,
0,807,888,243,67,524,
0,888,872,241,67,518,
0,872,859,240,67,512,
0,858,845,238,66,506,
0,845,900,236,65,500,
0,831,909,235,79,495,
0,819,910,233,79,489,
0,807,894,231,78,484,
0,796,875,230,77,481,
0,785,861,254,77,476,
0,775,847,287,76,527,
0,838,835,286,76,521,
0,824,898,283,75,515,
0,812,903,280,74,509,
0,799,884,278,73,504,
0,787,869,275,73,498,
0,775,855,273,75,492,
0,766,841,271,74,487,
0,755,831,269,73,482,
0,745,819,267,73,477,
0,736,807,291,72,491,
0,864,796,312,71,484,
0,893,783,309,71,480,
0,876,773,306,71,475,
0,862,763,304,70,470,
0,849,752,302,70,465,
0,839,766,299,77,460,
0,827,878,295,77,455,
0,814,863,294,76,451,
0,803,848,291,75,447,
0,792,835,289,75,447,
0,824,822,287,73,490,
0,870,813,284,73,484,
0,856,800,282,73,479,
0,843,788,280,71,474,
0,830,896,278,71,468,
0,817,908,275,74,465,
0,805,912,273,73,460,
0,793,915,271,73,455,
0,783,908,270,72,451,
0,775,883,286,71,447,
0,764,869,318,71,494,
0,847,855,315,71,487,
0,833,841,312,70,483,
0,820,829,309,70,478,
0,807,896,306,69,472,
0,796,908,304,74,467,
0,784,908,301,73,463,
0,774,910,298,72,457,
0,763,914,295,71,453,
0,752,915,294,71,448,
0,743,905,291,71,507,
0,846,880,288,70,499,
0,831,865,287,70,495,
0,822,851,284,69,489,
0,810,892,282,68,483,
0,798,887,280,79,479,
0,787,905,278,82,473,
0,775,911,275,81,468,
0,764,914,273,80,463,
0,753,911,271,79,459,
0,743,894,269,79,510,
0,838,875,267,79,503,
0,824,861,265,78,497,
0,810,847,263,77,492,
0,798,835,261,77,487,
0,786,822,259,76,483,
0,775,895,257,79,478,
0,768,886,255,79,472,
0,756,870,254,78,467,
0,746,856,252,78,462,
0,736,843,249,76,465,
0,751,830,248,76,505,
0,835,816,246,76,499,
0,822,805,244,75,494,
0,809,796,243,75,488,
0,797,785,240,73,483,
0,786,843,239,73,479,
0,774,873,238,73,473,
0,764,860,236,71,470,
0,753,845,332,71,465,
0,743,831,327,71,460,
0,735,819,327,71,510,
0,888,807,323,70,504,
0,872,795,319,70,497,
0,858,783,317,69,492,
0,844,772,315,68,487,
0,831,761,312,79,481,
0,819,752,310,79,476,
0,807,743,307,79,472,
0,796,734,304,78,466,
0,783,724,302,77,461,
0,773,715,299,76,496,
0,899,705,295,76,492,
0,903,696,294,75,486,
0,885,688,291,75,480,
0,871,679,290,74,476,
0,860,671,287,76,470,
0,847,664,286,76,465,
0,834,655,283,75,460,
0,822,648,281,75,455,
0,809,641,279,74,451,
0,798,633,276,73,510,
0,891,628,275,73,504,
0,906,621,271,72,497,
0,894,747,270,71,492,
0,877,881,268,71,487,
0,863,880,266,71,483,
0,849,864,263,79,477,
0,836,851,262,79,472,
0,824,837,260,78,467,
0,815,824,259,78,462,
0,803,812,257,77,462,
0,839,799,255,76,492,
0,863,787,254,76,487,
0,848,776,252,76,481,
0,835,766,249,75,476,
0,822,792,248,73,472,
0,810,831,246,77,466,
0,798,817,244,76,461,
0,787,805,242,76,455,
0,775,792,240,76,451,
0,766,781,239,75,448,
0,799,770,237,74,497,
0,882,759,236,73,492,
0,871,748,234,72,487,
0,857,738,232,71,481,
0,844,728,231,71,476,
0,831,719,230,72,471,
0,818,710,227,71,465,
0,806,700,226,71,460,
0,795,691,224,71,455,
0,783,685,223,71,451,
0,772,676,222,70,502,
0,900,668,220,70,496,
0,910,659,219,69,490,
0,912,652,217,68,486,
0,896,644,216,67,480,
0,879,637,215,68,476,
0,868,844,214,68,471,
0,855,830,212,67,465,
0,841,816,211,67,460,
0,830,804,209,67,455,
0,817,792,222,66,509,
0,859,780,231,65,503,
0,846,768,230,65,497,
0,831,760,227,64,492,
0,819,750,226,63,486,
0,807,739,224,63,481,
0,796,729,222,66,476,
0,784,719,220,65,472,
0,774,710,219,65,467,
0,764,701,217,64,462,
0,756,691,284,63,484,
0,845,684,280,63,493,
0,904,675,277,63,487,
0,897,751,275,63,483,
0,880,899,272,62,477,
0,865,906,270,62,472,
0,852,896,268,63,467,
0,839,905,265,63,462,
0,826,911,263,62,457,
0,814,915,261,62,452,
0,803,916,259,61,464,
0,844,911,257,61,495,
0,900,888,255,60,488,
0,883,906,253,60,483,
0,868,911,251,60,478,
0,858,915,249,59,472,
0,844,915,248,66,467,
0,831,904,246,65,463,
0,819,880,243,64,457,
0,807,865,242,63,453,
0,796,852,241,63,449,
0,785,843,339,63,480,
0,902,830,334,63,475,
0,903,817,331,62,469,
0,885,806,327,62,463,
0,871,794,325,61,460,
0,857,783,323,70,455,
0,844,771,319,69,451,
0,831,761,317,68,446,
0,822,751,315,67,441,
0,809,742,312,67,438,
0,799,732,310,67,481,
0,900,722,307,66,475,
0,911,712,304,65,470,
0,911,704,302,65,464,
0,892,695,299,65,459,
0,876,688,297,63,455,
0,863,747,295,75,449,
0,849,859,292,75,445,
0,836,844,289,73,440,
0,824,830,287,73,438,
0,812,817,285,72,433,
0,897,805,284,71,430,
0,903,792,281,71,426,
0,888,781,280,71,422,
0,872,770,277,70,419,
0,859,760,275,70,415,
0,846,849,273,79,411,
0,832,861,271,78,408,
0,820,847,269,77,403,
0,807,836,267,76,399,
0,797,824,264,76,415,
0,880,811,312,76,455,
0,908,798,308,75,449,
0,913,787,305,73,446,
0,913,775,303,73,440,
0,893,764,300,72,435,
0,880,754,299,81,432,
0,867,839,304,80,428,
0,853,891,300,79,423,
0,840,875,297,79,419,
0,828,860,295,79,415,
0,816,847,293,78,478,
0,903,833,291,77,472,
0,892,824,287,76,467,
0,876,811,286,76,462,
0,862,799,284,76,457,
0,849,787,281,88,452,
0,836,776,323,87,449,
0,824,766,321,86,444,
0,811,755,318,84,440,
0,799,744,316,84,435,
0,792,734,313,83,465,
0,888,724,311,83,460,
0,872,715,307,82,454,
0,859,706,305,81,449,
0,845,748,303,81,444,
0,831,899,300,101,440,
0,819,896,297,103,435,
0,807,878,295,102,432,
0,796,863,292,101,428,
0,784,849,290,100,423,
0,771,836,287,99,473,
0,899,824,286,99,467,
0,892,811,283,98,462,
0,875,799,281,97,457,
0,862,787,279,96,452,
0,847,775,276,96,448,
0,835,765,275,97,443,
0,823,755,272,96,439,
0,810,747,271,96,434,
0,799,806,268,95,430,
0,787,793,266,94,478,
0,889,781,263,94,472,
0,885,769,262,92,467,
0,870,758,260,92,463,
0,856,747,259,92,457,
0,843,737,257,91,453,
0,833,728,255,92,448,
0,820,718,253,92,444,
0,808,708,252,91,440,
0,797,699,249,90,435,
0,786,691,248,89,447,
0,842,683,246,88,496,
0,906,754,243,88,490,
0,911,745,242,88,485,
0,910,735,240,87,480,
0,888,724,239,86,475,
0,873,714,238,88,470,
0,860,704,236,88,465,
0,847,695,233,87,460,
0,835,685,231,86,455,
0,824,676,231,85,451,
0,814,668,230,84,504,
0,904,660,227,83,499,
0,911,652,226,83,493,
0,911,645,224,83,487,
0,893,638,223,82,482,
0,877,631,222,91,477,
0,863,625,220,90,472,
0,850,618,219,89,467,
0,837,611,217,88,462,
0,824,604,216,88,457,
0,813,599,215,88,516,
0,897,591,212,87,510,
0,882,585,211,86,504,
0,871,579,210,85,498,
0,857,573,209,84,492,
0,844,568,207,94,487,
0,831,561,206,98,482,
0,818,556,204,97,477,
0,807,550,204,96,472,
0,795,544,201,96,467,
0,783,540,220,95,494,
0,900,536,222,94,487,
0,911,530,220,94,482,
0,913,524,217,92,477,
0,904,519,216,92,473,
0,883,515,215,91,468,
0,869,729,212,94,463,
0,856,760,211,92,458,
0,845,748,210,92,454,
0,831,737,207,91,449,
0,820,728,210,91,454,
0,888,717,271,89,477,
0,908,707,268,89,472,
0,911,817,265,88,466,
0,893,807,263,88,461,
0,876,793,261,87,455,
0,863,782,259,88,451,
0,849,770,255,88,447,
0,836,759,254,87,444,
0,824,748,252,86,440,
0,812,738,261,86,435,
0,880,728,355,84,499,
0,905,718,350,84,493,
0,912,708,347,83,487,
0,913,699,344,83,482,
0,896,689,339,82,477,
0,879,681,337,91,472,
0,865,671,334,89,467,
0,851,664,331,89,462,
0,839,658,327,88,457,
0,826,649,326,88,452,
0,822,643,339,87,453,
0,905,635,336,86,448,
0,911,627,333,86,445,
0,915,811,330,85,440,
0,902,797,327,84,435,
0,885,785,325,85,432,
0,871,773,322,84,428,
0,857,845,319,83,423,
0,844,831,316,83,419,
0,831,817,315,82,415,
0,819,806,312,81,469,
0,897,793,310,81,463,
0,910,783,307,80,457,
0,914,773,304,79,453,
0,910,762,302,79,448,
0,888,751,300,79,444,
0,872,741,297,78,440,
0,859,867,295,78,435,
0,846,852,292,77,431,
0,836,839,291,76,428,
0,824,825,288,76,452,
0,880,812,286,75,483,
0,908,800,284,75,477,
0,913,849,282,75,472,
0,911,896,334,73,467,
0,890,879,331,73,462,
0,875,867,327,73,456,
0,861,854,324,72,451,
0,847,840,321,71,448,
0,835,827,319,71,443,
0,824,815,316,71,440,
0,862,803,313,71,482,
0,907,791,311,70,476,
0,911,780,309,70,472,
0,908,768,306,69,466,
0,887,875,304,68,461,
0,871,888,301,70,455,
0,858,905,299,69,451,
0,845,908,295,68,447,
0,831,890,294,67,442,
0,819,878,291,67,438,
0,808,864,369,67,463,
0,903,849,364,66,458,
0,911,836,360,66,454,
0,912,824,357,65,449,
0,896,812,354,65,445,
0,878,799,351,65,440,
0,864,788,348,65,436,
0,854,776,345,63,432,
0,841,775,343,63,428,
0,829,765,339,63,423,
0,817,755,337,63,478,
0,896,743,334,62,472,
0,910,735,331,62,466,
0,911,728,327,61,461,
0,893,718,326,61,455,
0,877,708,323,63,451,
0,863,848,319,79,447,
0,850,834,318,78,444,
0,837,821,316,78,439,
0,824,807,312,76,435,
0,812,796,311,76,462,
0,875,783,308,76,487,
0,908,772,306,75,480,
0,913,761,304,75,475,
0,913,880,301,73,470,
0,894,905,299,73,465,
0,877,908,295,73,460,
0,864,891,295,72,455,
0,851,878,292,71,451,
0,838,863,289,71,446,
0,825,850,287,71,465,
0,868,837,286,71,504,
0,907,824,284,70,500,
0,910,812,281,70,495,
0,896,799,280,69,489,
0,883,853,278,68,484,
0,868,903,275,77,479,
0,855,911,273,76,473,
0,841,914,271,76,468,
0,829,915,270,75,463,
0,817,905,268,74,459,
0,806,880,265,74,508,
0,902,870,263,73,503,
0,895,856,262,72,497,
0,878,843,259,71,492,
0,864,872,258,71,486,
0,850,857,255,71,482,
0,837,844,254,71,476,
0,824,831,252,71,472,
0,816,818,251,71,467,
0,803,807,249,70,462,
0,793,795,330,70,517,
0,895,783,326,69,510,
0,901,772,323,68,504,
0,883,762,319,67,499,
0,868,752,316,67,493,
0,856,743,315,67,487,
0,841,734,312,70,483,
0,829,724,308,68,478,
0,817,808,306,68,472,
0,805,796,304,67,469,
0,793,783,301,67,495,
0,894,772,299,66,508,
0,908,760,296,66,502,
0,912,750,294,65,496,
0,908,739,291,64,491,
0,886,728,289,64,486,
0,871,796,287,76,480,
0,857,831,285,75,475,
0,844,819,283,74,471,
0,831,809,280,73,465,
0,819,797,279,73,478,
0,865,785,276,71,506,
0,902,774,273,71,500,
0,886,763,271,71,496,
0,871,752,270,71,491,
0,856,741,268,70,486,
0,844,878,267,74,480,
0,834,905,263,73,475,
0,822,911,262,73,470,
0,809,914,260,71,465,
0,798,913,258,71,460,
0,787,896,255,71,512,
0,878,875,255,71,505,
0,863,865,252,70,500,
0,849,851,251,70,495,
0,835,838,248,69,489,
0,824,825,248,80,483,
0,811,814,246,79,480,
0,799,894,243,79,475,
0,787,878,241,78,470,
0,776,863,240,77,465,
0,769,849,239,76,487,
0,894,835,238,76,483,
0,905,824,236,75,477,
0,889,811,233,75,472,
0,873,799,231,74,467,
0,860,787,231,86,462,
0,847,776,230,86,457,
0,834,768,227,84,452,
0,822,758,226,83,448,
0,809,747,224,83,444,
0,798,737,224,83,519,
0,872,728,222,82,513,
0,857,719,220,81,508,
0,844,710,219,81,502,
0,834,892,217,79,496,
0,821,877,216,79,491,
0,809,863,215,83,486,
0,797,849,213,83,480,
0,785,835,211,82,475,
0,775,823,210,81,471,
0,764,810,209,81,497,
0,847,801,265,80,521,
0,903,790,262,79,515,
0,892,778,259,79,510,
0,875,768,257,78,504,
0,862,756,255,78,499,
0,848,745,253,81,494,
0,835,751,251,80,488,
0,825,739,249,79,483,
0,814,729,248,79,479,
0,801,719,246,79,473,
0,792,711,272,78,506,
0,903,702,270,77,499,
0,897,692,268,76,494,
0,879,684,265,76,489,
0,865,678,263,76,483,
0,851,711,260,81,479,
0,838,702,258,80,473,
0,825,691,255,79,468,
0,814,683,254,79,465,
0,802,673,252,78,460,
0,791,665,250,78,505,
0,900,657,248,76,499,
0,893,649,247,76,493,
0,876,643,244,76,487,
0,862,635,243,75,483,
0,849,627,241,87,477,
0,835,620,239,86,472,
0,824,614,237,84,467,
0,811,608,235,83,462,
0,799,602,233,83,457,
0,788,595,231,83,512,
0,886,589,230,81,505,
0,871,583,228,81,502,
0,856,576,258,80,496,
0,844,571,255,79,490,
0,830,564,254,79,485,
0,821,559,252,84,480,
0,808,553,249,83,475,
0,797,547,248,83,470,
0,785,542,245,83,464,
0,775,536,243,82,489,
0,839,531,241,81,512,
0,867,526,239,80,505,
0,854,523,238,79,500,
0,840,663,236,79,495,
0,827,867,233,79,489,
0,814,851,231,98,485,
0,803,838,230,97,480,
0,791,824,228,96,475,
0,779,812,227,95,470,
0,771,799,225,94,465,
0,761,787,224,94,512,
0,890,776,222,93,507,
0,874,766,220,92,500,
0,860,755,219,92,495,
0,847,743,217,91,489,
0,833,734,216,90,484,
0,820,726,214,89,480,
0,808,716,212,88,474,
0,797,707,211,88,469,
0,785,699,221,88,464,
0,775,690,343,87,516,
0,902,680,338,86,510,
0,899,671,335,86,504,
0,884,664,332,84,498,
0,870,655,329,84,493,
0,856,647,326,88,487,
0,843,759,323,88,483,
0,830,883,319,87,477,
0,817,867,318,87,472,
0,806,852,315,86,467,
0,794,842,312,85,512,
0,888,829,310,84,506,
0,873,816,307,83,500,
0,859,803,304,83,495,
0,845,792,302,83,491,
0,831,780,300,83,486,
0,819,769,297,86,480,
0,811,759,295,84,475,
0,799,748,294,83,470,
0,787,737,291,83,465,
0,776,728,289,83,495,
0,839,718,287,82,504,
0,856,709,284,81,499,
0,842,700,281,80,493,
0,829,694,280,79,487,
0,816,775,278,79,482,
0,804,881,275,83,477,
0,792,865,273,82,472,
0,782,851,271,81,468,
0,770,837,269,80,463,
0,760,824,268,79,459,
0,787,812,265,79,520,
0,778,799,263,79,515,
0,766,788,262,78,509,
0,755,776,259,77,504,
0,745,766,258,77,497,
0,736,755,255,79,492,
0,726,744,254,78,487,
0,717,737,252,78,481,
0,708,728,251,78,476,
0,700,718,248,77,472,
0,691,708,247,76,513,
0,776,699,245,76,509,
0,764,690,243,75,504,
0,753,681,241,74,497,
0,743,673,240,73,492,
0,735,665,239,76,487,
0,724,657,237,75,481,
0,716,649,236,75,476,
0,705,641,233,73,472,
0,696,634,231,73,467,
0,688,627,231,73,507,
0,847,620,228,71,501,
0,832,615,227,71,496,
0,819,608,225,71,489,
0,807,601,224,71,484,
0,795,594,223,77,480,
0,783,588,221,88,475,
0,772,582,219,86,470,
0,761,575,219,86,465,
0,754,569,216,85,460,
0,743,563,216,84,504,
0,819,558,214,83,497,
0,806,551,212,83,492,
0,793,547,227,82,486,
0,782,541,225,81,480,
0,770,536,224,81,476,
0,760,531,222,83,470,
0,748,526,220,83,465,
0,738,520,217,82,460,
0,728,515,216,81,455,
0,719,511,215,80,452,
0,746,506,224,79,489,
0,735,502,221,79,483,
0,727,497,220,79,478,
0,716,492,217,78,472,
0,707,487,216,77,467,
0,697,483,215,83,463,
0,689,615,213,83,458,
0,680,669,211,82,453,
0,672,659,209,81,449,
0,664,653,208,81,444,
0,657,644,207,80,476,
0,752,636,206,79,470,
0,742,627,204,79,465,
0,731,620,203,78,462,
0,720,612,201,78,456,
0,711,615,199,86,452,
0,704,735,199,85,448,
0,695,723,198,84,443,
0,685,713,196,83,439,
0,676,704,195,83,434,
0,668,694,194,82,483,
0,753,684,192,81,477,
0,742,675,192,80,472,
0,731,668,191,80,467,
0,720,660,189,79,462,
0,711,652,188,83,456,
0,702,643,187,84,451,
0,692,636,185,83,448,
0,683,628,184,83,444,
0,674,620,208,83,440,
0,665,613,207,81,486,
0,724,606,206,81,480,
0,713,599,204,80,473,
0,704,591,202,79,468,
0,694,585,199,79,463,
0,684,595,199,79,459,
0,675,807,198,80,454,
0,667,797,195,79,449,
0,658,784,194,79,444,
0,651,772,193,78,440,
0,643,761,192,78,494,
0,689,751,190,77,504,
0,679,739,188,76,497,
0,670,729,187,76,492,
0,661,719,185,75,486,
0,655,710,184,75,481,
0,647,700,184,84,476,
0,638,691,182,83,471,
0,632,683,180,83,466,
0,624,674,179,81,461,
0,617,665,179,81,455,
0,611,657,194,80,497,
0,688,652,192,79,492,
0,678,643,191,79,487,
0,668,636,189,79,480,
0,660,628,188,78,476,
0,652,871,186,84,472,
0,643,859,184,83,467,
0,636,845,184,83,462,
0,630,831,182,82,457,
0,622,818,180,82,452,
0,615,807,230,81,504,
0,707,794,241,80,497,
0,697,783,239,79,491,
0,688,771,237,79,486,
0,679,760,235,79,480,
0,670,753,233,82,476,
0,660,743,231,88,471,
0,652,732,229,87,465,
0,644,723,227,86,460,
0,636,713,225,86,457,
0,629,704,380,84,502,
0,694,695,380,84,495,
0,686,686,376,83,489,
0,676,678,372,82,483,
0,668,669,369,81,478,
0,659,661,366,87,473,
0,651,653,363,89,468,
0,642,646,359,88,463,
0,634,638,355,88,459,
0,627,632,353,88,454,
0,619,624,350,87,451,
0,700,617,347,86,448,
0,688,611,344,85,443,
0,679,604,340,84,440,
0,670,597,338,83,435,
0,660,591,335,83,431,
0,652,583,333,83,427,
0,647,577,331,82,423,
0,638,614,327,81,419,
0,630,686,325,81,415,
0,623,675,323,80,412,
0,626,667,331,79,460,
0,703,657,327,79,454,
0,692,652,325,79,449,
0,683,643,322,78,444,
0,674,635,319,77,440,
0,665,665,316,77,435,
0,657,773,315,76,432,
0,647,786,312,76,428,
0,639,774,310,76,423,
0,632,763,307,75,419,
0,627,752,407,75,476,
0,836,740,401,73,470,
0,822,730,396,73,465,
0,808,719,392,72,460,
0,796,711,390,71,455,
0,785,701,385,90,450,
0,774,692,382,89,446,
0,763,685,379,88,441,
0,752,676,376,88,436,
0,742,668,371,87,432,
0,732,659,369,86,494,
0,880,652,366,86,487,
0,864,643,363,85,482,
0,851,636,359,84,476,
0,840,628,357,83,472,
0,827,620,354,83,467,
0,816,769,352,83,462,
0,803,757,348,81,456,
0,792,745,345,81,451,
0,780,735,343,80,448,
0,769,724,339,79,495,
0,867,717,337,79,487,
0,874,707,335,79,482,
0,860,697,332,78,476,
0,846,688,329,77,472,
0,833,679,327,76,467,
0,820,671,324,77,463,
0,808,662,321,76,457,
0,799,654,319,76,453,
0,788,646,317,75,448,
0,777,638,321,75,444,
0,787,631,340,74,502,
0,886,623,337,73,496,
0,870,615,334,72,491,
0,856,608,331,72,484,
0,843,603,327,71,480,
0,830,596,325,71,475,
0,817,590,323,71,470,
0,806,647,319,71,464,
0,793,639,317,70,460,
0,783,631,315,70,455,
0,800,623,406,70,502,
0,900,615,403,69,496,
0,905,607,398,68,491,
0,888,600,395,67,485,
0,873,591,391,67,480,
0,860,585,387,71,475,
0,846,579,384,70,470,
0,833,572,380,70,464,
0,821,568,376,70,460,
0,809,562,374,68,455,
0,798,556,371,68,504,
0,870,551,367,67,498,
0,856,696,364,67,494,
0,841,750,360,67,487,
0,828,738,358,66,483,
0,816,728,355,66,478,
0,807,716,352,67,472,
0,796,707,350,66,467,
0,783,697,347,65,463,
0,774,688,344,65,457,
0,763,679,342,64,508,
0,864,670,338,63,500,
0,871,664,335,63,495,
0,857,655,333,63,489,
0,844,647,330,63,484,
0,831,639,327,62,479,
0,819,632,324,67,475,
0,806,624,323,67,470,
0,795,752,319,66,464,
0,783,739,318,65,460,
0,775,729,341,65,455,
0,785,719,364,64,504,
0,871,709,359,63,497,
0,857,700,356,63,492,
0,844,690,353,63,487,
0,831,680,350,63,481,
0,819,671,348,68,476,
0,807,665,344,67,472,
0,795,657,342,67,466,
0,783,649,338,67,462,
0,772,641,335,65,456,
0,770,633,333,65,496,
0,900,625,329,64,489,
0,888,618,327,63,484,
0,876,611,325,63,480,
0,862,604,323,63,473,
0,848,597,319,65,468,
0,835,590,317,65,463,
0,824,583,315,63,459,
0,811,577,312,63,455,
0,799,571,310,63,449,
0,788,566,307,63,476,
0,899,560,305,62,470,
0,904,553,303,62,465,
0,887,596,301,62,460,
0,871,677,298,61,455,
0,857,667,295,62,451,
0,845,696,294,65,447,
0,835,741,292,64,442,
0,823,730,290,63,438,
0,810,719,287,63,433,
0,799,710,286,63,476,
0,880,700,284,62,469,
0,896,691,282,62,463,
0,880,756,280,61,459,
0,865,817,278,61,454,
0,851,903,276,60,449,
0,839,909,274,61,444,
0,825,907,271,61,440,
0,814,886,270,60,436,
0,802,870,268,60,432,
0,791,856,267,60,428,
0,829,843,265,59,483,
0,905,830,263,59,477,
0,911,817,262,58,472,
0,908,806,259,57,467,
0,886,794,257,57,462,
0,871,888,255,63,456,
0,857,907,254,62,451,
0,844,910,252,62,448,
0,831,911,251,62,443,
0,819,892,248,61,438,
0,824,875,249,60,467,
0,905,860,247,60,463,
0,911,847,246,60,459,
0,903,834,243,59,454,
0,882,822,243,59,449,
0,871,809,240,61,444,
0,857,798,239,60,440,
0,844,787,237,60,435,
0,831,775,236,60,431,
0,819,765,234,59,427,
0,807,755,233,59,478,
0,901,747,231,58,472,
0,911,736,230,57,467,
0,911,728,228,57,462,
0,892,718,227,56,457,
0,876,708,225,81,454,
0,863,827,224,84,449,
0,849,888,222,83,444,
0,836,871,221,83,440,
0,827,857,220,82,435,
0,815,844,257,81,487,
0,892,831,271,81,481,
0,908,818,269,79,476,
0,901,899,266,79,471,
0,881,908,263,79,465,
0,867,911,262,78,461,
0,854,905,259,78,455,
0,840,882,257,77,451,
0,828,867,255,76,447,
0,816,854,254,76,442,
0,804,841,312,76,440,
0,888,828,334,75,495,
0,907,815,331,74,489,
0,905,803,327,73,483,
0,886,792,326,73,479,
0,871,780,323,72,473,
0,857,769,319,71,468,
0,844,759,317,71,463,
0,831,749,314,71,459,
0,819,739,312,71,454,
0,807,732,308,70,449,
0,820,722,307,70,502,
0,903,712,304,69,496,
0,895,704,302,68,489,
0,877,696,299,67,486,
0,863,687,296,67,480,
0,850,678,294,70,476,
0,840,670,292,69,471,
0,828,662,290,68,465,
0,815,654,287,67,460,
0,803,647,286,67,455,
0,792,639,284,67,496,
0,900,632,281,66,489,
0,900,624,279,65,483,
0,882,620,276,65,479,
0,867,638,275,64,473,
0,854,629,272,70,468,
0,840,620,271,71,463,
0,828,613,268,71,460,
0,816,606,266,71,455,
0,804,600,264,70,451,
0,792,593,263,70,508,
0,887,587,261,69,501,
0,897,580,259,68,496,
0,880,575,257,67,489,
0,866,568,255,67,484,
0,852,563,254,67,480,
0,839,719,252,70,474,
0,827,738,249,69,469,
0,814,727,248,68,463,
0,803,716,246,67,460,
0,791,706,244,67,494,
0,882,696,243,67,489,
0,908,687,241,66,483,
0,908,678,239,65,478,
0,889,669,238,65,473,
0,878,660,236,64,468,
0,864,771,235,65,463,
0,851,759,232,65,458,
0,837,748,231,64,454,
0,825,736,230,63,449,
0,813,727,253,63,444,
0,834,716,337,63,500,
0,899,708,333,63,495,
0,883,699,331,62,489,
0,868,689,327,62,484,
0,856,680,324,61,480,
0,841,889,321,79,475,
0,829,905,319,79,470,
0,816,904,316,78,464,
0,807,883,313,77,460,
0,796,869,312,76,455,
0,785,856,308,76,504,
0,900,842,306,75,499,
0,902,829,304,75,492,
0,883,816,301,74,487,
0,869,804,299,73,482,
0,856,796,295,74,477,
0,842,783,294,76,472,
0,830,773,291,76,467,
0,817,763,289,75,462,
0,806,752,287,74,458,
0,794,742,290,73,511,
0,899,732,287,72,504,
0,904,722,285,71,498,
0,889,712,283,71,492,
0,874,704,280,71,487,
0,860,695,279,71,482,
0,847,773,276,73,477,
0,833,864,274,71,472,
0,821,849,271,71,467,
0,809,839,270,71,462,
0,798,825,268,71,513,
0,883,813,266,70,506,
0,879,801,263,70,500,
0,864,789,262,69,496,
0,851,777,260,68,491,
0,838,767,258,68,486,
0,828,755,257,68,480,
0,815,745,255,67,475,
0,803,735,253,67,470,
0,792,725,251,67,465,
0,781,716,249,66,463,
0,814,707,248,65,523,
0,896,697,246,65,517,
0,879,691,243,65,511,
0,865,682,242,63,505,
0,851,673,240,63,499,
0,838,665,239,67,494,
0,825,657,237,67,491,
0,813,650,236,66,486,
0,801,643,233,65,480,
0,790,635,231,65,476,
0,782,628,231,65,532,
0,896,620,230,63,526,
0,882,614,227,63,519,
0,867,607,226,63,513,
0,854,600,224,63,508,
0,840,593,223,67,502,
0,828,588,222,67,497,
0,816,583,220,67,492,
0,803,575,219,66,486,
0,792,570,217,65,481,
0,781,564,216,65,535,
0,851,558,214,64,527,
0,837,552,212,63,521,
0,824,598,211,63,515,
0,814,589,211,63,510,
0,802,582,209,71,504,
0,791,574,207,71,498,
0,779,568,206,71,493,
0,768,739,205,70,487,
0,758,728,204,70,483,
0,748,717,202,69,523,
0,868,710,201,68,516,
0,881,700,199,67,510,
0,867,690,199,67,504,
0,853,681,198,67,499,
0,839,865,196,66,495,
0,827,904,195,79,489,
0,814,911,193,78,484,
0,806,915,192,77,480,
0,793,915,192,76,474,
0,783,906,190,76,470,
0,806,881,220,75,513,
0,857,867,217,74,507,
0,844,854,216,73,501,
0,830,839,215,73,496,
0,818,871,212,73,491,
0,806,905,211,86,485,
0,793,911,209,85,480,
0,782,915,207,84,475,
0,771,916,206,83,471,
0,760,912,204,83,466,
0,763,888,203,82,504,
0,838,871,201,81,499,
0,824,857,199,80,494,
0,812,845,199,79,487,
0,799,831,197,79,483,
0,787,819,195,79,478,
0,775,807,194,79,472,
0,766,796,193,78,467,
0,755,787,191,77,463,
0,744,776,190,77,457,
0,735,766,188,76,504,
0,859,755,188,76,498,
0,844,745,186,75,494,
0,831,736,185,75,488,
0,817,726,184,74,483,
0,808,884,183,78,478,
0,797,906,182,79,472,
0,785,910,180,78,467,
0,774,903,179,77,463,
0,764,881,178,76,457,
0,753,867,177,76,454,
0,876,853,176,76,449,
0,898,843,175,75,444,
0,880,830,174,74,440,
0,866,817,173,73,435,
0,852,806,172,73,432,
0,839,793,171,73,428,
0,826,782,169,72,424,
0,814,771,168,71,420,
0,803,761,167,71,417,
0,793,751,167,71,432,
0,824,740,166,70,482,
0,870,731,165,70,476,
0,856,721,164,69,472,
0,842,711,163,68,466,
0,829,703,162,68,461,
0,817,696,161,84,455,
0,804,688,159,83,451,
0,793,679,159,83,447,
0,782,671,158,82,443,
0,771,663,158,81,439,
0,790,655,156,80,490,
0,881,647,156,79,484,
0,866,639,155,79,480,
0,856,633,153,78,473,
0,843,626,153,78,468,
0,830,620,152,79,463,
0,817,612,151,79,459,
0,805,606,174,78,454,
0,793,599,193,78,449,
0,782,592,192,77,445,
0,771,588,191,76,498,
0,841,582,188,76,492,
0,828,575,188,75,487,
0,816,569,187,75,481,
0,803,625,184,73,476,
0,792,616,184,76,472,
0,780,608,182,76,467,
0,771,600,180,75,462,
0,760,593,179,75,457,
0,751,585,178,73,452,
0,740,579,177,73,497,
0,871,693,175,72,491,
0,882,683,174,71,485,
0,867,673,172,71,480,
0,854,666,171,71,475,
0,839,657,169,71,470,
0,828,648,168,81,464,
0,815,639,167,80,460,
0,803,632,166,79,455,
0,792,624,165,79,451,
0,780,616,188,78,463,
0,835,609,205,78,489,
0,871,601,203,77,483,
0,857,595,201,76,478,
0,844,588,199,76,472,
0,831,580,198,75,467,
0,819,574,196,81,463,
0,806,568,195,80,458,
0,794,563,193,80,454,
0,783,558,192,79,449,
0,772,551,190,79,461,
0,800,546,188,78,512,
0,842,540,187,78,507,
0,828,536,185,77,501,
0,816,529,184,76,496,
0,803,524,184,76,490,
0,795,519,182,76,485,
0,783,748,180,76,480,
0,771,736,179,75,475,
0,761,726,177,75,470,
0,751,716,176,74,464,
0,741,705,176,73,510,
0,780,698,174,72,504,
0,768,688,172,71,498,
0,757,679,172,71,492,
0,746,745,170,71,487,
0,736,733,169,77,483,
0,726,722,167,76,478,
0,717,711,167,76,473,
0,708,839,166,75,468,
0,702,825,166,75,463,
0,693,812,164,74,511,
0,796,799,164,73,504,
0,783,787,163,72,499,
0,771,775,162,71,494,
0,760,894,160,71,487,
0,749,901,159,71,482,
0,739,888,159,79,477,
0,728,871,158,78,472,
0,719,857,156,78,467,
0,710,844,155,77,463,
0,700,898,154,76,483,
0,852,892,153,76,510,
0,879,875,152,75,504,
0,867,860,152,74,499,
0,854,847,151,73,493,
0,840,833,150,73,487,
0,828,881,148,82,482,
0,815,905,147,81,477,
0,803,911,147,81,472,
0,792,914,169,80,467,
0,780,913,167,79,463,
0,822,899,166,79,484,
0,871,877,165,79,480,
0,857,863,163,78,473,
0,844,849,163,77,470,
0,831,895,161,76,465,
0,819,894,159,79,460,
0,809,876,159,78,455,
0,798,862,158,78,451,
0,786,847,156,77,446,
0,775,835,155,76,441,
0,765,823,177,76,499,
0,755,810,176,75,494,
0,745,799,174,75,487,
0,736,791,173,74,483,
0,726,780,171,73,478,
0,716,900,169,77,472,
0,707,909,168,76,467,
0,699,911,167,76,463,
0,690,906,166,75,459,
0,682,883,164,75,454,
0,675,868,164,73,507,
0,777,854,162,73,500,
0,765,840,161,72,495,
0,754,828,206,71,489,
0,743,816,204,71,484,
0,733,831,202,82,479,
0,723,882,199,83,473,
0,713,871,199,82,469,
0,704,856,199,81,463,
0,695,843,225,80,459,
0,686,829,223,79,516,
0,831,816,221,79,511,
0,821,804,219,79,504,
0,808,792,217,78,499,
0,796,782,216,78,494,
0,787,771,214,77,487,
0,776,760,212,78,483,
0,766,856,211,78,478,
0,755,903,209,77,473,
0,743,891,207,76,467,
0,734,873,206,76,465,
0,780,863,204,76,504,
0,880,849,203,75,497,
0,864,835,201,74,492,
0,851,824,199,73,487,
0,838,811,198,73,482,
0,824,799,196,79,477,
0,812,787,195,78,472,
0,800,775,194,77,467,
0,792,765,192,76,462,
0,780,754,191,76,457,
0,771,744,190,76,506,
0,899,735,188,75,499,
0,885,799,187,74,494,
0,870,902,185,73,488,
0,856,904,184,72,483,
0,844,903,183,83,478,
0,830,910,182,82,473,
0,817,911,180,81,468,
0,806,904,179,80,463,
0,795,881,177,79,460,
0,783,867,176,79,511,
0,901,853,175,78,504,
0,907,839,174,78,498,
0,893,827,173,77,492,
0,876,815,172,76,487,
0,862,803,171,78,482,
0,849,813,169,77,477,
0,836,902,167,76,472,
0,824,910,167,76,467,
0,812,913,185,76,462,
0,799,915,184,75,532,
0,893,911,182,74,526,
0,908,885,180,73,519,
0,904,899,179,73,515,
0,884,884,177,72,509,
0,870,890,176,71,504,
0,860,906,175,79,498,
0,847,911,214,79,492,
0,833,915,211,78,487,
0,820,918,209,78,482,
0,809,918,207,77,491,
0,856,908,206,76,520,
0,900,881,204,76,515,
0,883,894,203,76,508,
0,868,908,201,75,504,
0,855,913,199,74,497,
0,842,915,198,75,492,
0,829,911,196,75,487,
0,816,887,195,73,483,
0,806,871,193,73,478,
0,793,857,192,72,473,
0,786,845,276,71,523,
0,903,831,272,71,515,
0,911,819,270,71,510,
0,910,807,268,70,504,
0,888,796,265,70,499,
0,873,810,263,73,494,
0,860,799,260,73,487,
0,847,788,259,72,483,
0,834,777,255,71,478,
0,822,768,255,71,473,
0,811,757,366,71,524,
0,903,746,360,70,518,
0,911,736,356,70,512,
0,911,727,354,69,506,
0,899,892,352,68,500,
0,880,888,348,83,495,
0,865,871,344,81,489,
0,852,857,342,81,484,
0,839,844,339,80,480,
0,827,831,335,79,475,
0,815,821,334,79,492,
0,899,808,330,78,486,
0,908,796,327,78,480,
0,896,889,324,77,475,
0,878,882,322,76,472,
0,864,867,319,76,466,
0,851,859,316,76,462,
0,838,898,315,76,456,
0,828,880,312,75,452,
0,816,865,310,75,448,
0,804,852,307,74,481,
0,876,838,340,73,494,
0,908,825,337,72,488,
0,909,813,334,71,483,
0,891,801,331,71,478,
0,875,792,327,71,472,
0,861,817,326,78,467,
0,847,803,323,78,463,
0,835,792,319,77,458,
0,823,780,317,76,455,
0,811,769,315,76,450,
0,852,759,312,75,502,
0,896,748,310,75,496,
0,880,738,307,73,491,
0,865,728,305,73,486,
0,851,719,303,72,480,
0,839,779,300,74,475,
0,827,900,297,73,470,
0,814,909,295,73,464,
0,802,911,293,72,460,
0,792,903,297,71,455,
0,780,880,295,71,520,
0,876,865,292,71,515,
0,862,851,290,70,510,
0,848,867,288,70,504,
0,835,905,286,69,499,
0,825,911,284,77,493,
0,813,911,281,76,487,
0,801,894,280,76,483,
0,790,876,278,75,478,
0,779,861,275,75,472,
0,768,848,274,74,524,
0,888,835,271,73,516,
0,884,886,270,72,511,
0,868,906,268,71,504,
0,856,911,265,71,499,
0,842,913,263,71,494,
0,829,903,262,73,489,
0,816,880,260,73,484,
0,804,866,258,72,480,
0,793,852,257,71,475,
0,784,839,255,71,494,
0,868,826,277,71,516,
0,907,814,275,70,511,
0,907,802,271,70,504,
0,888,791,270,69,499,
0,872,780,268,69,494,
0,859,771,265,79,487,
0,846,761,263,77,483,
0,833,751,261,76,478,
0,820,740,259,76,473,
0,808,731,257,76,470,
0,860,721,338,75,513,
0,905,711,335,74,507,
0,897,703,332,73,502,
0,883,694,329,73,496,
0,869,686,327,71,490,
0,856,677,323,81,485,
0,842,669,321,81,480,
0,830,661,318,79,475,
0,817,653,315,79,470,
0,806,646,312,79,465,
0,794,639,310,78,514,
0,903,632,307,78,508,
0,900,625,304,77,502,
0,882,619,302,76,496,
0,867,611,300,76,492,
0,854,605,297,79,487,
0,841,688,295,79,482,
0,831,850,294,78,476,
0,819,835,291,78,472,
0,807,822,288,77,467,
0,796,810,326,76,531,
0,896,797,335,76,524,
0,899,785,332,75,518,
0,881,774,329,74,512,
0,867,765,327,73,507,
0,854,848,323,77,501,
0,839,902,321,83,496,
0,827,908,318,82,490,
0,815,899,315,81,487,
0,803,879,312,81,481,
0,792,864,311,80,516,
0,865,850,308,79,529,
0,900,837,305,79,523,
0,883,824,303,78,516,
0,868,812,300,78,511,
0,855,799,297,78,505,
0,841,788,295,79,499,
0,829,777,294,79,494,
0,816,769,291,79,489,
0,804,759,289,78,483,
0,793,748,287,78,480,
0,856,739,284,77,494,
0,885,728,282,76,489,
0,870,719,280,76,484,
0,856,710,278,75,479,
0,846,700,276,75,474,
0,833,692,274,76,469,
0,820,683,271,76,463,
0,808,675,270,75,460,
0,797,667,268,74,455,
0,785,659,266,73,451,
0,775,651,263,72,487,
0,899,646,262,71,483,
0,883,638,260,71,478,
0,869,630,258,71,472,
0,856,623,255,71,467,
0,842,738,254,81,463,
0,829,728,252,80,459,
0,817,716,251,79,454,
0,804,706,249,79,449,
0,796,696,248,79,444,
0,785,688,246,78,496,
0,896,678,243,77,491,
0,884,669,246,76,485,
0,870,759,243,76,480,
0,856,768,241,75,474,
0,842,758,240,79,470,
0,829,747,238,87,463,
0,817,736,236,86,459,
0,804,726,235,85,455,
0,793,716,233,84,451,
0,782,706,265,83,508,
0,889,696,262,83,510,
0,874,687,260,82,504,
0,863,692,258,81,499,
0,849,850,255,81,493,
0,836,835,254,83,487,
0,824,822,252,85,483,
0,812,809,249,84,477,
0,799,797,248,83,472,
0,788,785,246,83,467,
0,777,777,243,82,487,
0,851,766,241,81,497,
0,893,755,240,81,492,
0,876,744,238,80,487,
0,863,734,236,79,483,
0,849,803,234,79,477,
0,835,791,233,82,472,
0,827,779,231,81,467,
0,814,768,230,80,462,
0,803,756,227,79,457,
0,791,745,227,79,454,
0,780,735,262,79,497,
0,882,725,259,78,491,
0,867,715,255,78,486,
0,854,707,254,77,480,
0,840,699,252,76,475,
0,827,689,249,78,470,
0,815,743,248,76,465,
0,803,732,246,76,461,
0,792,721,243,75,456,
0,780,711,241,75,451,
0,771,701,240,74,505,
0,893,691,238,73,499,
0,880,683,236,73,494,
0,865,781,235,71,487,
0,851,768,233,71,482,
0,839,757,231,83,477,
0,825,775,230,81,472,
0,814,765,227,81,467,
0,801,753,226,80,462,
0,790,743,224,79,457,
0,779,732,223,79,458,
0,896,722,221,78,455,
0,904,711,220,78,449,
0,888,702,219,78,446,
0,876,842,217,76,440,
0,862,828,216,76,436,
0,849,815,214,77,432,
0,835,802,212,76,428,
0,824,790,211,76,424,
0,812,779,210,75,420,
0,799,768,208,74,458,
0,870,760,230,74,470,
0,905,748,227,73,465,
0,896,737,225,73,460,
0,879,841,224,71,455,
0,864,867,222,71,451,
0,851,852,220,73,447,
0,838,839,218,72,441,
0,825,825,216,71,438,
0,816,813,215,71,433,
0,804,801,214,71,429,
0,793,789,211,71,481,
0,903,777,210,70,476,
0,910,767,209,70,471,
0,900,755,207,69,466,
0,880,748,206,68,461,
0,867,737,204,75,455,
0,853,728,203,73,451,
0,840,718,201,72,447,
0,828,708,199,71,442,
0,816,707,199,71,440,
0,814,878,254,71,435,
0,905,862,251,71,430,
0,910,847,248,70,426,
0,907,834,247,69,422,
0,886,822,244,69,418,
0,871,809,242,70,414,
0,857,797,240,69,410,
0,844,785,239,69,407,
0,831,774,236,68,403,
0,819,766,235,67,399,
0,807,755,232,67,455,
0,894,745,231,67,449,
0,880,759,229,66,445,
0,865,886,227,65,441,
0,851,870,225,65,436,
0,838,855,224,76,432,
0,828,841,223,77,428,
0,816,828,220,76,423,
0,803,815,219,75,419,
0,792,803,217,75,415,
0,781,792,216,74,470,
0,864,780,214,73,473,
0,898,769,212,72,468,
0,881,761,211,71,463,
0,867,750,209,71,457,
0,853,739,207,71,454,
0,839,781,207,77,448,
0,827,886,204,76,445,
0,815,870,204,76,440,
0,803,856,202,75,436,
0,794,842,200,74,432,
0,815,829,255,73,483,
0,905,816,254,73,477,
0,910,804,251,71,472,
0,897,792,248,71,467,
0,879,780,247,71,462,
0,865,855,244,71,456,
0,851,901,243,71,452,
0,839,909,240,71,448,
0,826,911,239,70,443,
0,814,899,236,70,439,
0,803,879,235,69,497,
0,903,864,233,68,491,
0,908,850,231,67,486,
0,892,836,230,67,480,
0,880,888,228,67,475,
0,866,906,227,88,470,
0,852,911,224,88,465,
0,839,915,223,87,460,
0,827,917,221,86,455,
0,815,918,219,85,451,
0,803,913,217,84,499,
0,860,886,216,83,494,
0,846,871,215,83,487,
0,831,903,213,82,483,
0,819,910,211,81,479,
0,807,913,209,82,473,
0,796,912,207,84,468,
0,784,915,207,83,463,
0,775,918,205,83,459,
0,766,919,204,82,454,
0,755,913,272,81,449,
0,847,885,288,80,445,
0,854,871,286,80,440,
0,839,903,283,79,436,
0,826,910,280,79,432,
0,814,912,278,78,428,
0,802,913,275,83,423,
0,790,915,273,81,419,
0,779,918,271,81,415,
0,768,919,269,79,413,
0,758,911,268,79,409,
0,828,883,317,79,472,
0,860,868,313,78,465,
0,845,855,311,78,460,
0,831,841,307,77,455,
0,819,828,305,76,451,
0,807,870,303,79,446,
0,795,881,300,78,441,
0,783,866,297,78,437,
0,772,855,295,77,432,
0,761,841,292,76,428,
0,752,829,290,76,502,
0,831,816,287,75,496,
0,818,804,285,75,492,
0,806,792,283,74,486,
0,793,781,280,73,480,
0,785,889,279,79,476,
0,774,906,276,79,470,
0,763,911,275,78,465,
0,752,915,272,78,460,
0,743,917,270,77,455,
0,732,916,268,76,523,
0,844,895,266,76,515,
0,830,879,263,76,510,
0,817,864,262,75,504,
0,804,851,259,74,499,
0,792,838,258,89,493,
0,781,825,255,98,489,
0,770,814,254,97,483,
0,760,801,252,96,479,
0,752,790,251,96,475,
0,742,779,249,95,508,
0,857,768,291,94,501,
0,869,758,287,93,496,
0,855,748,285,92,489,
0,841,737,283,92,484,
0,828,728,280,91,480,
0,816,880,278,91,474,
0,803,889,275,91,469,
0,792,872,273,90,463,
0,780,859,271,89,460,
0,769,844,268,88,455,
0,867,831,266,88,502,
0,905,819,263,87,496,
0,897,807,263,87,491,
0,883,795,260,86,485,
0,869,783,259,85,480,
0,856,771,255,87,475,
0,842,761,254,86,470,
0,830,784,252,85,464,
0,817,844,250,84,460,
0,806,834,371,84,455,
0,796,821,391,83,505,
0,889,807,386,83,499,
0,874,796,383,82,494,
0,860,783,379,81,489,
0,846,772,376,81,484,
0,833,761,371,81,480,
0,820,750,369,80,475,
0,812,740,366,79,470,
0,799,737,448,79,463,
0,788,728,443,79,460,
0,777,718,439,78,497,
0,827,708,434,77,492,
0,814,700,430,76,486,
0,801,691,425,76,480,
0,790,684,422,76,476,
0,778,676,418,76,471,
0,768,880,414,76,465,
0,756,879,411,75,460,
0,747,864,407,75,457,
0,737,849,403,73,452,
0,728,836,399,73,511,
0,847,824,396,72,504,
0,856,811,393,71,497,
0,843,799,390,71,492,
0,829,787,387,71,487,
0,816,775,384,78,481,
0,804,825,380,85,476,
0,792,898,377,84,472,
0,782,886,374,83,466,
0,771,870,371,83,462,
0,760,856,371,82,511,
0,856,843,406,81,507,
0,869,829,401,81,503,
0,855,816,398,79,497,
0,841,894,393,79,491,
0,831,904,391,79,486,
0,819,889,387,87,481,
0,807,902,384,86,476,
0,795,910,380,84,471,
0,783,913,377,84,465,
0,772,915,374,83,461,
0,775,905,399,83,515,
0,877,883,396,82,509,
0,862,869,391,81,504,
0,848,856,388,81,497,
0,835,842,384,80,492,
0,823,830,381,87,487,
0,811,817,377,86,483,
0,798,805,375,85,478,
0,790,793,371,84,472,
0,779,782,369,83,468,
0,768,771,366,83,534,
0,898,760,363,82,527,
0,889,750,359,81,520,
0,874,740,356,81,515,
0,860,730,353,79,508,
0,847,723,351,86,504,
0,833,713,348,86,497,
0,822,704,345,85,492,
0,809,696,343,84,487,
0,798,687,340,83,483,
0,787,679,337,83,496,
0,897,671,335,82,490,
0,907,663,333,81,484,
0,900,655,331,81,480,
0,881,670,327,80,475,
0,867,795,326,80,470,
0,854,783,323,80,464,
0,839,771,321,79,460,
0,828,759,319,79,455,
0,815,751,316,79,451,
0,803,740,313,78,508,
0,883,729,312,77,501,
0,906,839,311,76,495,
0,895,824,308,76,491,
0,878,811,306,75,486,
0,864,798,304,75,480,
0,850,894,302,79,475,
0,840,907,300,79,470,
0,828,910,297,78,465,
0,816,896,295,77,460,
0,803,877,294,76,455,
0,812,863,291,76,515,
0,890,849,289,76,510,
0,874,835,287,75,504,
0,860,826,285,74,499,
0,847,814,284,73,493,
0,834,852,281,76,487,
0,822,903,280,75,483,
0,809,911,278,75,479,
0,798,914,275,73,473,
0,786,915,273,73,469,
0,778,908,272,72,531,
0,887,881,270,71,525,
0,871,866,268,71,519,
0,857,852,267,71,513,
0,844,839,264,71,508,
0,831,828,263,81,502,
0,818,815,261,81,496,
0,806,806,259,79,491,
0,794,794,257,79,486,
0,783,783,255,79,480,
0,772,772,255,78,489,
0,897,761,278,77,486,
0,906,751,275,76,480,
0,891,741,271,76,475,
0,879,731,270,76,470,
0,865,760,268,77,465,
0,851,747,265,78,460,
0,838,736,263,77,455,
0,825,726,261,76,451,
0,813,716,259,76,448,
0,801,707,262,75,503,
0,890,700,293,75,496,
0,908,691,290,73,490,
0,911,683,287,73,484,
0,898,674,285,72,480,
0,879,665,283,71,475,
0,865,658,280,79,470,
0,851,650,278,79,465,
0,839,643,275,78,460,
0,829,702,273,78,455,
0,817,692,271,77,451,
0,824,682,336,76,503,
0,901,672,333,76,496,
0,886,664,329,75,491,
0,871,655,327,74,486,
0,857,648,323,74,480,
0,844,639,321,75,475,
0,831,633,318,74,470,
0,818,625,316,73,465,
0,806,619,312,73,462,
0,795,611,310,71,456,
0,790,606,307,71,508,
0,862,647,306,71,503,
0,851,881,303,71,496,
0,836,865,300,70,491,
0,824,851,298,70,486,
0,812,838,295,79,480,
0,799,824,294,79,476,
0,787,812,291,78,470,
0,776,799,288,78,465,
0,766,790,287,77,460,
0,756,779,379,76,508,
0,892,768,378,76,502,
0,877,757,374,75,496,
0,863,747,371,74,492,
0,849,736,367,73,487,
0,835,727,364,86,482,
0,826,717,361,86,476,
0,814,707,358,84,472,
0,801,698,355,84,467,
0,791,689,352,83,462,
0,779,680,349,83,519,
0,881,671,345,81,511,
0,908,664,343,81,505,
0,908,658,339,80,499,
0,888,650,337,79,495,
0,873,643,335,79,489,
0,860,635,332,86,483,
0,847,627,329,84,480,
0,833,620,326,83,475,
0,821,613,323,83,470,
0,812,606,321,83,465,
0,830,600,319,82,505,
0,903,593,316,81,499,
0,895,587,314,80,494,
0,878,580,312,79,487,
0,864,574,309,79,483,
0,850,568,307,86,478,
0,837,563,304,85,472,
0,824,558,302,84,467,
0,812,552,300,83,463,
0,800,547,297,83,458,
0,812,542,295,82,505,
0,903,536,293,81,499,
0,895,531,291,81,494,
0,881,525,289,79,487,
0,867,519,287,79,483,
0,853,550,285,88,478,
0,839,542,283,87,472,
0,827,536,280,86,467,
0,815,529,279,85,463,
0,803,524,276,84,457,
0,792,519,286,84,514,
0,876,514,283,83,508,
0,861,509,280,83,502,
0,847,504,278,82,496,
0,834,499,275,81,492,
0,822,495,273,88,487,
0,809,490,271,88,481,
0,798,486,270,88,476,
0,788,481,268,87,472,
0,777,477,265,86,467,
0,768,473,279,86,466,
0,882,468,333,84,460,
0,885,464,329,83,455,
0,870,460,327,83,451,
0,856,457,323,83,448,
0,844,665,320,82,443,
0,830,768,318,95,439,
0,817,756,315,94,434,
0,806,745,312,93,431,
0,793,734,310,92,427,
0,783,723,307,91,451,
0,853,714,305,91,493,
0,842,704,303,89,487,
0,828,695,300,89,482,
0,816,685,297,88,476,
0,803,676,295,88,472,
0,792,668,293,89,467,
0,780,659,291,88,461,
0,769,651,288,88,455,
0,759,645,286,87,451,
0,749,638,284,86,448,
0,796,631,281,86,491,
0,846,623,280,85,486,
0,831,615,277,84,481,
0,819,608,275,83,476,
0,807,615,273,83,471,
0,798,608,271,83,467,
0,787,600,269,82,462,
0,775,593,268,81,455,
0,764,587,265,81,451,
0,754,580,263,80,448,
0,743,575,379,79,483,
0,877,568,374,79,478,
0,862,563,369,79,472,
0,849,615,366,78,467,
0,835,695,363,78,462,
0,822,684,359,79,457,
0,809,675,356,78,454,
0,799,794,353,77,449,
0,787,780,350,77,444,
0,779,768,348,76,440,
0,768,756,345,76,488,
0,883,745,342,75,483,
0,867,735,339,75,477,
0,854,725,336,73,472,
0,839,896,333,73,467,
0,827,902,331,79,462,
0,814,888,327,79,456,
0,801,871,325,79,451,
0,791,857,323,78,448,
0,780,844,319,78,443,
0,768,831,317,77,455,
0,876,818,315,76,489,
0,878,806,312,76,484,
0,867,794,311,75,479,
0,853,881,307,75,473,
0,839,866,305,73,468,
0,827,852,303,78,463,
0,814,839,300,77,459,
0,802,825,298,76,454,
0,791,813,295,76,449,
0,780,803,294,75,460,
0,826,792,291,75,523,
0,904,780,289,74,516,
0,900,769,287,73,510,
0,881,759,285,73,505,
0,867,878,283,71,500,
0,854,905,281,79,495,
0,839,910,280,79,489,
0,831,905,277,78,484,
0,818,883,275,78,480,
0,807,868,273,77,474,
0,795,856,271,76,523,
0,850,841,269,76,516,
0,836,828,268,75,511,
0,823,819,265,75,505,
0,811,807,263,74,499,
0,799,894,262,77,495,
0,787,908,259,76,489,
0,776,911,258,76,485,
0,766,903,255,75,480,
0,755,881,254,75,475,
0,745,867,253,73,518,
0,865,853,251,73,511,
0,849,839,249,72,504,
0,836,827,248,71,499,
0,824,899,246,71,494,
0,811,908,244,79,487,
0,799,913,243,82,483,
0,787,915,241,81,478,
0,775,916,240,80,473,
0,765,908,238,79,467,
0,755,881,236,79,512,
0,873,867,238,79,505,
0,883,854,236,78,501,
0,868,840,235,77,496,
0,855,828,233,76,490,
0,844,900,231,76,484,
0,831,903,231,81,480,
0,819,886,228,81,475,
0,807,870,227,80,470,
0,795,856,226,79,464,
0,783,843,224,79,460,
0,831,830,223,79,499,
0,903,820,222,78,494,
0,891,808,220,77,487,
0,874,796,219,77,483,
0,860,785,217,76,478,
0,847,774,216,79,473,
0,834,764,215,78,468,
0,822,753,213,78,463,
0,812,743,215,77,459,
0,801,734,212,76,455,
0,803,825,211,75,493,
0,904,812,209,75,487,
0,911,799,208,74,481,
0,911,787,207,73,476,
0,894,775,206,73,472,
0,877,892,205,79,466,
0,863,907,204,78,461,
0,849,911,202,77,456,
0,837,915,200,76,451,
0,824,914,199,76,448,
0,812,896,199,75,499,
0,901,876,197,75,494,
0,896,902,196,74,487,
0,883,908,219,73,483,
0,868,899,217,72,478,
0,854,878,215,78,472,
0,841,864,213,77,467,
0,828,851,211,76,462,
0,816,838,209,76,457,
0,804,828,207,76,452,
0,793,816,207,75,502,
0,894,804,204,74,495,
0,908,792,203,73,489,
0,904,781,201,72,486,
0,883,771,199,71,480,
0,870,760,199,71,476,
0,856,749,198,81,470,
0,846,739,195,79,465,
0,833,729,195,79,460,
0,820,719,193,79,455,
0,808,711,192,78,467,
0,879,702,248,78,497,
0,908,693,246,76,492,
0,913,684,243,76,486,
0,911,679,241,76,480,
0,889,670,240,75,476,
0,875,662,238,83,471,
0,861,654,236,83,465,
0,847,647,233,82,462,
0,835,639,231,82,456,
0,822,632,231,81,452,
0,814,624,229,80,502,
0,903,617,227,79,496,
0,909,611,225,79,489,
0,896,604,224,78,484,
0,878,598,222,78,480,
0,864,591,220,78,474,
0,851,683,219,77,468,
0,838,675,216,77,463,
0,825,665,215,76,459,
0,813,656,214,76,455,
0,801,648,211,75,508,
0,890,639,210,74,504,
0,874,748,208,73,498,
0,860,736,207,73,492,
0,850,726,206,72,487,
0,837,715,204,75,482,
0,824,705,203,73,477,
0,812,696,201,73,472,
0,799,686,199,73,467,
0,788,678,199,71,462,
0,778,724,197,71,457,
0,894,736,195,71,452,
0,909,725,194,71,448,
0,913,715,192,70,444,
0,911,704,192,70,440,
0,888,696,190,70,436,
0,873,686,189,73,432,
0,860,676,188,72,428,
0,849,668,187,71,423,
0,836,659,185,71,420,
0,824,651,184,71,443,
0,873,643,184,71,476,
0,908,635,183,70,471,
0,910,627,182,69,465,
0,892,620,180,68,460,
0,876,614,179,68,455,
0,862,780,178,77,451,
0,849,766,176,76,446,
0,835,755,176,76,441,
0,824,743,175,75,438,
0,811,733,174,74,434,
0,843,723,172,73,487,
0,898,712,172,73,481,
0,885,703,171,71,476,
0,870,694,185,71,472,
0,856,772,184,71,466,
0,844,760,183,78,460,
0,830,748,181,77,455,
0,817,737,179,76,451,
0,806,729,178,76,447,
0,795,719,177,75,443,
0,783,710,259,75,509,
0,902,699,255,74,503,
0,908,689,253,73,499,
0,892,680,251,72,493,
0,876,840,248,71,487,
0,862,896,248,78,482,
0,851,878,245,77,477,
0,839,863,243,76,472,
0,827,895,241,76,467,
0,814,908,239,75,462,
0,803,910,237,75,499,
0,897,899,235,74,494,
0,904,878,233,73,487,
0,887,867,231,72,483,
0,871,853,230,71,477,
0,857,839,228,71,472,
0,844,827,226,79,467,
0,831,815,224,79,463,
0,819,803,223,78,459,
0,807,792,222,77,454,
0,799,780,220,77,473,
0,880,769,218,76,495,
0,905,759,216,76,488,
0,891,748,215,75,483,
0,876,738,214,74,478,
0,861,728,211,73,472,
0,847,719,210,89,467,
0,835,711,208,88,463,
0,823,703,207,88,458,
0,809,694,206,87,454,
0,799,685,204,86,470,
0,864,677,203,85,508,
0,876,668,201,84,503,
0,861,660,199,83,497,
0,851,879,199,83,492,
0,838,863,197,82,486,
0,824,881,195,83,480,
0,812,906,194,82,476,
0,800,911,193,81,471,
0,788,909,192,81,465,
0,777,888,191,80,461,
0,768,876,189,79,520,
0,864,862,188,79,514,
0,850,847,186,78,508,
0,837,902,185,78,503,
0,824,910,184,77,499,
0,812,914,183,86,493,
0,799,915,181,85,487,
0,791,911,180,84,483,
0,780,885,179,83,478,
0,768,870,177,83,472,
0,759,857,177,83,536,
0,896,844,175,81,527,
0,900,830,174,81,521,
0,882,888,173,80,516,
0,867,903,172,79,510,
0,854,905,171,79,504,
0,840,886,169,83,499,
0,828,870,167,83,494,
0,815,856,167,82,489,
0,803,843,167,81,484,
0,792,830,166,81,517,
0,894,817,164,79,519,
0,887,806,163,79,514,
0,871,896,167,79,508,
0,857,908,165,78,503,
0,844,911,163,78,497,
0,831,904,163,92,492,
0,818,880,161,92,487,
0,807,870,160,91,481,
0,795,856,159,90,476,
0,783,843,220,89,499,
0,873,830,259,88,524,
0,903,817,257,88,519,
0,888,805,255,88,513,
0,873,793,252,87,508,
0,860,782,251,86,502,
0,849,771,248,94,496,
0,836,761,246,93,491,
0,824,751,244,92,486,
0,812,740,242,92,481,
0,799,731,240,91,476,
0,823,721,238,90,505,
0,905,711,236,89,500,
0,909,705,235,88,495,
0,892,696,232,88,489,
0,876,838,231,88,483,
0,863,824,229,95,479,
0,849,810,227,94,475,
0,835,798,225,93,470,
0,824,785,224,92,465,
0,815,774,223,91,460,
0,803,764,221,91,500,
0,899,752,219,89,494,
0,900,741,217,89,488,
0,882,892,265,88,483,
0,867,904,262,88,477,
0,855,893,260,87,472,
0,841,879,257,93,467,
0,828,864,255,92,462,
0,816,850,253,91,457,
0,804,837,251,91,453,
0,793,824,280,89,477,
0,899,812,277,89,475,
0,911,799,274,88,470,
0,913,788,272,88,464,
0,909,811,270,87,460,
0,887,871,268,86,455,
0,871,856,265,87,450,
0,858,842,263,86,446,
0,845,829,261,86,441,
0,831,816,259,85,437,
0,819,807,257,84,476,
0,887,795,255,83,497,
0,908,783,252,83,492,
0,909,772,251,83,486,
0,892,819,248,81,482,
0,876,881,247,81,476,
0,862,866,244,120,470,
0,847,851,243,118,465,
0,835,838,241,116,460,
0,823,824,239,115,455,
0,811,812,238,115,460,
0,885,797,236,113,486,
0,908,785,233,112,480,
0,911,775,231,112,475,
0,896,764,231,111,470,
0,878,753,228,110,465,
0,860,743,227,110,459,
0,847,732,225,109,454,
0,835,723,223,108,449,
0,822,713,222,107,444,
0,809,704,220,106,495,
0,892,694,219,105,487,
0,892,684,217,104,483,
0,876,676,216,103,477,
0,861,668,214,103,472,
0,847,660,212,102,467,
0,831,652,211,102,460,
0,819,644,209,102,455,
0,807,638,207,100,451,
0,796,630,206,99,447,
0,783,623,205,99,508,
0,895,615,203,98,504,
0,880,609,201,97,497,
0,865,602,199,97,492,
0,852,595,199,96,487,
0,842,655,198,96,481,
0,829,647,196,99,476,
0,816,638,195,99,472,
0,805,630,194,98,466,
0,793,622,192,97,461,
0,782,614,192,97,503,
0,882,606,190,96,498,
0,907,600,190,95,493,
0,907,739,315,94,487,
0,885,748,312,94,481,
0,871,737,308,93,476,
0,856,727,305,95,472,
0,844,716,303,94,467,
0,831,706,300,93,463,
0,822,696,297,92,457,
0,809,688,295,92,454,
0,818,679,292,91,494,
0,880,669,291,91,487,
0,865,661,287,89,483,
0,851,652,286,89,478,
0,838,644,284,88,472,
0,825,639,281,100,467,
0,813,628,279,99,463,
0,801,623,276,98,457,
0,790,615,275,97,453,
0,779,608,271,96,448,
0,819,601,270,96,486,
0,903,594,268,95,481,
0,893,588,266,94,476,
0,876,582,263,94,472,
0,862,575,262,93,466,
0,852,569,260,99,461,
0,839,563,259,98,455,
0,826,558,255,97,451,
0,814,551,254,96,447,
0,802,546,252,95,442,
0,791,541,251,95,479,
0,886,536,248,94,473,
0,870,531,247,93,467,
0,856,527,245,92,463,
0,844,537,243,92,457,
0,830,612,241,91,453,
0,817,604,240,95,449,
0,805,596,238,94,444,
0,793,589,236,92,440,
0,785,582,235,92,436,
0,774,575,233,92,435,
0,872,568,231,91,431,
