=~=~=~=~=~=~=~=~=~=~=~= PuTTY log 2021.04.22 12:04:30 =~=~=~=~=~=~=~=~=~=~=~=
5179,
0,27,818,172,134,178,
0,61,839,170,132,177,
0,60,825,16120,145,
0,48,807,135,1189,873,140,123,143,
0,49,859,139,122,142,
0,48,847,138,121,147,
0,48,834,136,120,146,
0,48,820,135,120,145,
0,48,807,135,118,143,
0,47,796,134,117,143,
0,47,78142,
0,48,847,138,121,147,
0,48,834,136,120,146,
0,48,820,135,120,145,
0,48,807,135,118,143,
0,47,796,134,117,143,
0,47,783,134,116,142,
0,47,772,132,115,141,
0,46,761,131,126,140,
0,46,846,131,125,139,
0,46,8L)bbbj
0,46,818,129,123,163,
0,45,804,127,122,16StartUp!
121,519,751,131,458,145,
0,515,743,190,455,144,
0,511,736,191,451,143,
0,507,728,189,448,143,
0,503,719,188,444,142,
0,499,711,186,441,141,
0,495,704,185,438,140,
0,491,696,184,436,140,
0,487,689,183,432,139,
0,483,683,182,429,138,
0,480,674,180,457,137,
0,501,740,179,453,135,
0,497,728,177,448,135,
0,492,718,176,444,135,
0,487,707,174,439,135,
0,481,697,172,435,134,
0,476,688,172,430,132,
0,472,676,170,425,131,
0,466,667,168,422,131,
0,462,659,167,417,129,
0,457,695,167,446,128,
0,498,734,164,440,127,
0,491,723,163,435,132,
0,486,712,162,431,131,
0,480,702,161,427,131,
0,475,692,163,423,129,
0,470,683,161,419,128,
0,464,671,159,414,127,
0,460,662,159,410,127,
0,455,654,158,407,126,
0,451,728,158,435,126,
0,511,716,156,431,124,
0,504,705,156,427,179,
0,497,696,174,422,177,
0,492,685,172,418,175,
0,487,675,172,414,174,
0,481,666,171,410,172,
0,476,655,169,406,171,
0,471,647,167,402,169,
0,465,639,167,399,167,
2,462,732,166,467,167,
3,512,719,164,462,165,
4,504,710,164,457,201,
5,499,699,172,452,199,
6,494,689,199,448,196,
7,488,679,205,444,195,
7,483,670,203,440,193,
8,478,659,201,433,192,
9,472,651,199,429,190,
9,467,642,198,438,188,
9,480,743,196,473,187,
10,540,732,194,468,185,
11,533,721,220,463,224,
11,527,708,217,457,221,
11,519,698,216,452,219,
11,513,688,213,448,216,
11,508,679,211,444,215,
12,502,668,209,438,213,
12,496,659,207,434,211,
12,491,715,206,489,209,
12,526,749,204,482,207,
12,519,737,202,478,230,
12,512,727,217,472,231,
11,506,716,216,467,229,
12,500,704,214,461,227,
12,495,694,211,455,225,
11,488,684,209,451,223,
11,483,675,207,448,221,
11,479,664,206,477,220,
11,531,770,204,476,217,
11,524,758,203,470,215,
11,519,743,200,463,215,
11,512,733,199,459,213,
11,505,722,222,455,211,
10,499,711,220,449,209,
10,494,700,217,444,207,
10,489,689,216,440,206,
9,482,680,214,436,204,
9,478,780,211,475,203,
9,511,768,210,469,200,
9,504,754,208,463,224,
9,499,743,217,460,222,
9,494,729,216,455,220,
9,487,719,214,448,217,
9,483,709,211,444,216,
8,478,699,209,440,214,
8,472,689,207,435,212,
8,467,679,206,432,211,
7,475,792,204,470,208,
7,508,777,203,464,207,
7,503,765,203,460,216,
7,496,753,207,455,215,
7,491,739,205,450,212,
7,486,729,204,445,211,
7,481,719,202,441,209,
7,476,710,199,436,207,
7,471,700,199,432,206,
7,465,690,196,433,204,
7,508,771,195,463,202,
7,504,758,193,458,201,
7,499,747,243,454,231,
7,493,736,240,448,230,
7,487,723,237,444,227,
7,483,711,235,439,225,
7,477,702,233,434,224,
7,472,692,231,430,222,
7,467,683,229,426,220,
7,461,675,227,473,218,
7,507,773,225,470,216,
7,499,761,223,463,214,
7,494,750,222,459,240,
7,488,738,220,455,238,
7,483,725,259,448,236,
7,478,715,257,444,233,
7,472,704,255,440,231,
7,467,695,252,435,230,
7,463,686,249,432,227,
7,457,732,248,474,226,
7,532,817,245,467,224,
7,525,804,243,463,222,
6,519,792,241,458,220,
7,513,779,239,454,218,
7,508,765,237,448,216,
7,502,753,235,443,215,
7,496,743,233,439,213,
6,491,732,231,434,211,
6,486,721,230,430,209,
6,480,841,227,462,207,
6,518,850,225,457,206,
6,511,835,224,452,241,
6,505,822,222,448,239,
6,499,809,220,444,236,
6,494,793,221,438,235,
5,488,782,220,433,232,
6,483,771,217,429,231,
5,478,759,216,425,229,
5,473,748,215,421,227,
5,468,804,212,453,224,
5,500,791,211,448,223,
5,495,778,209,444,224,
5,489,767,207,439,222,
5,483,755,217,435,220,
5,479,742,239,429,219,
4,473,731,237,424,216,
4,468,721,235,420,215,
4,463,711,233,417,214,
4,459,702,231,414,211,
4,499,775,228,449,209,
4,505,761,227,444,207,
4,500,750,227,440,207,
4,495,739,225,435,205,
4,488,728,224,431,203,
3,483,716,222,425,201,
3,479,705,220,422,199,
3,473,696,218,417,199,
3,468,687,216,414,197,
3,463,678,215,454,195,
3,468,763,212,451,194,
3,463,750,211,446,192,
3,458,739,209,441,211,
3,454,728,207,436,208,
3,449,718,206,432,207,
3,445,705,204,427,206,
3,441,696,203,423,204,
3,437,686,201,419,201,
3,433,676,199,415,199,
3,430,689,199,455,199,
3,486,753,196,450,196,
3,480,742,195,445,196,
3,475,731,199,440,211,
3,470,720,198,436,209,
3,464,710,195,432,207,
3,460,697,195,427,206,
3,455,688,193,423,204,
3,450,679,192,419,203,
3,446,670,190,415,201,
3,441,787,189,520,203,
3,602,868,187,513,302,
3,593,852,185,507,297,
3,586,838,184,502,295,
3,579,824,184,496,292,
3StartUp!
123,436,701,181,366,212,
0,432,694,180,363,211,
0,429,687,179,359,209,
0,426,679,178,358,207,
0,423,672,177,355,207,
0,419,665,176,353,206,
0,416,659,175,351,204,
0,414,673,174,359,203,
0,419,734,173,357,201,
0,415,726,172,354,200,
0,412,715,171,351,201,
0,408,704,169,348,199,
0,403,694,167,344,198,
0,399,684,167,342,195,
0,396,675,166,339,194,
0,391,665,164,335,192,
0,388,657,163,333,191,
0,385,646,162,339,190,
0,415,745,161,342,188,
0,442,734,159,339,187,
0,438,723,159,335,207,
0,432,711,157,332,206,
0,427,702,156,329,204,
0,422,691,155,327,201,
0,418,682,153,324,199,
0,414,673,152,321,198,
0,409,664,152,319,196,
0,406,654,150,345,195,
0,415,736,149,342,193,
0,412,726,148,339,192,
0,408,719,148,337,192,
0,405,708,147,334,190,
0,399,698,159,331,188,
0,396,688,158,327,187,
0,392,679,156,326,185,
0,389,670,156,323,184,
0,385,661,153,319,183,
0,382,704,153,368,181,
0,463,731,152,364,179,
0,457,719,150,359,178,
0,453,710,176,356,211,
0,448,700,174,353,208,
0,442,689,172,350,206,
0,437,679,170,347,204,
0,433,671,168,344,203,
0,428,662,167,341,201,
0,423,653,166,337,199,
0,420,723,165,388,198,
0,479,711,163,384,196,
0,473,701,162,380,206,
1,467,691,174,376,209,
1,463,681,172,372,207,
1,455,671,170,369,205,
1,451,663,168,366,203,
2,447,654,167,363,201,
2,442,646,166,359,199,
3,438,637,164,356,198,
3,433,699,163,402,196,
3,451,688,162,398,195,
3,447,678,160,394,194,
3,441,668,198,390,192,
3,436,659,195,387,191,
3,432,650,193,383,188,
3,427,641,192,379,187,
4,423,633,190,376,185,
3,419,625,188,372,184,
4,415,617,187,368,184,
4,451,734,185,393,182,
3,476,723,184,390,180,
3,470,711,185,385,222,
4,464,702,187,382,219,
4,460,691,185,378,217,
4,454,681,184,375,215,
3,448,672,182,371,212,
4,444,664,180,368,211,
4,440,655,179,364,209,
3,435,647,177,369,207,
3,487,723,176,396,206,
3,480,711,175,391,204,
3,475,703,230,388,204,
3,470,691,227,385,201,
3,463,682,224,381,199,
3,458,672,222,377,198,
3,453,664,220,374,196,
3,448,655,218,371,195,
3,444,646,216,368,193,
3,440,638,215,409,192,
3,464,716,212,406,190,
3,459,705,211,401,189,
3,455,696,244,398,207,
3,449,686,241,393,206,
3,443,675,239,390,204,
3,439,667,236,387,201,
3,434,657,235,383,199,
3,430,648,233,379,199,
3,425,639,231,376,197,
3,422,680,229,407,195,
3,478,775,227,401,193,
3,472,763,225,397,193,
3,467,751,224,393,193,
3,462,739,222,390,192,
2,455,728,220,385,190,
3,451,718,217,382,188,
3,446,708,216,379,187,
2,441,699,214,376,185,
3,436,689,212,371,184,
3,433,742,211,399,183,
2,477,728,209,394,181,
3,472,716,207,391,197,
3,466,705,206,387,195,
2,461,696,204,384,193,
3,455,686,203,380,192,
3,450,676,201,376,190,
3,446,668,199,372,188,
2,440,659,198,369,187,
3,436,651,196,366,185,
2,457,748,195,396,184,
3,481,732,193,391,182,
3,476,721,192,387,239,
3,471,711,192,384,236,
3,465,700,192,380,233,
2,459,691,190,376,231,
3,454,681,188,372,230,
3,449,671,187,369,227,
3,444,663,185,366,225,
3,440,654,184,367,224,
3,486,740,183,400,222,
2,480,728,181,395,220,
3,475,718,185,391,228,
2,470,707,184,387,226,
3,464,697,184,384,224,
2,458,687,182,380,222,
2,454,678,179,377,220,
2,448,668,179,374,218,
2,444,659,177,369,216,
3,440,652,176,407,215,
3,499,729,175,402,212,
2,493,719,173,397,211,
2,487,708,199,393,221,
2,482,697,198,390,219,
2,477,688,196,386,217,
2,471,679,195,382,216,
2,465,670,192,379,214,
2,461,660,191,376,211,
2,455,652,190,371,210,
2,451,670,188,405,208,
2,487,713,187,399,207,
2,481,704,184,396,220,
2,476,693,207,391,250,
1,471,683,206,387,248,
1,465,673,204,384,245,
1,460,664,202,380,243,
1,455,655,199,377,240,
1,450,647,198,374,238,
1,446,639,196,370,236,
1,441,778,195,402,234,
1,480,785,193,397,231,
1,474,773,192,392,231,
1,468,760,195,388,229,
1,463,749,194,385,227,
1,459,739,192,382,225,
1,452,728,191,377,224,
1,448,718,189,375,221,
1,444,707,188,371,220,
1,439,697,185,368,218,
1,452,751,184,396,216,
1,483,736,183,391,215,
1,478,725,182,387,227,
1,472,715,180,384,224,
1,467,704,179,380,223,
1,462,694,177,376,220,
1,455,685,176,373,219,
1,451,675,175,369,216,
1,446,667,174,366,215,
1,441,658,172,364,213,
1,467,726,171,406,211,
1,460,711,169,401,209,
0,455,702,231,397,222,
0,451,691,236,393,220,
1,446,681,233,390,218,
1,441,671,231,385,216,
1,435,664,229,382,215,
1,432,654,227,379,212,
0,427,646,225,376,211,
0,423,638,224,403,209,
1,486,711,222,399,207,
0,480,697,220,395,206,
1,473,688,217,390,204,
0,468,678,216,386,203,
0,463,669,215,382,201,
0,458,659,212,379,199,
0,452,651,211,376,198,
0,448,642,209,371,196,
0,443,634,207,368,195,
0,439,643,206,396,193,
0,483,699,204,391,192,
0,478,686,203,387,192,
0,472,676,201,384,199,
0,467,667,199,380,198,
0,462,657,198,376,195,
0,457,648,196,372,195,
0,451,639,195,368,192,
0,446,632,193,365,191,
0,441,624,192,362,190,
0,438,690,190,391,188,
0,475,680,189,387,187,
0,470,669,188,382,204,
0,464,659,186,378,201,
0,460,651,184,376,199,
0,455,641,230,371,198,
0,449,633,227,368,196,
0,444,625,224,364,195,
0,440,617,223,361,193,
0,435,609,221,358,192,
0,434,708,219,402,190,
0,463,696,217,398,188,
0,457,684,216,393,194,
0,452,674,214,389,192,
0,448,665,212,385,191,
0,444,655,210,382,189,
0,439,647,208,379,188,
0,433,639,207,375,185,
0,428,630,205,371,184,
0,423,623,203,368,183,
0,465,667,201,399,182,
0,460,657,199,395,180,
0,455,646,199,391,179,
0,451,637,197,387,177,
0,446,628,195,384,176,
0,440,620,194,380,175,
0,436,612,193,376,174,
0,431,605,191,372,172,
0,426,598,190,368,171,
0,422,591,188,399,170,
0,464,679,187,401,168,
0,459,670,185,398,167,
0,454,659,184,392,192,
0,449,649,183,389,190,
0,444,639,182,385,188,
0,440,632,179,382,187,
0,435,624,179,378,185,
0,430,615,177,375,184,
0,425,608,176,371,182,
0,421,630,175,400,180,
0,444,713,173,396,179,
0,440,703,172,391,177,
0,435,691,171,387,191,
0,430,680,169,384,189,
0,425,671,167,380,188,
0,422,662,167,376,186,
0,417,653,166,372,184,
0,412,644,164,369,183,
0,408,636,163,366,181,
0,405,702,163,393,179,
0,472,707,161,388,178,
0,467,696,159,385,177,
0,462,684,159,380,176,
0,457,674,159,376,175,
0,452,664,158,373,173,
0,448,655,156,369,172,
0,443,647,156,366,171,
0,437,639,154,363,168,
0,432,631,153,359,167,
0,430,716,152,398,167,
0,462,704,151,393,165,
0,455,694,150,390,169,
0,451,681,149,384,167,
0,447,671,150,381,167,
0,441,663,156,377,166,
0,438,654,156,374,164,
0,433,644,154,371,163,
0,428,636,152,367,161,
0,423,628,152,364,160,
0,486,757,151,399,159,
0,479,744,149,396,158,
0,473,734,158,391,163,
0,468,719,156,387,162,
0,463,710,155,384,161,
0,458,700,153,380,159,
0,454,689,152,376,158,
0,448,680,151,372,157,
0,443,671,150,369,156,
0,439,663,148,399,155,
0,499,753,147,397,153,
0,493,740,146,392,152,
0,487,730,188,389,204,
0,482,716,187,384,201,
0,476,705,184,380,199,
0,472,696,183,376,198,
0,466,686,182,373,196,
0,460,677,179,370,195,
0,455,668,178,367,193,
0,451,659,176,388,192,
0,476,696,175,384,190,
0,472,687,174,380,188,
0,466,677,202,377,187,
0,460,664,199,372,185,
0,455,655,198,369,184,
0,451,647,196,366,182,
0,447,639,195,362,180,
0,440,631,193,359,179,
0,436,623,191,355,178,
0,432,689,190,381,176,
0,451,699,188,377,175,
0,446,689,187,374,194,
0,440,679,185,369,192,
0,436,668,184,366,191,
0,432,658,182,361,188,
0,427,649,180,359,187,
0,423,639,179,355,185,
0,418,632,178,352,184,
0,414,624,176,349,182,
0,425,704,175,383,180,
0,478,692,174,379,179,
0,472,683,172,376,212,
0,467,673,189,371,209,
0,463,662,188,368,207,
0,457,653,185,364,206,
0,452,644,184,360,204,
0,448,636,183,358,203,
0,441,627,181,354,201,
0,438,620,179,352,199,
0,481,718,178,385,198,
0,475,706,176,380,195,
0,470,696,175,377,204,
0,464,684,174,374,201,
0,460,674,195,369,199,
0,455,664,193,366,199,
0,449,655,192,362,196,
0,445,647,190,359,195,
0,440,639,188,355,193,
0,435,631,187,385,192,
0,472,722,184,393,190,
0,467,711,183,389,188,
0,462,701,225,385,211,
0,456,688,222,382,208,
0,451,679,220,377,207,
0,447,669,218,374,205,
0,442,660,216,370,204,
0,438,651,215,367,201,
0,432,643,212,364,199,
0,428,639,211,387,198,
0,461,715,208,383,196,
0,455,704,207,379,195,
0,451,694,242,375,203,
0,446,681,240,371,201,
0,441,671,238,367,199,
0,436,664,236,364,198,
0,432,654,233,359,195,
0,428,646,231,357,194,
0,422,637,230,353,192,
0,419,701,227,399,191,
0,447,711,225,396,189,
0,441,701,224,391,188,
0,437,691,222,387,185,
0,432,679,220,384,184,
0,428,670,218,380,183,
0,423,660,216,376,182,
0,419,652,215,372,180,
0,415,643,212,369,179,
0,410,635,211,366,177,
0,416,700,209,397,176,
0,468,688,207,392,175,
0,463,678,206,389,194,
0,459,668,204,385,192,
0,454,657,203,382,190,
0,448,647,201,377,188,
0,444,639,199,374,187,
0,440,632,199,370,185,
0,435,624,196,367,184,
0,429,615,195,364,183,
0,487,695,193,402,180,
0,489,684,192,398,179,
0,483,673,191,395,180,
0,478,664,189,391,179,
0,472,652,188,387,177,
0,467,644,187,383,176,
0,463,636,184,379,175,
0,457,627,184,376,174,
0,452,619,183,371,172,
0,448,611,181,391,171,
0,478,768,179,393,169,
0,472,755,178,390,167,
0,467,743,176,386,195,
0,462,732,175,383,193,
0,456,719,174,379,192,
0,451,708,173,375,190,
0,447,699,172,371,188,
0,442,689,171,368,186,
0,438,679,169,364,184,
0,432,671,167,388,184,
0,457,736,167,384,182,
0,452,726,166,380,180,
0,448,715,165,376,207,
0,443,704,163,372,204,
0,439,692,163,368,203,
0,433,683,161,366,201,
0,429,673,161,361,199,
0,425,664,159,359,198,
0,420,655,158,355,196,
0,416,706,157,390,195,
0,462,721,156,385,192,
0,455,711,155,381,191,
0,451,700,162,377,190,
0,446,690,160,374,188,
0,441,679,159,369,187,
0,436,668,158,366,184,
0,432,659,156,362,184,
0,428,651,156,359,182,
0,423,642,154,355,180,
0,420,745,152,391,179,
0,463,733,152,388,177,
0,457,721,151,384,206,
0,452,711,164,381,204,
0,448,701,163,377,201,
0,443,688,161,372,199,
0,438,679,159,369,199,
0,433,670,159,366,197,
0,429,660,158,363,195,
0,424,652,156,359,193,
0,455,721,155,377,192,
0,452,710,153,373,190,
0,448,699,159,369,191,
0,443,689,157,366,190,
0,438,679,156,363,188,
0,433,668,155,359,187,
0,429,659,153,355,184,
0,425,650,152,352,184,
0,420,641,151,349,182,
0,416,633,150,363,180,
0,468,718,148,374,179,
0,463,707,147,369,177,
0,457,697,157,366,194,
0,452,687,155,363,192,
0,448,678,154,359,191,
0,443,665,152,355,189,
0,439,656,152,352,188,
0,434,647,150,349,186,
0,430,639,149,346,184,
0,425,632,147,385,184,
0,448,670,147,381,182,
0,442,660,145,377,180,
0,438,652,192,374,187,
0,432,642,190,369,185,
0,428,635,188,366,184,
0,423,624,186,362,183,
0,419,615,184,359,181,
0,415,608,184,355,179,
0,412,601,182,352,178,
0,408,673,180,387,177,
0,455,708,179,384,175,
0,450,698,177,379,193,
0,444,688,176,376,191,
0,440,678,174,371,189,
0,435,668,173,368,188,
0,431,657,172,364,185,
0,427,648,170,360,184,
0,422,639,169,358,183,
0,417,632,167,354,181,
0,414,714,167,376,179,
0,440,702,164,372,178,
0,435,692,163,369,186,
0,432,682,162,366,184,
0,427,672,161,362,183,
0,422,664,159,359,182,
0,418,652,159,355,179,
0,414,643,158,352,178,
0,409,635,156,348,177,
0,406,627,155,345,176,
0,402,699,154,388,174,
0,445,688,152,385,172,
0,440,678,152,381,210,
0,435,668,151,377,208,
0,431,659,150,374,207,
0,426,650,148,370,204,
0,422,639,147,366,203,
0,418,632,146,363,201,
0,414,623,145,359,199,
0,409,615,144,376,198,
0,471,679,143,387,196,
0,464,670,142,384,194,
0,460,660,159,380,193,
0,455,651,158,376,192,
0,449,643,211,372,190,
0,445,633,209,369,188,
0,440,623,207,365,187,
0,435,615,205,361,185,
0,431,608,203,358,184,
0,427,635,201,385,183,
0,481,759,199,381,180,
0,475,747,198,377,179,
0,470,736,241,374,179,
0,464,724,238,369,178,
0,460,715,236,366,177,
0,455,704,233,363,176,
0,450,691,231,359,174,
0,445,682,230,355,173,
0,440,673,227,352,172,
0,436,711,225,390,171,
0,470,750,224,384,169,
0,464,737,222,381,174,
0,460,727,220,377,172,
0,455,716,217,374,171,
0,449,706,216,370,169,
0,444,696,214,367,167,
0,440,684,212,363,167,
0,435,675,211,359,166,
0,431,665,209,355,164,
0,427,732,207,382,163,
0,455,719,206,378,162,
0,449,709,204,375,192,
0,444,699,209,371,190,
0,440,688,207,368,188,
0,435,679,205,364,186,
0,431,670,204,360,184,
0,427,659,201,356,184,
0,422,649,199,353,182,
0,418,641,199,350,180,
0,415,703,198,384,179,
0,451,691,195,380,177,
0,446,681,194,377,207,
0,441,671,192,374,206,
0,436,664,216,369,204,
0,432,654,219,366,202,
0,428,643,217,363,199,
0,423,635,215,359,199,
0,419,627,214,355,198,
0,415,619,211,366,195,
0,435,691,209,385,194,
0,463,681,207,382,192,
0,459,671,206,377,251,
0,454,662,204,374,248,
0,449,653,203,371,246,
0,444,644,201,367,243,
0,440,633,199,364,241,
0,435,625,198,359,240,
0,431,617,196,355,238,
0,426,610,195,380,236,
0,499,683,193,376,233,
0,491,673,192,371,231,
0,485,664,190,368,230,
0,480,654,188,364,227,
0,475,646,187,361,226,
0,470,637,185,358,224,
0,464,627,184,355,222,
0,460,619,184,351,220,
0,455,611,182,348,219,
0,450,648,181,387,217,
0,469,701,179,383,216,
0,462,691,177,379,214,
0,457,681,179,375,212,
0,452,671,178,371,211,
0,448,662,177,368,209,
0,443,653,176,364,207,
0,438,642,174,360,206,
0,433,633,173,357,204,
0,430,625,172,353,203,
0,425,702,171,388,201,
0,457,690,169,384,199,
0,451,679,167,380,198,
0,446,670,167,376,196,
0,441,661,166,373,195,
0,436,652,164,369,193,
0,432,643,163,367,192,
0,428,633,162,363,191,
0,423,624,161,359,189,
0,419,617,159,355,188,
0,415,679,159,381,187,
0,465,669,158,377,185,
0,459,659,156,373,184,
0,454,650,156,369,182,
0,449,641,155,366,180,
0,444,632,153,363,179,
0,440,624,152,359,179,
0,435,615,152,356,177,
0,431,607,151,352,176,
0,426,600,150,358,175,
0,435,704,148,377,173,
0,457,693,147,374,172,
0,451,684,152,370,188,
0,447,673,151,366,185,
0,442,664,149,363,184,
0,438,655,147,359,183,
0,433,647,147,356,181,
0,428,636,145,353,179,
0,423,627,144,349,178,
0,419,620,143,396,177,
0,476,710,143,392,175,
0,470,699,142,388,174,
0,463,689,156,385,173,
0,459,679,155,381,171,
0,454,670,153,377,170,
0,448,659,152,374,168,
0,444,652,151,370,167,
0,440,639,150,366,166,
0,435,632,148,363,165,
0,430,628,147,385,163,
0,432,645,146,381,163,
0,428,636,145,377,161,
0,423,627,157,374,180,
0,418,619,156,370,178,
0,414,611,155,367,176,
0,410,604,153,363,175,
0,407,596,152,359,174,
0,403,588,151,355,172,
0,399,581,150,353,171,
0,396,694,148,380,169,
0,455,692,147,376,167,
0,449,683,146,371,167,
0,444,673,158,368,186,
0,439,664,156,364,184,
0,434,655,156,361,183,
0,429,646,155,358,181,
0,424,637,153,355,179,
0,421,627,152,351,178,
0,416,619,151,348,176,
0,413,643,150,382,175,
0,462,633,148,377,174,
0,455,625,147,374,174,
0,449,616,150,371,172,
0,444,608,150,367,170,
0,440,601,148,364,168,
0,435,593,147,359,167,
0,431,587,147,357,167,
0,427,577,145,353,165,
0,422,572,143,352,164,
0,422,671,143,377,162,
0,444,662,142,374,161,
0,440,652,171,369,169,
0,433,643,194,366,167,
0,428,635,192,363,166,
0,423,626,190,359,164,
0,419,618,188,356,163,
0,415,610,187,353,162,
0,412,600,185,349,160,
0,408,593,184,384,159,
0,454,692,182,380,158,
0,448,681,180,376,157,
0,444,671,179,372,189,
0,438,664,178,368,187,
0,433,654,176,365,185,
0,428,644,175,361,184,
0,423,636,174,359,182,
0,420,628,172,355,180,
0,415,617,171,352,179,
0,412,647,170,387,177,
0,451,696,168,384,176,
0,446,686,167,379,175,
0,441,676,166,376,193,
0,435,666,164,371,191,
0,431,657,217,368,189,
0,427,648,215,365,188,
0,422,639,213,361,186,
0,417,632,211,358,184,
0,414,621,209,355,183,
0,409,702,207,387,182,
0,448,689,206,382,180,
0,443,679,204,379,179,
0,439,670,203,375,189,
0,432,660,199,371,187,
0,428,652,199,368,185,
0,423,643,197,364,184,
0,419,634,195,360,182,
0,415,626,194,358,180,
0,411,615,192,353,179,
0,407,679,191,382,177,
0,451,668,190,379,176,
0,447,659,188,375,175,
0,441,649,214,371,174,
0,435,639,214,368,172,
0,431,632,211,364,171,
0,427,624,210,360,169,
0,422,615,207,357,167,
0,418,608,207,354,167,
0,414,599,205,353,166,
0,416,679,203,380,164,
0,443,668,201,376,163,
0,438,659,199,373,161,
0,432,649,199,369,160,
0,428,641,196,366,159,
0,423,632,195,362,158,
0,419,624,193,359,156,
0,415,615,192,355,156,
0,411,608,190,352,155,
0,407,599,189,382,153,
0,445,688,187,377,152,
0,441,678,185,374,152,
0,436,668,184,370,171,
0,431,659,183,366,169,
0,426,651,182,363,167,
0,422,641,179,359,166,
0,417,633,179,356,165,
0,414,625,177,353,163,
0,409,617,176,350,162,
0,406,647,175,385,161,
0,465,711,173,380,159,
0,460,700,172,376,159,
0,455,690,171,372,183,
0,448,679,169,369,181,
0,444,671,167,366,179,
0,440,662,167,363,178,
0,435,652,166,359,176,
0,430,644,164,355,175,
0,425,636,163,352,174,
0,422,716,162,379,172,
0,463,705,161,375,171,
0,457,696,159,371,169,
0,452,686,159,368,173,
0,447,675,158,364,171,
0,441,666,159,359,169,
0,437,657,157,357,167,
0,432,648,156,354,167,
0,428,639,155,351,165,
0,423,632,153,348,164,
0,420,718,153,390,163,
0,476,706,152,385,161,
0,471,696,151,382,188,
0,465,686,190,377,185,
0,459,676,188,375,184,
0,454,667,212,371,182,
0,449,658,211,367,179,
0,444,649,209,364,179,
0,440,641,207,359,177,
0,435,630,204,356,176,
0,431,688,203,383,174,
0,447,677,201,379,172,
0,442,668,199,376,190,
0,437,658,198,371,188,
0,432,649,196,368,186,
0,427,639,195,364,184,
0,423,632,193,361,183,
0,419,624,192,358,181,
0,415,615,190,355,179,
0,411,606,188,352,178,
0,448,691,187,379,176,
0,442,681,185,376,175,
0,438,671,184,371,185,
0,432,664,183,368,184,
0,427,654,182,364,183,
0,423,644,179,361,180,
0,418,636,178,358,179,
0,414,627,177,355,177,
0,409,620,176,352,176,
0,406,625,175,376,175,
0,464,675,173,375,173,
0,459,665,172,371,172,
0,454,656,171,367,188,
0,448,647,169,364,187,
0,443,639,167,359,185,
0,438,630,167,356,183,
0,433,622,165,353,182,
0,428,614,163,350,179,
0,423,606,163,348,179,
0,420,691,162,390,177,
0,441,696,161,384,176,
0,436,687,159,380,176,
0,432,676,233,376,204,
0,427,667,231,373,201,
0,422,658,227,369,199,
0,417,649,225,366,198,
0,413,639,224,363,195,
0,409,632,222,359,195,
0,405,624,220,356,193,
0,401,770,218,390,192,
0,471,755,216,384,190,
0,465,744,215,380,188,
0,460,733,212,377,187,
0,455,722,211,374,185,
0,449,711,209,369,184,
0,444,702,207,366,183,
0,440,692,206,363,180,
0,435,683,204,359,179,
0,431,673,203,356,178,
0,426,740,201,380,177,
0,422,729,199,375,175,
0,418,719,198,371,209,
0,414,707,196,368,207,
0,409,697,195,364,206,
0,405,688,193,360,204,
0,401,679,192,358,201,
0,398,669,190,354,199,
0,393,660,188,351,198,
0,391,652,187,348,197,
0,451,719,185,391,195,
0,451,709,184,387,193,
0,446,699,188,384,216,
0,441,689,188,379,214,
0,436,679,186,376,212,
0,431,670,184,371,210,
0,426,660,183,368,207,
0,422,652,181,365,206,
0,417,643,179,361,204,
0,414,636,179,384,203,
0,468,716,177,393,201,
0,463,705,176,389,199,
0,457,696,180,385,216,
0,451,685,178,382,215,
0,448,675,177,377,212,
0,441,666,175,374,211,
0,436,657,174,371,208,
0,432,647,172,367,207,
0,428,639,171,364,205,
0,423,632,169,404,204,
0,476,707,168,399,201,
0,471,696,167,395,199,
0,465,687,184,391,212,
0,460,676,182,387,211,
0,455,668,180,384,209,
0,448,658,178,380,207,
0,444,649,177,376,204,
0,440,641,176,373,203,
0,435,632,174,369,201,
0,431,719,173,396,199,
0,454,754,172,391,198,
0,448,743,170,387,196,
0,444,732,248,384,195,
0,439,721,244,380,193,
0,434,711,241,376,192,
0,428,700,239,372,190,
0,423,691,237,369,188,
0,419,681,235,366,187,
0,415,671,233,362,185,
0,417,711,231,382,184,
0,465,697,230,376,183,
0,460,688,227,372,211,
0,455,678,225,369,209,
0,449,668,224,366,207,
0,446,659,222,363,206,
0,440,651,220,359,204,
0,435,643,218,355,201,
0,431,635,216,352,199,
0,426,627,215,350,199,
0,460,707,213,399,196,
0,460,694,211,395,195,
0,455,684,209,391,207,
0,449,673,207,387,204,
0,445,664,206,384,203,
0,440,655,205,380,201,
0,435,647,203,376,199,
0,430,638,201,373,198,
0,425,630,199,369,195,
0,422,622,199,388,195,
0,476,736,196,393,192,
0,470,721,195,387,191,
0,464,711,195,384,213,
0,460,700,193,380,211,
0,455,690,192,376,209,
0,449,680,191,373,207,
0,444,671,188,369,205,
0,439,663,187,367,203,
0,434,654,185,363,201,
0,430,645,184,393,199,
0,481,719,184,389,198,
0,476,705,182,384,196,
0,470,696,195,380,199,
0,465,685,193,377,198,
0,460,675,192,373,195,
0,455,667,190,369,194,
0,449,657,188,366,192,
0,444,649,187,363,191,
0,440,639,185,359,190,
0,435,684,184,384,188,
0,477,696,182,380,187,
0,472,683,181,376,199,
0,467,673,252,371,207,
0,461,664,248,368,207,
0,455,655,247,364,204,
0,451,646,244,361,203,
0,445,638,241,358,200,
0,440,630,240,355,199,
0,436,622,238,352,198,
0,432,732,236,389,195,
0,478,719,233,385,194,
0,472,705,231,380,207,
0,467,696,230,376,206,
0,461,686,227,373,204,
0,456,676,226,369,202,
0,451,667,224,366,199,
0,446,658,222,363,198,
0,441,649,220,359,196,
0,436,639,219,356,195,
0,465,668,216,395,193,
0,463,658,216,391,192,
0,459,647,214,386,216,
0,454,638,211,382,214,
0,448,630,210,379,211,
0,444,622,208,376,210,
0,438,614,207,371,207,
0,433,607,205,368,206,
0,429,600,204,364,204,
0,425,592,202,380,203,
0,470,687,200,387,201,
0,463,676,199,383,199,
0,458,664,198,378,211,
0,452,655,196,374,209,
0,448,646,195,371,207,
0,443,638,193,368,206,
0,438,629,192,364,204,
0,433,621,190,359,202,
0,428,613,188,358,199,
0,423,606,188,391,199,
0,470,696,185,387,197,
0,463,686,184,384,195,
0,459,674,195,378,216,
0,454,664,193,375,215,
0,448,655,194,371,212,
0,444,647,192,368,211,
0,438,638,191,364,209,
0,433,630,188,361,207,
0,429,622,187,358,205,
0,425,664,186,385,204,
0,456,691,184,380,201,
0,451,679,183,377,207,
0,446,668,182,372,211,
0,441,659,180,369,210,
0,436,650,179,366,207,
0,432,641,177,361,207,
0,427,632,176,359,204,
0,423,625,175,355,203,
0,418,616,174,352,201,
0,415,700,172,375,199,
0,460,688,171,371,198,
0,455,676,170,368,206,
0,450,667,169,363,204,
0,445,657,167,359,203,
0,440,648,167,355,200,
0,435,639,166,352,199,
0,430,632,164,350,197,
0,425,624,163,347,195,
0,422,615,162,344,193,
0,457,736,161,377,192,
0,464,723,159,374,191,
0,459,710,160,370,215,
0,455,699,161,366,212,
0,449,689,160,363,211,
0,444,679,159,359,208,
0,440,670,158,355,207,
0,434,662,157,352,206,
0,430,652,156,350,203,
0,425,644,155,363,201,
0,458,721,153,384,199,
0,452,710,152,379,198,
0,448,697,167,376,203,
0,443,688,166,371,200,
0,438,678,199,367,199,
0,433,668,196,364,198,
0,429,659,195,359,195,
0,423,651,193,356,194,
0,419,642,191,353,192,
0,415,634,190,384,191,
0,443,702,188,380,189,
0,438,691,186,376,188,
0,433,679,188,372,215,
0,428,669,187,368,212,
0,423,660,185,364,210,
0,419,651,184,361,208,
0,415,643,182,358,207,
0,411,634,180,354,205,
0,407,626,179,352,203,
0,403,668,177,384,201,
0,462,704,176,380,199,
0,455,694,174,376,216,
0,451,681,187,372,224,
0,447,671,185,368,223,
0,441,664,184,364,220,
0,437,654,182,361,219,
0,432,646,180,358,216,
0,427,636,179,354,215,
0,423,628,177,352,212,
0,423,736,176,388,211,
0,476,723,174,384,209,
0,471,711,173,380,216,
0,465,699,175,376,214,
0,460,689,173,372,211,
0,455,679,172,369,209,
0,451,670,171,366,207,
0,446,660,169,361,206,
0,440,652,167,359,204,
0,435,643,167,355,203,
0,455,697,166,377,201,
0,463,686,163,374,199,
0,459,676,163,370,199,
0,454,664,162,367,198,
0,448,655,161,362,195,
0,444,647,159,359,195,
0,440,638,159,355,193,
0,435,630,158,352,192,
0,429,622,156,349,190,
0,425,614,155,359,188,
0,455,708,153,381,187,
0,450,697,152,377,185,
0,446,688,152,374,216,
0,440,675,152,369,214,
0,435,665,150,366,211,
0,431,655,149,362,210,
0,427,647,148,359,208,
0,422,639,147,355,207,
0,417,631,145,352,205,
0,413,623,145,385,203,
0,470,708,143,380,200,
0,464,697,143,376,199,
0,460,688,148,372,198,
0,455,675,147,368,196,
0,449,666,155,364,195,
0,445,657,153,361,193,
0,440,648,152,358,192,
0,435,639,151,355,190,
0,430,632,150,352,188,
0,426,659,148,384,187,
0,468,682,147,380,185,
0,463,671,145,376,187,
0,458,664,153,372,185,
0,453,652,152,368,184,
0,448,643,151,364,183,
0,444,633,150,360,181,
0,439,625,148,358,179,
0,434,617,147,354,179,
0,428,610,145,352,177,
0,425,727,144,394,176,
0,478,715,143,390,174,
0,472,704,142,386,191,
0,467,694,205,382,189,
0,462,681,203,377,188,
0,457,671,201,374,185,
0,452,663,199,371,184,
0,448,654,198,367,183,
0,443,645,196,364,181,
0,437,636,194,359,179,
0,449,752,192,384,178,
0,475,739,191,380,176,
0,470,728,189,376,181,
0,464,718,188,373,179,
0,460,704,186,368,177,
0,455,694,184,365,176,
0,449,684,184,361,175,
0,445,675,182,359,174,
0,440,666,180,355,172,
0,435,657,179,355,171,
0,440,750,177,371,169,
0,436,737,176,368,167,
0,432,727,185,364,192,
0,427,716,184,359,191,
0,423,704,182,356,189,
0,419,693,180,353,187,
0,415,684,179,350,185,
0,411,674,177,347,184,
0,407,665,176,344,183,
0,401,656,174,379,180,
0,452,739,172,375,179,
0,448,727,171,371,177,
0,443,716,228,367,204,
0,438,706,225,364,203,
0,433,694,224,359,201,
0,428,684,221,356,199,
0,423,674,219,353,198,
0,419,665,217,350,196,
0,415,656,216,347,194,
0,411,682,214,379,192,
0,451,712,211,375,191,
0,446,702,209,371,190,
0,441,691,208,368,190,
0,436,681,207,364,188,
0,432,670,205,359,187,
0,428,662,203,356,185,
0,423,652,201,353,184,
0,419,643,199,350,183,
0,415,636,199,347,180,
0,409,720,196,376,179,
0,435,708,195,373,177,
0,431,697,193,369,176,
0,426,688,192,366,175,
0,422,678,191,362,174,
0,417,667,189,358,172,
0,413,657,188,355,171,
0,409,648,186,352,169,
0,405,639,185,348,167,
0,400,632,184,345,167,
0,429,711,182,375,166,
0,448,700,180,371,164,
0,444,690,179,368,167,
0,439,679,177,364,165,
0,434,671,176,359,163,
0,430,659,175,356,162,
0,425,651,174,353,161,
0,420,642,172,350,159,
0,416,633,171,347,159,
0,412,625,169,352,158,
0,457,724,167,385,156,
0,451,712,167,382,156,
0,448,703,167,377,178,
0,442,691,165,374,176,
0,437,682,165,370,175,
0,433,671,163,366,173,
0,428,662,162,363,172,
0,423,652,161,359,171,
0,419,643,159,355,169,
0,414,636,159,387,167,
0,457,721,157,383,166,
0,452,711,156,379,164,
0,448,700,156,376,182,
0,442,691,154,371,179,
0,438,679,153,368,178,
0,433,669,152,364,176,
0,428,660,151,359,175,
0,423,651,150,357,174,
0,419,643,148,353,172,
0,415,671,147,378,171,
0,452,711,147,374,169,
0,448,702,145,370,175,
0,443,691,144,367,174,
0,438,681,143,363,172,
0,433,671,143,359,172,
0,428,660,142,355,170,
0,423,652,141,352,168,
0,420,643,140,350,167,
0,415,635,139,346,166,
0,411,719,138,381,164,
0,455,707,136,376,163,
0,450,697,135,374,184,
0,445,688,148,369,183,
0,440,678,147,366,180,
0,435,666,146,363,179,
0,431,657,145,358,177,
0,427,647,143,355,176,
0,423,639,143,352,175,
0,418,632,142,348,173,
0,440,676,140,379,172,
0,482,667,139,375,169,
0,476,656,137,371,192,
0,471,647,137,367,190,
0,465,639,137,364,188,
0,460,627,136,359,187,
0,455,620,135,355,184,
0,451,612,135,353,184,
0,446,604,134,350,182,
0,441,598,133,351,180,
0,448,689,132,379,179,
0,443,679,131,375,177,
0,439,669,155,371,186,
0,433,659,153,368,184,
0,429,651,152,364,183,
0,425,639,152,359,181,
0,420,632,150,356,179,
0,417,623,149,353,178,
0,412,615,147,350,176,
0,408,608,147,384,176,
0,457,749,145,381,174,
0,452,737,143,376,172,
0,448,727,143,374,176,
0,443,716,142,369,174,
0,438,705,141,366,172,
0,433,692,140,363,171,
0,428,683,139,359,169,
0,423,673,137,355,167,
0,420,664,135,352,167,
0,415,684,135,380,166,
0,451,731,134,376,164,
0,446,719,133,371,192,
0,441,710,153,368,216,
0,436,700,152,364,214,
0,432,689,151,361,211,
0,428,678,150,358,209,
0,423,668,148,353,207,
0,419,659,147,351,206,
0,415,651,146,348,204,
0,411,736,145,381,203,
0,455,736,143,377,201,
0,450,724,142,374,199,
0,445,713,146,369,199,
0,440,704,144,366,196,
0,435,693,143,363,195,
0,431,681,142,359,193,
0,427,671,141,355,192,
0,423,663,140,352,191,
0,418,654,139,349,189,
0,414,732,137,375,188,
0,423,721,135,371,186,
0,419,711,139,367,187,
0,415,700,148,364,185,
0,411,690,147,359,184,
0,407,680,145,356,182,
0,403,668,144,353,180,
0,399,659,143,350,179,
0,396,651,142,346,178,
0,391,643,141,346,176,
0,393,720,140,372,175,
0,423,710,139,369,174,
0,419,700,197,366,172,
0,415,689,199,361,171,
0,411,679,248,359,169,
0,407,670,244,355,167,
0,403,659,242,352,167,
0,399,649,240,348,166,
0,395,641,238,345,165,
0,391,659,236,361,163,
0,479,806,233,358,162,
0,494,792,231,354,161,
0,488,780,229,351,169,
0,483,768,227,348,167,
0,478,757,225,344,167,
0,472,745,224,342,166,
0,467,732,222,337,164,
0,463,722,220,335,163,
0,457,711,218,332,161,
0,453,711,216,380,160,
0,460,744,215,376,159,
0,454,734,212,371,158,
0,448,723,211,368,171,
0,444,711,209,365,169,
0,440,702,211,361,167,
0,435,692,210,358,167,
0,431,680,208,353,165,
0,427,671,207,351,163,
0,423,664,205,348,162,
0,419,749,204,382,161,
0,483,752,202,377,159,
0,476,739,199,374,211,
0,470,729,222,370,207,
0,465,719,220,367,206,
0,460,707,217,363,204,
0,455,698,216,359,203,
0,450,686,214,355,200,
0,446,676,212,352,199,
0,440,668,210,349,198,
0,437,738,209,382,195,
0,457,727,207,378,194,
0,451,716,205,375,194,
0,446,705,204,371,192,
0,441,696,201,368,191,
0,436,686,199,364,189,
0,432,675,199,359,188,
0,428,664,197,356,186,
0,423,655,195,353,184,
0,419,647,194,350,184,
0,420,729,193,381,182,
0,463,718,192,377,180,
0,457,707,189,374,179,
0,452,697,188,369,179,
0,448,687,187,366,177,
0,443,678,185,363,176,
0,439,668,184,359,174,
0,433,657,183,355,173,
0,429,647,181,352,172,
0,425,639,180,384,171,
0,472,686,179,382,169,
0,467,675,177,377,167,
0,460,666,176,374,179,
0,455,656,175,371,178,
0,451,647,173,367,176,
0,446,639,172,363,175,
0,440,632,171,359,173,
0,436,621,169,356,172,
0,432,614,168,353,171,
0,428,656,167,388,169,
0,433,706,166,384,167,
0,428,696,165,380,167,
0,423,686,172,376,165,
0,419,675,170,372,163,
0,415,667,168,368,163,
0,411,657,167,365,161,
0,408,648,166,362,159,
0,403,638,164,358,159,
0,399,630,163,355,158,
0,396,700,162,379,157,
0,448,691,161,375,156,
0,442,680,159,371,155,
0,435,671,219,368,153,
0,431,662,236,364,152,
0,427,652,233,359,151,
0,423,643,231,358,150,
0,418,636,230,354,149,
0,414,625,227,350,147,
0,409,617,225,347,147,
0,406,690,224,395,146,
0,479,679,222,391,145,
0,472,669,220,387,173,
0,467,659,217,384,170,
0,462,651,216,379,168,
0,456,642,214,376,167,
0,451,633,212,371,166,
0,448,625,211,368,164,
0,443,615,209,364,163,
0,438,608,207,361,162,
0,435,694,206,391,160,
0,454,683,204,387,159,
0,447,672,203,383,173,
0,441,664,207,379,171,
0,437,654,206,376,169,
0,433,646,204,371,167,
0,428,637,203,368,167,
0,423,628,200,365,166,
0,419,618,199,360,163,
0,415,611,198,387,163,
0,455,604,196,384,161,
0,451,596,195,380,159,
0,445,590,231,377,166,
0,440,583,228,374,163,
0,435,575,227,369,163,
0,431,570,224,366,161,
0,426,563,223,363,159,
0,422,557,220,359,159,
0,418,550,219,355,157,
0,414,573,217,383,156,
0,444,647,216,379,155,
0,439,638,214,375,153,
0,432,630,211,371,186,
0,428,621,209,368,184,
0,423,613,207,364,183,
0,419,605,206,359,180,
0,415,598,205,358,179,
0,411,590,203,354,177,
0,407,581,201,350,176,
0,403,659,199,384,175,
0,456,668,199,379,173,
0,451,658,196,375,172,
0,445,648,195,371,171,
0,440,639,193,368,169,
0,435,632,192,364,167,
0,432,623,191,360,167,
0,427,615,189,358,165,
0,423,606,188,355,163,
0,418,598,186,350,163,
0,415,691,185,378,161,
0,465,679,184,374,159,
0,460,669,183,371,159,
0,453,659,235,367,158,
0,448,651,231,364,156,
0,444,642,230,359,156,
0,439,633,227,356,154,
0,434,625,225,353,153,
0,430,615,224,350,152,
0,425,608,222,347,152,
0,422,696,220,382,150,
0,431,684,219,378,148,
0,425,675,216,375,175,
0,420,665,215,371,173,
0,415,655,212,368,172,
0,412,647,211,364,169,
0,408,639,209,359,167,
0,404,631,207,357,167,
0,400,620,206,354,166,
0,396,612,204,377,164,
0,439,696,203,373,163,
0,435,686,201,369,161,
0,430,675,199,366,179,
0,423,666,198,361,177,
0,419,657,196,359,176,
0,415,647,195,355,175,
0,411,639,193,352,173,
0,407,632,192,348,172,
0,403,621,190,345,170,
0,399,624,189,376,168,
0,459,702,187,371,167,
0,452,691,185,368,166,
0,448,681,184,364,167,
0,441,671,183,361,166,
0,437,663,182,358,164,
0,432,654,180,355,163,
0,428,644,179,352,162,
0,423,636,177,348,161,
0,419,626,176,345,159,
0,415,706,175,383,159,
0,473,719,174,377,157,
0,467,708,172,374,157,
0,463,698,209,371,192,
0,456,688,207,367,190,
0,451,679,205,364,188,
0,447,669,204,359,187,
0,442,660,201,357,184,
0,438,652,199,353,184,
0,433,639,199,351,182,
0,429,679,197,372,180,
0,467,669,195,368,179,
0,462,659,193,365,218,
0,456,650,192,361,216,
0,451,641,190,358,214,
0,446,633,188,355,211,
0,441,625,187,352,209,
0,436,617,185,348,207,
0,432,609,184,345,206,
0,428,600,183,342,204,
0,423,689,182,374,203,
0,440,679,179,369,201,
0,435,669,179,367,199,
0,431,659,177,363,198,
0,425,651,177,359,196,
0,421,642,175,356,194,
0,417,633,174,353,192,
0,413,625,172,350,191,
0,409,617,171,347,190,
0,404,608,170,380,188,
0,438,691,169,385,187,
0,437,680,167,382,185,
0,432,671,167,377,184,
0,428,662,165,375,183,
0,423,652,183,371,181,
0,417,643,180,367,179,
0,414,635,179,364,177,
0,409,627,178,359,176,
0,406,619,176,356,175,
0,401,615,175,384,174,
0,464,703,174,379,172,
0,459,692,172,376,171,
0,454,682,171,371,174,
0,448,671,169,368,173,
0,443,664,167,364,172,
0,438,654,167,360,169,
0,433,646,166,358,167,
0,428,637,164,354,167,
0,423,628,163,352,166,
0,420,686,162,380,164,
0,475,689,161,376,163,
0,468,679,159,371,163,
0,463,670,161,368,178,
0,458,660,159,364,176,
0,451,652,159,360,175,
0,448,643,158,358,174,
0,443,635,156,354,172,
0,438,626,155,352,171,
0,433,619,153,348,169,
0,430,704,153,382,167,
0,462,693,152,378,167,
0,457,684,151,375,209,
0,452,673,156,371,220,
0,448,664,156,367,219,
0,441,655,154,364,216,
0,436,646,152,359,214,
0,432,638,152,357,212,
0,428,630,150,353,210,
0,423,622,150,351,208,
0,419,687,148,376,207,
0,468,676,147,371,206,
0,463,667,146,368,204,
0,458,657,145,364,201,
0,454,647,151,361,199,
0,448,639,188,358,199,
0,443,632,185,354,197,
0,438,623,184,352,195,
0,433,615,183,348,193,
0,428,608,181,345,192,
0,458,693,179,382,191,
0,467,683,178,377,189,
0,461,673,176,374,196,
0,455,664,175,371,195,
0,451,654,174,367,193,
0,446,646,172,363,191,
0,440,637,171,359,190,
0,436,628,169,356,188,
0,432,620,167,353,187,
0,428,612,167,364,185,
0,467,693,166,374,184,
0,462,683,164,369,182,
0,457,673,164,366,184,
0,451,664,163,363,184,
0,447,655,161,359,182,
0,441,646,159,355,179,
0,436,637,159,352,178,
0,432,629,158,349,177,
0,428,620,156,346,176,
0,423,613,155,379,175,
0,470,693,154,374,173,
0,463,683,152,369,172,
0,460,673,225,366,192,
0,454,664,241,363,190,
0,449,655,240,359,188,
0,443,646,236,355,185,
0,438,638,235,352,184,
0,434,629,232,350,183,
0,430,621,231,346,182,
0,425,664,229,374,180,
0,444,692,227,369,179,
0,439,683,225,366,189,
0,434,673,224,362,188,
0,430,664,222,359,185,
0,423,654,220,355,184,
0,420,646,217,352,183,
0,415,637,216,349,180,
0,412,629,214,345,179,
0,408,620,212,343,178,
0,413,790,211,379,176,
0,479,803,209,374,175,
0,473,791,207,370,217,
0,468,779,206,367,215,
0,463,767,204,363,212,
0,456,755,203,359,211,
0,451,744,200,356,208,
0,448,734,199,353,207,
0,442,723,198,350,204,
0,438,713,196,347,204,
0,451,774,195,372,201,
0,455,758,193,368,199,
0,449,747,223,364,214,
0,445,736,220,359,211,
0,440,725,219,358,209,
0,435,714,216,354,207,
0,430,704,215,351,206,
0,425,695,212,348,204,
0,422,686,211,344,202,
0,417,676,209,359,200,
0,433,684,207,380,199,
0,428,671,206,375,198,
0,423,664,204,371,199,
0,419,655,203,368,197,
0,415,647,200,364,195,
0,411,638,199,360,193,
0,407,631,197,358,192,
0,403,623,195,355,191,
0,399,615,195,352,189,
0,395,608,193,385,188,
0,481,680,191,380,186,
0,476,668,190,376,187,
0,471,659,188,372,233,
0,464,649,187,368,231,
0,460,639,185,365,228,
0,454,632,184,361,227,
0,449,624,183,359,224,
0,444,615,182,355,223,
0,440,608,180,352,220,
0,435,648,179,380,219,
0,440,678,177,376,217,
0,435,668,176,371,227,
0,432,659,175,368,226,
0,427,651,174,364,224,
0,423,641,172,359,222,
0,417,632,171,358,220,
0,414,624,169,354,217,
0,409,616,167,351,216,
0,406,608,167,348,215,
0,404,699,166,390,212,
0,462,684,165,385,211,
0,456,675,163,380,209,
0,451,665,163,376,207,
0,447,655,163,374,206,
0,442,647,161,370,204,
0,436,639,160,366,203,
0,432,630,159,363,200,
0,428,622,158,359,199,
0,423,614,156,356,198,
0,440,705,156,387,196,
0,443,691,155,384,195,
0,438,683,171,379,196,
0,433,671,177,375,195,
0,428,664,187,371,193,
0,423,654,184,368,192,
0,419,646,183,364,190,
0,415,636,181,360,188,
0,410,628,179,358,187,
0,407,620,178,368,185,
0,450,738,176,387,184,
0,444,723,175,384,183,
0,440,713,174,379,181,
0,435,703,172,375,179,
0,431,692,175,371,179,
0,425,683,173,368,177,
0,420,673,171,364,176,
0,416,664,169,361,174,
0,412,655,167,358,173,
0,408,647,167,398,172,
0,503,656,166,393,171,
0,496,646,164,389,169,
0,491,637,231,384,179,
0,485,628,229,380,177,
0,480,620,227,377,176,
0,475,613,225,374,174,
0,467,605,223,369,173,
0,463,598,220,366,171,
0,457,591,219,363,169,
0,454,635,217,387,167,
0,463,672,216,384,167,
0,458,660,214,379,169,
0,454,652,211,375,186,
0,448,643,210,371,184,
0,444,633,208,368,184,
0,440,625,207,364,182,
0,434,617,205,360,180,
0,430,609,203,358,178,
0,425,601,201,355,177,
0,427,721,199,393,175,
0,504,708,199,390,174,
0,497,696,197,385,207,
0,492,686,195,380,204,
0,487,675,194,377,203,
0,481,667,192,374,200,
0,476,657,191,370,199,
0,470,648,189,366,198,
0,464,639,188,364,195,
0,460,632,187,359,193,
0,463,719,185,384,192,
0,463,708,184,380,191,
0,457,696,183,376,192,
0,453,686,181,371,190,
0,448,676,201,368,188,
0,444,667,225,364,187,
0,440,657,223,361,185,
0,433,648,220,358,184,
0,430,639,218,355,182,
0,425,632,216,366,180,
0,487,689,215,396,179,
0,481,679,212,391,177,
0,476,668,211,387,188,
0,471,658,209,384,187,
0,465,649,207,380,185,
0,460,639,206,376,184,
0,455,632,204,372,183,
0,449,624,202,369,180,
0,444,615,200,366,179,
0,440,608,199,382,177,
0,451,691,198,377,176,
0,446,679,196,374,175,
0,440,668,195,369,179,
0,435,659,193,366,177,
0,432,650,192,363,176,
0,428,641,190,359,174,
0,423,633,188,356,172,
0,417,624,187,353,171,
0,414,616,185,350,169,
0,411,654,184,384,168,
0,460,702,183,380,167,
0,455,691,181,376,183,
0,449,679,182,371,181,
0,444,670,188,368,179,
0,440,660,186,364,177,
0,435,652,184,360,176,
0,431,643,183,358,175,
0,425,635,181,355,173,
0,421,627,179,352,172,
0,417,732,178,386,170,
0,463,719,177,382,168,
0,458,708,176,378,167,
0,453,696,174,374,166,
0,448,685,173,370,165,
0,444,675,172,367,163,
0,439,667,171,363,162,
0,434,657,169,359,161,
0,428,649,167,356,159,
0,423,639,167,353,159,
0,442,702,166,387,158,
0,461,691,164,384,156,
0,455,681,163,379,159,
0,451,669,162,374,158,
0,446,659,188,371,156,
0,441,651,194,368,155,
0,436,642,192,364,153,
0,432,633,191,359,152,
0,426,625,188,357,152,
0,422,617,187,362,150,
0,459,711,185,391,149,
0,455,700,184,386,147,
0,449,689,231,383,147,
0,445,677,231,377,146,
0,440,668,230,374,145,
0,435,659,227,371,144,
0,431,650,225,367,143,
0,427,641,224,364,142,
0,422,633,221,359,141,
0,417,625,220,397,140,
0,454,617,217,391,139,
0,448,609,216,388,138,
0,444,601,216,384,184,
0,439,592,215,380,182,
0,434,585,212,376,179,
0,429,579,211,372,179,
0,424,572,209,369,177,
0,420,566,207,366,175,
0,415,560,206,361,174,
0,412,608,204,386,172,
0,478,704,203,382,171,
0,472,692,200,377,187,
0,467,683,199,374,206,
0,461,671,198,369,204,
0,455,662,196,366,201,
0,451,652,195,363,199,
0,447,643,193,359,199,
0,440,635,192,356,196,
0,436,627,190,353,195,
0,432,696,188,380,193,
0,454,684,187,376,192,
0,448,675,185,372,196,
0,444,665,199,368,194,
0,439,654,198,364,192,
0,434,645,196,360,192,
0,430,636,195,358,190,
0,425,627,193,354,188,
0,419,620,192,351,187,
0,415,612,190,348,185,
0,455,696,188,384,184,
0,472,684,187,380,182,
0,465,675,185,376,204,
0,460,665,184,373,201,
0,455,654,185,368,199,
0,451,644,184,365,198,
0,446,636,183,361,196,
0,441,628,181,359,195,
0,435,620,180,355,193,
0,431,612,178,355,191,
0,470,683,177,382,190,
0,463,672,176,377,188,
0,458,664,177,374,195,
0,453,654,176,370,193,
0,448,643,175,366,192,
0,444,635,173,363,191,
0,439,626,172,359,189,
0,434,617,171,355,188,
0,428,610,169,352,186,
0,423,603,167,382,184,
0,455,691,167,377,183,
0,449,679,166,374,181,
0,444,671,165,369,188,
0,440,662,163,366,186,
0,435,649,162,361,185,
0,431,641,161,359,184,
0,426,632,159,355,182,
0,422,624,159,352,180,
0,417,616,158,349,179,
0,413,643,156,376,177,
0,465,688,155,371,176,
0,460,678,154,368,175,
0,455,668,189,364,179,
0,449,657,187,361,177,
0,444,647,185,356,176,
0,440,639,184,353,174,
0,435,631,183,350,173,
0,431,623,181,347,172,
0,425,615,179,344,171,
0,422,664,177,370,168,
0,451,654,176,366,167,
0,446,645,175,363,166,
0,441,636,174,359,164,
0,436,625,172,355,163,
0,432,617,171,352,162,
0,428,609,169,348,161,
0,423,601,167,345,159,
0,419,594,167,343,159,
0,414,588,166,339,158,
0,435,692,163,378,156,
0,461,681,163,374,155,
0,455,671,191,371,188,
0,451,662,239,367,186,
0,446,651,236,363,184,
0,441,642,234,359,183,
0,436,633,231,355,182,
0,432,625,230,352,179,
0,428,617,228,349,178,
0,422,609,226,349,177,
0,454,703,224,385,175,
0,448,692,222,382,174,
0,444,683,220,377,177,
0,439,672,219,374,176,
0,433,661,216,371,174,
0,430,652,216,366,172,
0,425,643,213,363,172,
0,420,635,211,359,170,
0,416,626,209,356,168,
0,412,618,207,378,167,
0,467,696,206,374,166,
0,462,686,204,370,164,
0,457,675,203,367,163,
0,451,666,201,363,162,
0,448,655,209,359,161,
0,442,647,207,355,159,
0,438,638,206,352,159,
0,433,629,204,349,158,
0,428,621,202,345,156,
0,423,647,199,385,155,
0,448,696,199,380,153,
0,443,687,197,376,156,
0,439,677,215,374,159,
0,433,668,212,369,158,
0,429,655,211,366,156,
0,424,647,209,361,156,
0,420,639,207,359,154,
0,415,630,205,355,153,
0,412,622,204,352,152,
0,408,729,201,369,151,
0,455,752,199,365,149,
0,451,740,199,361,172,
0,445,729,232,359,169,
0,440,719,231,355,167,
0,435,705,228,352,167,
0,431,696,227,348,166,
0,427,686,224,344,164,
0,423,676,223,342,163,
0,418,668,221,339,161,
0,428,764,219,374,160,
0,444,752,217,370,159,
0,439,740,216,367,196,
0,434,729,214,363,195,
0,429,719,211,359,192,
0,424,706,210,355,191,
0,420,696,208,352,190,
0,415,687,207,349,188,
0,412,678,205,345,187,
0,408,668,204,343,185,
0,460,719,201,366,184,
0,454,707,199,362,181,
0,448,697,199,359,185,
0,444,688,197,355,184,
0,439,678,195,352,183,
0,434,667,194,348,181,
0,430,657,192,344,179,
0,425,649,191,342,178,
0,421,641,190,339,177,
0,417,633,188,387,176,
0,440,694,187,384,174,
0,435,683,185,380,172,
0,432,673,198,376,219,
0,427,664,196,373,216,
0,422,655,195,369,215,
0,417,643,193,365,212,
0,414,636,192,362,211,
0,409,627,190,359,209,
0,406,620,188,355,207,
0,401,639,187,382,206,
0,449,696,185,377,204,
0,444,685,184,374,202,
0,440,675,183,370,200,
0,434,665,181,367,199,
0,430,656,179,363,198,
0,425,646,178,359,196,
0,420,637,177,355,195,
0,416,629,176,352,193,
0,412,621,175,349,192,
0,408,712,173,385,190,
0,468,737,172,381,188,
0,463,726,171,377,192,
0,457,716,176,374,190,
0,452,705,175,370,188,
0,448,696,174,366,187,
0,443,684,172,362,185,
0,438,673,171,359,184,
0,433,664,169,355,183,
0,429,655,167,352,181,
0,425,723,167,391,179,
0,457,711,166,386,178,
0,451,702,164,383,198,
0,447,691,163,379,195,
0,442,682,163,376,194,
0,438,672,162,371,192,
0,433,662,160,367,191,
0,428,652,159,364,189,
0,423,643,158,359,188,
0,419,636,157,358,187,
0,424,735,156,384,184,
0,462,723,155,379,183,
0,457,712,167,376,216,
0,452,702,167,371,213,
0,448,692,166,368,211,
0,442,683,163,364,209,
0,438,671,163,360,207,
0,433,662,161,357,206,
0,428,653,159,354,204,
0,423,644,159,368,203,
0,472,731,157,364,200,
0,467,719,156,360,199,
0,462,709,156,358,199,
0,457,698,155,354,197,
0,452,689,153,351,195,
0,448,679,152,348,194,
0,443,668,152,344,192,
0,438,659,151,340,191,
0,433,649,149,337,190,
0,429,667,148,389,188,
0,463,718,147,384,187,
0,455,707,146,380,184,
0,451,696,147,376,186,
0,446,687,146,374,184,
0,441,678,145,369,184,
0,436,668,143,366,182,
0,432,656,143,361,180,
0,427,647,142,359,179,
0,423,639,141,355,177,
0,419,697,140,387,176,
0,463,686,139,383,175,
0,459,675,138,379,194,
0,454,666,152,376,192,
0,448,657,150,371,191,
0,444,647,149,368,189,
0,440,639,147,364,187,
0,435,628,147,359,185,
0,430,620,145,356,184,
0,425,613,144,353,183,
0,422,687,143,376,181,
0,475,675,142,372,179,
0,468,666,140,368,187,
0,463,657,143,365,184,
0,459,647,141,361,183,
0,454,639,140,359,182,
0,449,632,139,355,180,
0,444,620,138,351,179,
0,440,612,137,348,177,
0,435,605,135,345,176,
0,431,699,135,391,174,
0,452,688,134,387,173,
0,448,678,133,384,172,
0,442,668,158,380,170,
0,438,659,156,376,168,
0,433,651,155,372,167,
0,428,641,153,369,167,
0,423,632,152,364,165,
0,419,623,152,361,164,
0,415,615,150,384,163,
0,459,697,148,380,161,
0,455,687,147,376,160,
0,451,677,179,373,173,
0,446,667,177,369,172,
0,440,658,176,366,170,
0,435,649,174,363,168,
0,432,639,172,359,167,
0,427,630,171,355,166,
0,423,622,169,352,164,
0,419,630,167,380,163,
0,464,688,167,376,162,
0,457,679,166,372,161,
0,452,669,167,368,181,
0,448,659,166,365,179,
0,443,651,216,361,177,
0,438,641,213,359,176,
0,433,632,211,355,175,
0,428,623,209,351,173,
0,423,615,207,348,172,
0,419,679,206,376,171,
0,449,675,204,371,169,
0,443,664,202,368,167,
0,438,655,199,364,180,
0,433,647,199,361,179,
0,428,638,196,358,177,
0,423,629,195,354,175,
0,419,619,193,352,174,
0,415,611,192,348,173,
0,412,603,191,344,171,
0,408,652,190,381,169,
0,465,641,188,376,167,
0,459,632,186,373,167,
0,454,624,184,369,166,
0,448,615,183,366,164,
0,444,608,182,363,163,
0,439,600,180,359,161,
0,434,591,179,355,160,
0,430,584,177,352,159,
0,425,577,176,349,158,
0,422,681,175,380,157,
0,446,671,174,376,156,
0,440,662,172,371,182,
0,435,652,171,368,180,
0,431,643,169,365,179,
0,425,635,167,361,177,
0,422,627,167,358,175,
0,417,616,166,355,174,
0,413,609,165,351,172,
0,409,601,163,374,172,
0,452,671,162,370,169,
0,447,662,161,366,167,
0,440,652,159,363,169,
0,435,643,159,359,167,
0,431,635,158,355,166,
0,427,626,156,353,165,
0,422,617,156,350,163,
0,417,608,154,347,163,
0,414,600,153,343,161,
0,409,607,152,383,159,
0,448,671,151,379,159,
0,443,662,150,375,158,
0,436,652,148,371,156,
0,432,643,147,367,155,
0,428,635,147,364,153,
0,423,626,145,359,152,
0,419,618,144,357,152,
0,415,608,143,353,151,
0,410,600,143,350,149,
0,406,641,142,379,148,
0,454,632,140,375,147,
0,448,623,140,371,148,
0,441,615,192,368,189,
0,437,606,190,364,187,
0,432,599,190,360,185,
0,428,591,188,358,184,
0,423,583,187,354,182,
0,419,575,185,351,180,
0,415,568,184,347,179,
0,412,632,182,373,177,
0,468,622,180,369,176,
0,463,613,179,366,179,
0,455,605,177,361,177,
0,451,597,176,359,176,
0,447,590,175,355,174,
0,441,582,173,352,172,
0,438,575,172,349,171,
0,433,567,171,344,169,
0,428,560,169,342,169,
0,426,648,167,381,167,
0,472,638,167,376,166,
0,467,630,166,374,185,
0,460,621,164,369,184,
0,455,613,163,366,182,
0,451,605,162,363,179,
0,446,598,161,359,179,
0,441,590,159,355,177,
0,436,580,159,352,176,
0,432,574,157,375,174,
0,460,684,156,376,173,
0,455,673,155,371,172,
0,451,664,158,368,179,
0,444,655,156,364,177,
0,440,646,155,361,176,
0,435,637,153,358,175,
0,431,629,152,354,173,
0,427,620,152,352,172,
0,422,611,150,347,169,
0,418,615,150,374,169,
0,484,684,148,369,167,
0,478,674,147,366,166,
0,472,664,147,362,166,
0,466,655,145,359,164,
0,461,647,172,355,163,
0,455,638,171,352,161,
0,451,629,169,349,159,
0,447,621,167,345,159,
0,442,611,167,342,158,
0,438,686,166,382,156,
0,477,698,163,377,155,
0,472,688,163,374,167,
0,467,678,168,369,199,
0,460,669,167,366,196,
0,455,659,166,363,195,
0,450,651,164,359,193,
0,446,642,163,356,191,
0,440,633,161,352,190,
0,436,624,160,348,188,
0,432,704,159,387,187,
0,469,692,158,384,184,
0,463,683,157,380,186,
0,459,671,159,376,184,
0,451,664,158,372,182,
0,447,654,156,368,181,
0,443,645,155,365,179,
0,438,636,154,361,177,
0,433,628,153,358,176,
0,428,619,152,354,176,
0,424,711,150,389,174,
0,463,699,149,385,172,
0,459,689,147,382,206,
0,454,679,150,377,204,
0,448,670,148,374,200,
0,443,660,147,370,199,
0,438,652,145,367,198,
0,433,643,144,364,195,
0,429,635,143,359,194,
0,424,624,143,388,193,
0,459,702,142,390,191,
0,455,690,140,385,190,
0,449,680,147,382,188,
0,445,671,145,377,187,
0,440,662,143,375,184,
0,435,652,143,371,184,
0,430,643,142,367,182,
0,425,636,140,364,180,
0,422,627,140,360,179,
0,417,638,139,384,177,
0,481,702,137,379,176,
0,476,691,135,376,175,
0,471,681,182,371,174,
0,465,671,179,368,172,
0,459,663,177,364,170,
0,454,654,175,361,168,
0,449,645,174,358,167,
0,444,636,172,355,167,
0,440,628,171,352,165,
0,435,701,169,376,164,
0,451,694,167,371,163,
0,446,683,167,368,161,
0,440,673,167,364,160,
0,435,664,166,359,159,
0,431,655,164,357,158,
0,426,646,163,354,156,
0,422,638,161,351,156,
0,417,629,159,348,155,
0,414,622,159,344,153,
0,411,728,158,376,152,
0,472,716,156,373,151,
0,466,705,156,369,179,
0,462,696,167,366,185,
0,455,685,167,362,184,
0,450,675,165,359,182,
0,445,666,163,355,180,
0,440,657,162,352,179,
0,436,648,161,349,177,
0,432,639,159,345,176,
0,428,719,159,382,175,
0,441,707,157,378,173,
0,436,697,156,375,230,
0,432,687,169,371,227,
0,426,678,167,368,224,
0,422,668,167,364,222,
0,418,659,165,359,220,
0,414,650,163,358,219,
0,409,642,162,353,216,
0,406,633,161,351,215,
0,448,743,159,382,212,
0,449,732,159,377,211,
0,445,721,192,374,210,
0,440,710,199,370,208,
0,434,700,197,367,207,
0,430,691,195,364,205,
0,425,680,193,359,203,
0,420,671,192,356,201,
0,415,663,190,353,199,
0,412,654,188,364,199,
0,452,714,187,367,196,
0,448,703,185,363,195,
0,443,693,184,359,193,
0,438,683,183,355,192,
0,432,673,181,352,191,
0,428,664,179,350,188,
0,423,655,178,347,188,
0,419,647,176,344,185,
0,414,639,175,340,184,
0,411,699,174,380,184,
0,471,704,172,376,182,
0,465,694,171,371,180,
0,460,684,172,368,179,
0,455,674,170,364,177,
0,448,665,173,360,176,
0,444,655,171,358,175,
0,440,647,169,354,174,
0,435,639,167,351,172,
0,430,631,167,348,171,
0,426,716,166,379,169,
0,462,704,164,374,168,
0,455,694,163,370,167,
0,451,684,221,367,167,
0,446,674,219,363,166,
0,440,664,217,359,164,
0,435,655,216,356,163,
0,432,647,214,353,161,
0,428,639,211,350,160,
0,423,631,209,347,159,
0,420,701,207,385,158,
0,476,690,206,380,157,
0,470,680,204,376,156,
0,464,671,203,373,155,
0,460,662,201,369,153,
0,453,652,199,366,152,
0,448,643,198,363,152,
0,444,635,196,359,150,
0,440,627,195,356,149,
0,435,619,193,352,148,
0,467,673,192,387,147,
0,470,664,190,383,146,
0,465,655,188,379,204,
0,460,646,188,376,202,
0,455,637,196,371,199,
0,448,628,195,368,199,
0,444,620,193,364,196,
0,440,612,192,361,195,
0,435,604,190,358,193,
0,430,598,188,367,192,
0,486,681,187,376,190,
0,480,671,185,371,188,
0,475,662,188,367,195,
0,469,652,186,364,194,
0,463,643,184,359,192,
0,457,636,183,356,191,
0,452,627,182,353,188,
0,448,619,180,351,187,
0,444,611,179,348,185,
0,440,604,177,376,184,
0,467,685,176,372,183,
0,461,675,175,368,182,
0,455,665,174,364,193,
0,451,656,173,361,192,
0,446,647,172,358,191,
0,440,639,170,354,189,
0,435,631,168,352,187,
0,432,622,167,348,185,
0,427,615,166,344,184,
0,423,660,165,384,183,
0,459,687,163,380,181,
0,454,677,163,376,206,
0,448,668,167,371,206,
0,444,658,166,368,204,
0,439,648,164,364,203,
0,433,639,163,361,200,
0,428,632,161,358,199,
0,423,624,159,355,197,
0,419,615,159,352,195,
0,415,729,158,382,193,
0,452,713,156,376,192,
0,447,704,156,374,191,
0,441,694,164,369,189,
0,438,684,163,366,188,
0,432,674,161,363,186,
0,427,664,159,359,184,
0,423,655,158,355,183,
0,419,647,157,352,182,
0,414,639,156,350,180,
0,457,721,155,380,179,
0,472,707,153,375,177,
0,467,697,174,371,216,
0,462,686,216,368,214,
0,455,677,215,364,211,
0,451,668,212,360,210,
0,445,659,210,358,207,
0,440,649,208,354,206,
0,436,641,207,351,204,
0,432,632,205,364,203,
0,463,707,204,382,201,
0,458,694,201,376,199,
0,453,684,199,373,198,
0,448,674,199,369,196,
0,443,665,196,366,195,
0,439,655,195,363,193,
0,433,647,193,359,192,
0,428,639,192,355,190,
0,423,631,190,352,188,
0,420,623,189,386,187,
0,473,632,188,382,185,
0,468,622,185,376,184,
0,463,614,248,373,184,
0,457,606,244,369,183,
0,452,599,242,366,182,
0,448,591,240,363,180,
0,442,584,238,359,179,
0,438,578,236,355,177,
0,433,572,233,352,176,
0,429,620,231,391,174,
0,480,667,230,387,173,
0,473,655,227,384,193,
0,468,646,252,379,195,
0,463,637,249,376,193,
0,459,628,262,371,191,
0,454,620,259,368,190,
0,448,612,255,364,188,
0,443,604,254,361,185,
0,439,597,252,358,184,
0,434,675,250,380,183,
0,467,664,248,376,182,
0,463,652,246,371,180,
0,457,643,243,368,179,
0,452,635,241,364,177,
0,448,626,240,361,176,
0,443,617,238,358,174,
0,437,610,236,355,173,
0,432,603,233,352,172,
0,428,595,231,348,171,
0,473,692,230,387,168,
0,487,681,228,384,167,
0,481,670,227,379,215,
0,476,660,225,375,211,
0,471,651,223,371,210,
0,465,642,222,368,207,
0,460,633,220,364,207,
0,455,625,217,359,204,
0,449,617,216,358,203,
0,445,609,215,367,200,
0,463,701,213,386,199,
0,457,691,211,383,198,
0,452,678,209,378,214,
0,448,668,207,374,211,
0,443,659,206,371,210,
0,438,650,205,367,208,
0,433,641,204,364,206,
0,428,633,201,359,204,
0,423,625,199,357,203,
0,419,617,199,384,201,
0,462,691,197,380,199,
0,455,680,195,376,198,
0,451,668,195,371,199,
0,446,659,193,368,198,
0,441,649,193,364,196,
0,436,641,192,361,194,
0,431,632,190,358,192,
0,427,624,188,355,191,
0,423,616,187,352,190,
0,419,622,185,376,188,
0,446,614,184,371,187,
0,440,606,183,368,207,
0,436,596,184,364,224,
0,431,589,183,359,222,
0,427,582,181,356,220,
0,423,575,180,353,219,
0,417,568,179,350,216,
0,412,562,177,347,214,
0,408,556,176,344,212,
0,406,659,175,380,211,
0,442,651,173,376,209,
0,437,641,172,372,209,
0,433,632,192,368,207,
0,428,623,191,364,206,
0,423,615,189,361,204,
0,419,607,188,358,203,
0,414,600,186,354,200,
0,410,591,184,351,199,
0,406,584,183,348,198,
0,445,671,181,377,195,
0,471,660,179,374,194,
0,465,651,179,369,192,
0,460,639,178,365,191,
0,455,632,176,361,190,
0,450,623,175,359,188,
0,445,615,174,355,187,
0,440,607,172,352,185,
0,435,600,171,348,184,
0,430,591,169,362,182,
0,469,624,167,391,180,
0,463,615,167,387,179,
0,459,607,177,384,199,
0,453,596,175,379,198,
0,448,589,174,376,196,
0,444,582,172,371,195,
0,440,575,171,368,193,
0,433,568,169,365,192,
0,429,561,167,361,190,
0,424,580,167,401,188,
0,504,678,166,396,187,
0,497,668,164,392,185,
0,492,656,163,388,229,
0,487,647,163,384,227,
0,481,638,161,380,224,
0,476,630,160,376,223,
0,471,622,159,373,221,
0,464,613,158,369,219,
0,460,606,156,366,216,
0,455,686,156,394,215,
0,470,743,155,390,212,
0,464,732,153,385,211,
0,460,718,166,382,211,
0,455,707,164,377,209,
0,449,697,163,374,207,
0,445,688,161,371,206,
0,440,678,159,367,204,
0,435,669,159,364,203,
0,431,660,157,359,199,
0,427,746,156,391,199,
0,454,734,155,387,197,
0,449,723,153,384,195,
0,444,710,177,380,194,
0,440,700,176,376,192,
0,435,689,175,372,192,
0,430,679,173,368,190,
0,425,671,172,365,188,
0,420,662,171,361,187,
0,416,653,168,359,185,
0,444,728,167,386,184,
0,455,716,166,382,182,
0,451,705,175,379,194,
0,446,693,188,375,192,
0,441,683,187,369,191,
0,435,673,184,366,189,
0,432,664,184,363,188,
0,427,655,182,359,185,
0,422,647,179,356,184,
0,417,639,179,369,183,
0,451,738,177,387,181,
0,447,726,176,384,179,
0,441,716,194,380,208,
0,436,703,192,376,207,
0,432,692,191,371,204,
0,428,683,188,368,203,
0,423,673,187,364,201,
0,419,664,185,360,199,
0,414,655,184,358,198,
0,409,647,182,382,196,
0,455,719,180,377,194,
0,449,709,179,374,193,
0,444,699,206,370,214,
0,440,686,204,366,211,
0,435,676,202,362,209,
0,430,668,200,359,207,
0,425,659,199,355,206,
0,422,649,197,352,204,
0,415,641,195,349,203,
0,412,655,193,382,200,
0,457,655,192,377,199,
0,452,647,190,374,209,
0,448,638,189,370,216,
0,443,627,188,367,214,
0,438,620,185,362,211,
0,433,612,184,359,210,
0,428,604,184,355,208,
0,423,598,182,352,207,
0,419,591,179,350,205,
0,415,700,179,390,203,
0,450,696,177,385,201,
0,445,686,176,382,204,
0,440,675,175,377,201,
0,435,664,174,373,199,
0,431,655,172,369,198,
0,427,647,171,367,196,
0,422,638,169,363,195,
0,418,630,167,359,193,
0,412,622,167,356,192,
0,470,816,166,373,190,
0,511,801,164,369,188,
0,504,787,177,366,193,
0,499,775,186,362,192,
0,494,761,211,358,190,
0,487,750,216,355,189,
0,483,739,213,352,187,
0,478,728,211,348,185,
0,472,718,209,345,184,
0,467,708,207,348,183,
0,462,699,206,364,181,
0,456,689,204,359,179,
0,452,680,291,356,194,
0,448,671,286,352,192,
0,444,660,283,348,191,
0,439,652,280,345,188,
0,435,643,278,343,187,
0,430,636,275,339,185,
0,426,627,273,336,184,
0,421,620,270,380,183,
0,494,613,268,375,180,
0,487,606,265,371,179,
0,481,599,263,368,190,
0,476,591,262,364,188,
0,472,583,259,359,187,
0,466,575,257,356,185,
0,461,569,255,353,184,
0,455,563,253,350,182,
0,451,557,251,347,180,
0,446,608,248,376,179,
0,441,656,247,371,177,
0,436,647,244,368,199,
0,432,638,249,364,213,
0,428,630,248,360,211,
0,423,620,245,356,209,
0,419,611,243,353,207,
0,415,604,241,350,206,
0,412,595,240,347,204,
0,408,588,238,344,202,
0,403,723,236,376,199,
0,449,815,233,371,199,
0,444,801,231,368,199,
0,440,789,230,364,198,
0,435,777,228,361,196,
0,430,763,227,357,195,
0,425,752,225,353,193,
0,421,740,224,350,192,
0,417,729,222,347,190,
0,412,719,220,344,189,
0,408,711,218,368,187,
0,403,700,216,364,185,
0,399,691,307,361,184,
0,396,681,301,358,182,
0,392,673,314,355,201,
0,389,662,319,351,199,
0,385,654,317,347,198,
0,383,646,313,344,196,
0,379,637,312,341,195,
0,376,630,308,347,193,
0,481,622,305,374,191,
0,491,614,302,370,190,
0,486,607,300,367,226,
0,480,600,297,363,224,
0,475,593,295,359,222,
0,470,584,292,355,220,
0,464,577,290,352,217,
0,460,738,287,348,216,
0,455,725,286,345,214,
0,450,715,283,378,212,
0,444,704,280,374,210,
0,440,694,278,370,208,
0,435,684,275,367,207,
0,431,675,273,363,205,
0,427,665,271,359,204,
0,423,655,270,355,202,
0,419,646,268,352,199,
0,415,638,265,349,199,
0,411,630,263,345,197,
0,406,622,262,372,195,
0,402,614,259,368,193,
0,398,606,256,364,192,
0,395,599,259,361,191,
0,391,591,255,358,190,
0,387,584,254,354,188,
0,384,575,252,350,187,
0,380,569,250,347,185,
0,377,630,248,344,184,
0,375,787,247,340,182,
0,391,775,245,368,180,
0,441,763,243,365,179,
0,436,751,240,361,188,
0,432,739,239,358,187,
0,427,729,237,355,185,
0,423,719,236,351,184,
0,419,707,233,347,182,
0,414,696,231,344,180,
0,410,687,231,340,179,
0,406,678,228,337,177,
0,444,776,227,369,176,
0,483,857,225,365,175,
0,478,843,224,361,179,
0,472,829,222,358,177,
0,467,816,220,355,176,
0,462,803,219,352,174,
0,457,788,217,348,173,
0,452,775,216,344,172,
0,448,896,215,342,171,
0,443,908,212,348,169,
0,448,911,211,381,167,
0,442,904,209,376,167,
0,438,881,207,374,188,
0,433,866,207,369,187,
0,429,852,259,366,184,
0,424,839,255,363,184,
0,420,822,253,359,182,
0,415,809,251,355,180,
0,412,798,248,352,179,
0,408,786,247,384,177,
0,404,775,244,380,176,
0,401,764,241,376,175,
0,398,753,270,373,227,
0,393,743,266,369,224,
0,390,732,263,366,222,
0,387,720,262,363,220,
0,384,711,259,358,219,
0,380,702,257,355,216,
0,376,692,255,352,215,
0,374,768,253,388,214,
0,480,880,251,384,211,
0,474,864,248,380,241,
0,469,850,246,376,255,
0,463,836,260,372,253,
0,459,823,258,369,251,
0,454,807,255,366,248,
0,449,794,254,361,247,
0,444,891,252,359,244,
0,440,907,249,355,242,
0,435,911,248,392,240,
0,460,906,245,388,238,
0,455,883,243,384,236,
0,450,867,240,380,234,
0,445,854,239,377,231,
0,440,839,237,374,230,
0,435,824,235,370,228,
0,432,811,233,366,227,
0,427,799,231,362,225,
0,423,787,230,359,223,
0,419,895,227,380,222,
0,428,908,226,376,220,
0,423,911,224,372,217,
0,419,900,222,368,216,
0,415,879,251,366,215,
0,411,864,254,361,212,
0,408,846,251,359,211,
0,403,832,249,355,209,
0,399,819,247,352,207,
0,396,807,244,353,206,
0,392,896,243,366,205,
0,388,899,240,361,203,
0,385,880,238,359,201,
0,382,865,238,355,199,
0,379,851,236,352,198,
0,375,838,235,348,196,
0,371,821,231,345,195,
0,368,808,231,342,194,
0,366,796,228,339,192,
0,363,784,227,371,191,
0,359,774,225,367,190,
0,356,763,223,363,188,
0,354,752,222,359,192,
0,352,742,220,356,190,
0,349,732,275,353,189,
0,346,721,273,350,188,
0,344,710,271,347,185,
0,341,700,268,343,184,
0,338,691,265,340,184,
0,336,683,263,368,182,
0,405,674,262,364,180,
0,399,665,259,359,179,
0,395,657,255,356,199,
0,391,649,254,353,198,
0,387,641,253,350,195,
0,384,633,251,347,195,
0,380,624,248,344,193,
0,376,617,247,340,191,
0,372,610,244,337,190,
0,369,604,243,372,188,
0,467,596,240,368,187,
0,460,590,239,364,185,
0,455,583,236,360,184,
0,449,575,268,358,198,
0,445,570,288,354,196,
0,440,564,286,351,195,
0,435,556,284,347,193,
0,432,551,280,344,191,
0,427,544,279,341,190,
0,423,585,276,368,188,
0,419,577,273,364,186,
0,414,571,271,359,198,
0,409,563,268,356,195,
0,406,556,266,353,193,
0,401,550,263,350,192,
0,398,608,262,347,191,
0,394,599,259,343,189,
0,391,590,257,340,188,
0,387,583,255,347,186,
0,455,575,254,379,184,
0,531,610,252,375,183,
0,523,601,249,371,182,
0,517,593,323,368,179,
0,511,587,385,364,178,
0,505,579,379,359,177,
0,499,572,375,357,176,
0,495,563,371,353,174,
0,489,556,368,350,173,
0,484,550,364,377,172,
0,480,696,361,374,171,
0,474,686,358,369,169,
0,468,676,354,367,199,
0,463,667,351,363,198,
0,459,657,348,359,196,
0,454,648,344,356,195,
0,450,639,342,353,193,
0,446,630,339,348,192,
0,441,622,335,345,190,
0,437,691,334,378,188,
0,433,801,331,374,187,
0,428,788,327,369,185,
0,423,775,324,366,191,
0,419,764,322,363,189,
0,415,879,319,359,188,
0,412,863,317,355,185,
0,408,847,315,352,184,
0,404,831,312,349,183,
0,400,817,310,345,181,
0,398,901,307,377,179,
0,480,908,304,374,178,
0,475,913,302,369,176,
0,467,915,348,366,175,
0,463,915,344,363,174,
0,457,896,342,359,172,
0,453,876,339,355,171,
0,448,861,335,352,169,
0,444,844,332,348,168,
0,440,831,329,345,167,
0,435,862,327,380,166,
0,456,904,323,376,165,
0,451,911,321,372,192,
0,445,914,318,369,188,
0,440,911,315,366,187,
0,435,887,312,362,185,
0,432,871,310,359,184,
0,427,857,307,355,183,
0,423,839,305,352,181,
0,419,827,303,351,179,
0,415,815,300,369,178,
0,411,802,297,365,176,
0,407,791,295,361,185,
0,402,779,292,358,183,
0,399,768,306,355,182,
0,395,758,304,352,180,
0,391,747,300,348,179,
0,388,736,297,345,177,
0,385,724,295,342,176,
0,382,715,293,368,175,
0,379,812,291,364,173,
0,396,799,288,359,172,
0,391,785,286,356,170,
0,387,774,284,353,168,
0,384,762,281,350,167,
0,380,751,280,347,166,
0,376,739,278,344,165,
0,373,896,275,340,163,
0,369,909,273,337,162,
0,367,911,271,369,161,
0,469,894,270,365,159,
0,463,875,268,361,159,
0,455,860,265,358,176,
0,451,846,263,355,174,
0,447,833,355,352,172,
0,441,820,352,348,171,
0,437,807,348,345,169,
0,433,796,344,342,168,
0,428,832,342,338,167,
0,423,883,339,382,166,
0,548,905,335,377,164,
0,540,911,332,374,163,
0,532,914,329,370,162,
0,526,909,326,367,163,
0,519,883,323,363,161,
0,515,868,320,359,159,
0,508,898,318,356,159,
0,504,908,315,353,158,
0,497,911,312,349,156,
0,493,899,310,380,155,
0,533,877,307,376,154,
0,527,904,305,372,181,
0,519,911,303,369,179,
0,513,914,300,366,177,
0,508,911,318,362,175,
0,502,887,316,359,174,
0,496,871,312,355,172,
0,491,857,310,352,171,
0,486,839,307,348,169,
0,481,900,304,364,167,
0,476,909,302,360,167,
0,472,914,319,358,213,
0,465,916,499,354,211,
0,461,911,510,351,207,
0,456,884,504,348,206,
0,452,875,499,344,204,
0,448,904,493,342,203,
0,444,897,487,339,200,
0,439,895,483,369,199,
0,435,907,478,369,198,
0,432,912,473,365,196,
0,428,915,468,361,207,
0,423,918,463,359,204,
0,419,918,459,355,202,
0,415,907,455,352,199,
0,411,880,450,348,199,
0,408,865,446,345,197,
0,403,847,441,342,195,
0,399,843,439,372,194,
0,559,856,434,368,193,
0,593,841,430,364,191,
0,585,828,427,360,222,
0,575,816,423,358,220,
0,569,803,494,354,217,
0,563,792,487,351,216,
0,556,780,483,348,214,
0,550,769,478,344,211,
0,543,755,473,342,210,
0,538,745,468,377,208,
0,534,736,463,373,207,
0,527,726,459,369,205,
0,523,716,455,366,203,
0,516,707,480,362,201,
0,510,697,472,359,199,
0,505,688,467,355,198,
0,500,679,463,352,196,
0,495,671,458,349,195,
0,489,871,454,345,193,
0,486,856,449,369,192,
0,480,841,444,366,191,
0,476,828,440,363,236,
0,472,814,436,359,236,
0,465,801,432,355,233,
0,460,790,428,352,231,
0,456,780,423,348,229,
0,451,768,420,345,227,
0,448,757,415,343,224,
0,444,743,412,339,223,
0,440,734,409,364,221,
0,435,723,406,360,219,
0,432,836,433,357,217,
0,428,822,470,353,216,
0,423,808,463,350,214,
0,419,796,459,347,211,
0,415,783,454,344,210,
0,412,771,449,341,208,
0,408,817,446,338,207,
0,404,906,441,335,206,
0,401,911,438,369,204,
0,398,915,433,366,202,
0,395,916,429,362,204,
0,391,907,425,359,203,
0,387,880,420,355,203,
0,384,865,416,352,201,
0,380,852,413,349,199,
0,377,852,409,345,198,
0,374,863,405,343,196,
0,371,845,402,376,195,
0,409,831,399,384,193,
0,412,847,395,380,192,
0,408,897,415,376,236,
0,403,880,410,372,233,
0,398,864,455,369,231,
0,393,850,450,366,228,
0,390,836,446,362,227,
0,387,823,441,359,224,
0,383,902,436,355,223,
0,380,911,432,393,221,
0,377,914,428,387,219,
0,374,916,423,384,217,
0,370,919,420,380,224,
0,367,919,415,376,222,
0,363,909,423,372,220,
0,359,880,418,369,217,
0,358,865,414,366,216,
0,355,851,410,363,215,
0,352,839,407,359,212,
0,350,824,403,388,211,
0,419,810,399,384,209,
0,414,798,396,380,225,
0,409,786,391,376,223,
0,406,775,389,373,220,
0,400,764,385,369,219,
0,396,753,382,366,216,
0,392,743,379,363,215,
0,388,835,376,359,212,
0,385,820,372,356,211,
0,451,884,369,379,209,
0,482,867,367,375,207,
0,476,853,364,371,206,
0,472,839,361,368,204,
0,465,825,359,364,203,
0,460,812,355,360,201,
0,455,799,352,358,199,
0,450,788,350,354,198,
0,445,775,348,351,196,
0,440,899,344,348,195,
0,436,908,342,384,193,
0,432,902,339,380,192,
0,428,879,336,377,205,
0,423,864,455,373,203,
0,419,851,449,369,201,
0,415,836,443,366,199,
0,411,824,439,363,198,
0,408,901,435,359,196,
0,403,910,430,355,195,
0,399,913,426,386,193,
0,396,915,422,387,192,
0,391,915,418,384,190,
0,388,897,414,380,191,
0,385,876,410,376,189,
0,382,861,407,372,188,
0,377,885,402,369,185,
0,374,900,398,366,184,
0,371,909,395,362,184,
0,368,913,391,359,182,
0,364,916,388,368,180,
0,361,913,384,363,179,
0,359,899,382,359,179,
0,355,908,482,356,189,
0,352,911,476,353,188,
0,350,903,471,350,185,
0,346,880,464,347,184,
0,344,865,460,344,183,
0,341,851,455,340,180,
0,339,838,451,337,179,
0,341,881,447,364,178,
0,509,896,442,359,177,
0,503,877,438,356,205,
0,496,862,433,353,203,
0,491,848,430,350,200,
0,486,835,499,346,199,
0,479,822,492,344,197,
0,473,809,487,340,195,
0,468,797,481,337,193,
0,463,785,476,334,192,
0,460,775,472,369,191,
0,567,883,467,364,189,
0,559,867,463,360,191,
0,551,853,458,358,189,
0,545,897,513,354,188,
0,540,881,505,351,185,
0,531,866,499,347,184,
0,526,852,493,344,183,
0,519,838,487,341,182,
0,515,824,483,338,179,
0,509,848,478,363,178,
0,550,831,473,358,177,
0,543,817,468,354,188,
0,536,804,463,351,186,
0,531,792,460,348,184,
0,524,780,455,344,183,
0,517,769,449,342,180,
0,511,892,446,338,179,
0,506,883,441,335,178,
0,500,868,438,370,176,
0,496,854,433,380,175,
0,491,836,430,375,174,
0,486,823,425,371,173,
0,481,810,422,368,172,
0,476,798,419,364,171,
0,470,785,415,360,169,
0,465,851,411,358,167,
0,461,836,407,354,167,
0,456,823,403,351,166,
0,452,809,399,381,164,
0,448,797,396,376,163,
0,444,782,393,372,162,
0,440,771,531,368,161,
0,435,760,551,365,159,
0,432,748,545,361,159,
0,426,739,539,358,158,
0,423,728,531,355,156,
0,419,738,527,352,156,
0,415,875,520,348,155,
0,415,860,515,397,153,
0,566,845,510,391,152,
0,559,828,505,387,209,
0,551,815,499,384,219,
0,544,802,495,380,216,
0,539,790,489,376,215,
0,531,778,486,372,212,
0,526,767,480,369,211,
0,519,755,475,366,209,
0,514,744,471,363,207,
0,508,735,466,387,205,
0,504,722,462,384,204,
0,497,712,457,379,203,
0,492,703,454,376,201,
0,487,694,449,371,199,
0,483,685,445,368,198,
0,476,676,441,364,196,
0,472,668,436,361,194,
0,467,743,432,358,193,
0,463,732,429,355,192,
0,558,721,425,384,190,
0,578,711,422,380,188,
0,571,698,499,376,203,
0,564,688,492,371,200,
0,558,745,487,368,199,
0,551,734,483,364,197,
0,543,723,478,361,195,
0,537,711,472,358,193,
0,531,702,467,355,192,
0,526,692,462,388,191,
0,623,682,457,391,189,
0,614,700,452,387,188,
0,606,689,448,384,231,
0,599,679,444,380,228,
0,591,670,440,376,232,
0,583,660,435,372,231,
0,575,652,432,369,228,
0,569,644,427,365,226,
0,563,810,423,361,224,
0,556,876,419,383,222,
0,551,860,415,379,220,
0,546,842,412,375,227,
0,540,828,409,370,248,
0,535,815,406,367,247,
0,528,803,403,364,244,
0,523,791,399,359,242,
0,516,779,396,357,240,
0,511,768,391,353,238,
0,505,894,388,350,236,
0,501,908,385,384,233,
0,496,911,383,380,231,
0,491,911,380,376,231,
0,487,888,431,371,229,
0,481,871,426,368,227,
0,476,857,422,364,225,
0,472,844,417,360,224,
0,467,831,412,358,222,
0,462,818,408,354,220,
0,457,806,404,352,217,
0,454,841,401,366,216,
0,449,892,397,361,215,
0,445,871,393,359,212,
0,441,856,390,354,211,
0,437,841,404,352,209,
0,433,828,440,348,207,
0,429,891,435,345,206,
0,424,874,429,342,204,
0,420,859,423,339,203,
0,417,845,420,335,201,
0,414,831,416,372,199,
0,409,897,412,369,198,
0,406,910,408,365,196,
0,403,913,405,359,195,
0,399,912,401,358,194,
0,396,888,398,354,192,
0,392,890,394,351,191,
0,388,893,390,348,190,
0,385,876,386,344,188,
0,382,861,384,369,187,
0,379,883,380,368,185,
0,376,905,376,364,184,
0,372,913,393,359,183,
0,369,915,389,356,182,
0,367,918,385,352,180,
0,364,913,382,350,179,
0,360,887,379,347,177,
0,357,871,374,344,176,
0,355,903,371,340,175,
0,352,910,368,376,174,
0,444,915,365,371,172,
0,508,912,362,368,175,
0,503,886,359,364,201,
0,496,871,381,359,199,
0,492,856,377,356,198,
0,486,843,374,353,195,
0,480,830,370,350,194,
0,474,816,366,347,192,
0,469,804,363,344,191,
0,464,793,359,379,189,
0,512,883,356,375,188,
0,505,870,353,371,210,
0,499,903,351,367,207,
0,494,887,348,364,206,
0,487,870,345,359,204,
0,483,856,344,356,202,
0,478,841,340,353,199,
0,472,828,337,350,199,
0,467,898,335,347,196,
0,550,908,332,387,195,
0,674,913,329,383,193,
0,664,915,327,379,192,
0,655,918,326,374,191,
0,647,918,323,371,189,
0,638,904,321,368,188,
0,631,878,319,364,186,
0,623,864,316,359,185,
0,614,850,313,357,184,
0,606,837,312,354,182,
0,600,824,309,377,179,
0,593,811,307,374,179,
0,587,799,305,370,235,
0,580,785,303,366,231,
0,574,774,300,362,231,
0,568,763,299,359,228,
0,561,752,295,355,227,
0,555,742,295,352,224,
0,547,732,291,349,222,
0,542,722,290,377,220,
0,536,841,287,381,219,
0,531,903,286,377,217,
0,526,911,314,374,215,
0,519,915,312,369,213,
0,515,915,348,366,211,
0,510,896,344,362,210,
0,504,875,340,359,207,
0,499,861,337,355,207,
0,494,847,333,352,204,
0,489,833,331,390,203,
0,484,820,327,385,201,
0,480,807,324,381,199,
0,475,796,321,377,207,
0,471,782,319,373,206,
0,466,771,316,369,204,
0,462,760,313,366,203,
0,457,748,311,363,201,
0,454,738,308,359,199,
0,448,728,305,355,198,
0,444,862,303,377,196,
0,440,889,300,374,194,
0,436,871,297,370,208,
0,432,857,295,367,206,
0,428,839,293,361,204,
0,424,826,291,359,203,
0,421,900,288,355,200,
0,417,910,286,352,199,
0,414,913,284,349,198,
0,409,912,281,345,195,
0,407,891,280,382,194,
0,403,873,278,378,192,
0,399,860,275,375,251,
0,396,845,274,371,248,
0,391,828,272,366,245,
0,389,828,271,363,243,
0,386,819,268,359,240,
0,383,806,267,356,239,
0,380,793,265,353,236,
0,376,782,263,350,234,
0,373,771,262,379,231,
0,369,760,259,375,231,
0,367,750,321,371,229,
0,364,739,334,368,227,
0,361,727,330,364,225,
0,359,717,327,359,224,
0,355,707,323,356,222,
0,353,699,321,353,220,
0,350,689,318,350,218,
0,347,703,315,371,216,
0,344,816,312,376,215,
0,342,802,309,372,212,
0,339,790,307,368,211,
0,336,777,304,364,210,
0,334,763,301,360,208,
0,332,751,299,357,207,
0,329,740,295,353,205,
0,327,729,294,351,204,
0,323,719,291,348,202,
0,321,855,288,380,199,
0,495,839,286,376,199,
0,487,824,284,372,197,
0,482,811,281,368,196,
0,476,798,280,365,194,
0,472,783,277,359,193,
0,466,771,275,357,192,
0,462,760,273,354,190,
0,456,748,271,351,188,
0,451,738,268,348,188,
0,447,728,267,380,185,
0,508,881,263,376,184,
0,501,864,263,372,183,
0,496,850,260,369,182,
0,490,836,259,366,180,
0,484,819,256,361,179,
0,480,807,255,358,177,
0,474,793,253,355,176,
0,469,819,252,352,175,
0,463,879,249,348,174,
0,459,905,248,372,172,
0,455,911,246,369,171,
0,451,914,275,366,176,
0,448,911,327,361,174,
0,443,887,324,359,172,
0,438,867,321,355,171,
0,434,854,319,351,169,
0,430,839,316,348,168,
0,425,827,313,344,167,
0,420,814,310,342,166,
0,417,802,307,374,164,
0,413,790,304,371,163,
0,409,779,302,367,163,
0,406,768,299,363,161,
0,401,756,296,359,159,
0,398,743,294,355,159,
0,395,771,291,352,158,
0,391,760,289,349,156,
0,387,748,287,345,156,
0,384,737,285,376,155,
0,380,728,281,375,153,
0,377,717,280,371,152,
0,374,707,278,368,167,
0,371,698,275,364,166,
0,368,688,396,359,164,
0,364,679,390,355,163,
0,361,670,386,352,162,
0,359,662,383,350,161,
0,355,654,379,347,159,
0,352,659,376,369,158,
0,458,853,371,365,156,
0,451,838,367,361,156,
0,447,824,403,358,172,
0,441,811,399,354,171,
0,436,795,396,351,175,
0,432,783,391,347,174,
0,428,771,387,344,172,
0,423,760,384,341,171,
0,419,748,380,338,169,
0,414,883,377,376,167,
0,430,905,372,371,166,
0,424,903,369,368,190,
0,420,883,366,364,198,
0,415,867,363,359,195,
0,412,850,359,357,194,
0,408,836,356,352,192,
0,403,824,353,350,191,
0,399,811,351,346,189,
0,396,798,348,344,188,
0,391,787,344,367,185,
0,388,775,341,363,184,
0,384,764,338,359,188,
0,381,753,479,356,186,
0,377,743,472,353,184,
0,374,729,467,349,183,
0,371,719,462,345,182,
0,368,710,457,343,179,
0,364,700,452,339,179,
0,361,691,448,336,177,
0,434,840,444,376,176,
0,521,825,439,371,174,
0,515,812,435,368,174,
0,508,799,431,364,172,
0,503,787,427,361,171,
0,497,771,423,358,169,
0,492,760,419,353,167,
0,487,877,415,350,167,
0,481,861,411,347,166,
0,476,847,408,371,164,
0,547,833,403,374,163,
0,539,819,399,369,161,
0,532,807,396,366,181,
0,526,795,393,363,179,
0,519,783,451,359,177,
0,514,768,445,355,176,
0,508,757,440,352,175,
0,504,746,435,348,173,
0,497,872,432,345,172,
0,492,856,428,380,170,
0,486,841,422,376,168,
0,481,828,418,372,167,
0,476,815,414,368,181,
0,472,802,410,365,179,
0,467,790,407,361,178,
0,462,775,403,358,176,
0,457,764,399,354,175,
0,453,752,396,351,173,
0,448,742,391,348,172,
0,444,732,389,384,171,
0,440,823,385,380,169,
0,435,809,382,376,172,
0,431,796,379,372,171,
0,427,783,376,368,169,
0,423,771,372,365,167,
0,419,758,369,361,167,
0,415,747,366,358,166,
0,412,736,363,355,164,
0,408,726,359,352,163,
0,404,723,358,391,162,
0,540,713,353,387,160,
0,532,704,351,384,179,
0,526,694,396,379,178,
0,519,685,391,376,176,
0,515,676,387,371,175,
0,508,665,384,368,174,
0,504,657,380,364,172,
0,498,649,376,360,171,
0,492,789,374,358,169,
0,502,775,370,384,167,
0,527,763,366,380,167,
0,520,752,363,376,184,
0,515,740,359,372,183,
0,509,729,356,368,181,
0,504,719,353,365,179,
0,497,707,351,361,178,
0,492,885,348,358,176,
0,487,898,344,355,175,
0,482,879,342,379,174,
0,478,900,339,379,172,
0,472,909,335,375,171,
0,467,912,334,371,199,
0,462,902,331,368,197,
0,457,879,327,364,195,
0,452,864,326,359,193,
0,448,847,323,356,192,
0,444,833,321,353,191,
0,440,820,319,350,188,
0,435,898,316,379,187,
0,432,908,313,375,185,
0,427,913,312,371,184,
0,423,915,309,368,191,
0,419,912,307,364,188,
0,415,888,304,359,187,
0,411,871,302,357,185,
0,408,854,300,353,184,
0,403,840,297,350,183,
0,399,827,295,347,181,
0,396,815,294,358,179,
0,518,888,291,353,178,
0,513,871,289,351,178,
0,507,856,287,347,176,
0,501,841,284,344,176,
0,496,828,283,341,174,
0,490,815,280,338,172,
0,484,799,279,335,171,
0,480,787,277,332,169,
0,475,775,275,328,167,
0,470,766,273,361,167,
0,563,755,271,358,166,
0,553,743,269,355,190,
0,547,734,268,351,188,
0,540,724,265,348,185,
0,535,715,263,344,184,
0,528,781,262,342,183,
0,523,840,259,337,181,
0,517,827,258,335,179,
0,511,813,255,332,178,
0,506,800,255,372,176,
0,500,788,253,368,175,
0,494,776,263,365,192,
0,489,764,284,361,191,
0,484,753,281,358,189,
0,480,743,280,355,188,
0,475,732,276,352,186,
0,470,854,275,348,184,
0,465,839,272,344,183,
0,460,825,270,369,182,
0,455,812,268,377,180,
0,451,799,265,374,179,
0,447,787,263,371,177,
0,442,775,313,367,176,
0,439,764,310,364,174,
0,434,752,307,359,172,
0,430,742,304,356,171,
0,426,728,302,352,170,
0,423,719,299,350,168,
0,419,879,295,379,167,
0,558,904,294,375,166,
0,548,909,291,371,164,
0,542,899,287,367,171,
0,536,877,286,364,169,
0,529,863,284,359,175,
0,524,848,281,356,173,
0,518,835,279,353,172,
0,512,819,276,350,170,
0,507,807,275,347,169,
0,501,795,272,383,167,
0,496,782,270,378,166,
0,489,771,268,375,165,
0,484,760,265,371,204,
0,480,749,263,368,201,
0,475,739,262,364,199,
0,470,856,259,359,199,
0,465,841,257,356,196,
0,460,824,255,353,195,
0,455,811,253,350,193,
0,451,798,251,377,192,
0,448,894,249,374,190,
0,442,907,248,371,189,
0,438,912,327,367,187,
0,433,913,323,363,185,
0,430,897,319,359,184,
0,426,876,317,356,183,
0,422,862,314,353,181,
0,418,844,312,349,179,
0,414,831,308,346,178,
0,411,894,306,368,177,
0,408,877,304,364,176,
0,403,862,300,360,174,
0,399,847,297,358,172,
0,396,833,295,354,172,
0,391,821,293,351,169,
0,389,808,291,348,168,
0,385,856,287,344,167,
0,382,836,286,340,166,
0,379,823,284,368,164,
0,376,809,281,377,163,
0,372,797,279,374,163,
0,369,785,276,369,176,
0,366,774,274,366,174,
0,363,763,300,363,172,
0,359,752,297,359,171,
0,358,742,295,355,169,
0,355,729,291,352,167,
0,352,719,289,348,167,
0,349,710,287,376,166,
0,347,700,284,372,164,
0,344,691,282,368,163,
0,340,683,337,366,172,
0,337,675,412,361,169,
0,335,666,408,359,167,
0,332,657,403,355,167,
0,330,649,399,352,166,
0,327,639,396,348,164,
0,325,632,391,344,163,
0,323,652,388,380,162,
0,388,798,384,376,160,
0,384,783,381,371,159,
0,379,772,377,368,164,
0,375,760,374,364,163,
0,371,749,369,361,161,
0,368,738,367,358,159,
0,364,728,364,355,159,
0,360,715,359,352,158,
0,358,705,358,348,156,
0,354,696,355,382,156,
0,357,686,352,377,154,
0,353,676,348,374,162,
0,350,668,345,370,167,
0,346,659,342,367,164,
0,344,651,339,363,163,
0,340,643,336,359,162,
0,337,635,334,356,160,
0,334,625,331,353,159,
0,332,617,327,350,158,
0,368,664,326,381,157,
0,444,700,323,377,156,
0,440,690,320,374,190,
0,433,679,318,369,187,
0,428,670,315,366,184,
0,423,662,312,363,184,
0,419,652,310,359,182,
0,415,699,307,355,180,
0,412,685,305,352,179,
0,408,675,303,374,177,
0,492,878,300,371,176,
0,547,896,298,368,174,
0,541,877,295,364,173,
0,532,862,294,360,172,
0,527,847,291,358,169,
0,520,834,289,354,168,
0,515,820,287,351,167,
0,509,807,285,348,166,
0,504,792,283,344,164,
0,499,781,280,378,163,
0,494,900,279,374,162,
0,487,909,276,369,161,
0,483,911,275,366,223,
0,477,897,272,363,220,
0,472,876,271,359,217,
0,467,862,268,355,216,
0,463,847,267,352,214,
0,459,834,263,349,212,
0,454,899,263,346,211,
0,449,901,261,364,208,
0,446,881,259,359,207,
0,441,865,257,356,205,
0,437,851,255,352,204,
0,432,838,253,350,201,
0,428,824,251,347,199,
0,423,812,249,343,198,
0,419,799,248,339,196,
0,415,787,246,337,195,
0,412,899,244,334,193,
0,409,910,243,366,192,
0,457,913,241,363,191,
0,452,915,240,359,189,
0,448,908,238,355,188,
0,441,881,236,352,186,
0,436,867,235,348,184,
0,432,853,233,345,183,
0,428,839,231,343,182,
0,423,826,230,339,180,
0,419,810,228,335,179,
0,415,799,227,367,177,
0,434,787,225,363,176,
0,430,775,224,359,184,
0,425,764,223,356,183,
0,419,753,222,352,180,
0,415,743,220,349,179,
0,411,733,219,346,177,
0,408,723,217,343,176,
0,403,713,216,339,175,
0,399,854,215,362,173,
0,497,903,214,368,172,
0,516,911,211,364,171,
0,511,914,235,359,177,
0,505,909,411,357,176,
0,498,884,415,353,190,
0,492,868,411,350,188,
0,487,854,407,347,187,
0,482,888,403,344,185,
0,477,874,399,341,184,
0,472,856,395,374,182,
0,515,841,391,369,181,
0,556,828,387,366,179,
0,550,816,391,363,178,
0,543,803,387,359,176,
0,535,792,384,355,175,
0,529,780,380,352,173,
0,523,768,376,349,172,
0,518,782,373,345,171,
0,512,901,369,343,169,
0,507,911,367,376,167,
0,501,914,363,372,167,
0,496,911,359,369,166,
0,491,888,357,366,170,
0,486,871,354,361,167,
0,480,857,351,359,167,
0,475,844,348,355,166,
0,470,830,344,352,164,
0,465,817,342,349,163,
0,460,804,339,345,161,
0,455,896,336,363,161,
0,451,908,334,359,159,
0,448,911,331,355,158,
0,444,911,384,352,157,
0,440,888,379,348,156,
0,434,871,374,345,155,
0,430,857,371,342,153,
0,426,844,368,339,152,
0,422,831,364,336,152,
0,418,818,360,334,151,
0,415,803,358,378,150,
0,415,791,355,375,148,
0,411,779,352,371,201,
0,408,768,351,367,199,
0,403,757,348,364,197,
0,399,747,344,359,195,
0,396,736,341,357,193,
0,391,839,338,353,192,
0,388,825,335,350,190,
0,385,812,332,347,188,
0,456,796,329,363,187,
0,469,783,327,359,185,
0,463,773,348,355,199,
0,459,760,455,352,199,
0,454,750,451,349,196,
0,448,739,444,345,195,
0,443,728,440,343,193,
0,439,719,435,339,192,
0,434,860,432,336,190,
0,430,902,428,355,188,
0,543,883,423,374,187,
0,536,867,419,369,185,
0,528,854,415,366,184,
0,523,839,412,363,184,
0,515,826,408,359,182,
0,510,813,403,355,179,
0,504,800,399,352,179,
0,499,788,396,349,177,
0,494,777,393,346,176,
0,487,766,390,384,175,
0,616,752,386,379,173,
0,607,742,384,376,172,
0,600,732,380,371,172,
0,591,721,376,368,171,
0,583,711,374,364,169,
0,575,702,369,361,167,
0,569,694,367,358,166,
0,563,684,364,354,164,
0,556,675,359,352,163,
0,551,766,358,380,163,
0,543,902,355,375,161,
0,538,892,352,371,159,
0,532,874,349,367,159,
0,527,859,346,364,177,
0,519,845,344,359,183,
0,515,831,340,356,181,
0,509,818,337,353,179,
0,504,806,335,350,178,
0,499,793,332,347,176,
0,494,885,329,380,175,
0,489,908,327,374,174,
0,484,911,324,371,198,
0,480,905,322,367,195,
0,475,881,319,364,193,
0,469,866,323,359,192,
0,464,852,319,356,190,
0,460,839,316,353,188,
0,455,825,314,350,187,
0,451,812,312,348,185,
0,448,899,310,382,184,
0,443,910,307,377,182,
0,440,915,394,374,198,
0,435,916,388,369,195,
0,432,918,384,366,193,
0,427,912,380,363,192,
0,423,885,376,359,190,
0,419,870,372,356,188,
0,415,856,369,352,187,
0,412,842,366,364,185,
0,529,903,363,376,184,
0,527,903,359,371,182,
0,521,882,356,368,216,
0,515,867,353,364,214,
0,510,852,350,360,211,
0,503,839,347,358,209,
0,497,825,344,354,207,
0,492,813,340,351,206,
0,487,801,337,348,204,
0,481,819,335,382,203,
0,655,905,332,377,201,
0,664,911,329,372,199,
0,655,915,327,369,204,
0,647,913,323,366,202,
0,639,892,321,362,199,
0,628,874,319,359,199,
0,621,860,316,355,197,
0,614,846,313,352,195,
0,606,831,311,349,193,
0,600,820,308,388,192,
0,592,804,305,384,191,
0,585,792,304,380,190,
0,579,781,422,376,188,
0,572,769,415,372,186,
0,567,759,412,368,184,
0,559,748,408,365,184,
0,552,738,403,361,182,
0,547,728,399,359,180,
0,542,719,396,355,179,
0,536,710,391,386,177,
0,530,697,387,382,176,
0,524,688,384,377,211,
0,519,679,381,374,209,
0,514,671,377,371,207,
0,509,663,375,367,206,
0,503,655,370,364,204,
0,498,743,367,359,201,
0,493,731,364,356,199,
0,487,719,361,353,199,
0,483,710,358,381,196,
0,480,824,355,377,195,
0,475,859,352,372,236,
0,470,844,348,368,233,
0,465,830,345,366,231,
0,462,816,344,361,230,
0,455,803,339,359,227,
0,451,792,337,355,225,
0,448,795,335,352,223,
0,444,782,332,361,221,
0,496,886,329,376,220,
0,568,891,326,372,217,
0,560,873,351,368,216,
0,553,859,347,364,215,
0,547,844,344,360,213,
0,541,831,340,357,211,
0,534,818,337,354,209,
0,527,805,334,351,207,
0,521,793,331,348,206,
0,515,901,327,387,204,
0,624,909,324,383,203,
0,615,914,322,379,201,
0,607,917,319,374,199,
0,599,918,317,371,199,
0,591,910,315,367,196,
0,584,882,312,364,195,
0,575,867,309,359,193,
0,569,854,307,356,192,
0,563,840,304,353,190,
0,557,828,302,385,189,
0,551,814,300,381,188,
0,544,799,297,376,186,
0,539,787,295,372,184,
0,532,775,294,369,184,
0,527,765,291,365,182,
0,521,754,289,361,180,
0,515,743,287,359,179,
0,510,734,284,355,177,
0,504,723,283,352,176,
0,499,715,280,388,175,
0,659,704,279,384,174,
0,648,694,276,380,223,
0,639,684,275,376,220,
0,632,675,272,372,219,
0,624,668,271,368,216,
0,617,659,269,365,215,
0,608,651,267,361,212,
0,600,643,264,359,211,
0,593,636,263,355,209,
0,587,839,262,387,207,
0,580,825,259,383,206,
0,574,808,258,377,204,
0,568,796,255,374,202,
0,561,783,254,371,200,
0,555,771,252,367,199,
0,549,760,251,364,198,
0,542,749,248,359,195,
0,536,738,247,357,194,
0,531,728,246,366,192,
0,525,718,243,377,191,
0,519,707,242,374,190,
0,514,696,240,369,188,
0,509,687,239,366,187,
0,504,678,286,363,185,
0,499,668,282,359,184,
0,494,660,280,355,182,
0,487,652,276,352,180,
0,483,643,274,349,179,
0,479,636,271,389,178,
0,474,628,270,384,176,
0,470,621,267,380,175,
0,465,612,265,376,177,
0,461,605,319,372,176,
0,456,599,316,369,174,
0,452,591,313,366,172,
0,448,585,310,361,172,
0,444,579,307,359,169,
0,440,572,304,355,168,
0,435,567,302,380,167,
0,432,743,299,376,166,
0,428,730,295,371,185,
0,423,716,294,367,198,
0,420,706,291,364,196,
0,417,696,289,359,195,
0,413,686,286,357,193,
0,409,676,284,353,192,
0,405,668,281,351,189,
0,401,659,279,348,188,
0,399,651,276,384,187,
0,420,780,275,380,184,
0,415,798,272,376,246,
0,411,782,375,371,243,
0,407,769,371,368,240,
0,403,758,367,364,238,
0,399,747,363,360,236,
0,395,736,359,358,233,
0,391,725,355,354,231,
0,388,768,352,351,230,
0,460,851,350,387,227,
0,543,836,346,384,225,
0,536,823,344,380,225,
0,529,806,340,376,224,
0,524,793,337,371,222,
0,518,782,334,368,220,
0,512,770,332,364,218,
0,507,896,328,361,216,
0,499,907,326,358,214,
0,495,899,323,365,212,
0,489,878,319,386,211,
0,495,864,317,382,209,
0,489,849,322,379,210,
0,484,831,344,374,208,
0,480,819,342,371,207,
0,475,807,338,367,205,
0,470,795,335,363,204,
0,463,876,332,359,201,
0,459,905,327,356,199,
0,455,911,325,391,199,
0,469,915,322,386,196,
0,463,913,319,383,195,
0,459,891,316,379,205,
0,454,870,314,374,203,
0,449,856,312,371,201,
0,444,842,310,367,199,
0,440,829,307,364,198,
0,435,816,304,359,196,
0,431,803,302,357,194,
0,428,899,300,377,193,
0,566,908,296,372,192,
0,558,913,295,369,204,
0,551,915,292,366,215,
0,544,911,290,361,212,
0,539,885,302,358,211,
0,532,870,300,355,209,
0,526,856,296,352,207,
0,519,842,294,348,206,
0,513,829,291,345,204,
0,508,816,289,380,202,
0,503,804,286,376,199,
0,497,792,284,373,219,
0,492,780,295,369,216,
0,487,768,358,365,215,
0,483,756,384,361,212,
0,478,745,380,358,211,
0,472,735,376,355,209,
0,467,875,372,352,207,
0,462,873,368,348,206,
0,458,858,364,379,204,
0,453,844,361,376,201,
0,449,830,358,371,199,
0,444,816,355,368,199,
0,440,801,391,364,197,
0,436,788,419,359,195,
0,432,776,415,356,194,
0,428,766,411,353,193,
0,423,755,407,350,191,
0,419,743,402,359,189,
0,453,791,398,374,188,
0,467,777,395,369,187,
0,462,766,391,366,190,
0,457,751,387,363,188,
0,452,740,384,358,187,
0,448,867,380,355,185,
0,443,905,376,352,184,
0,438,910,374,348,183,
0,432,900,370,345,181,
0,428,892,367,376,179,
0,426,907,364,372,178,
0,422,911,370,368,177,
0,417,915,388,365,176,
0,414,919,384,361,174,
0,410,919,380,358,174,
0,407,911,376,354,172,
0,403,883,374,351,171,
0,399,867,370,348,169,
0,395,854,367,344,168,
0,391,841,363,385,167,
0,388,827,359,381,166,
0,385,815,356,377,182,
0,382,803,353,374,204,
0,379,788,351,370,203,
0,376,776,348,366,200,
0,372,766,344,363,199,
0,369,755,342,359,198,
0,367,867,339,355,195,
0,419,905,337,352,194,
0,462,911,333,387,192,
0,492,915,331,383,191,
0,486,917,327,379,214,
0,480,918,325,376,211,
0,475,907,323,371,209,
0,470,880,319,367,207,
0,464,865,318,364,205,
0,460,851,315,359,204,
0,455,838,312,357,202,
0,449,901,310,353,199,
0,595,910,307,384,198,
0,617,913,305,380,196,
0,610,911,303,376,224,
0,602,888,300,372,222,
0,595,867,298,369,220,
0,588,854,295,364,219,
0,580,839,294,360,216,
0,574,827,291,358,215,
0,568,814,289,354,212,
0,560,802,287,363,211,
0,553,790,285,383,209,
0,547,779,283,379,207,
0,541,768,280,376,237,
0,536,756,279,371,235,
0,529,743,276,368,232,
0,524,734,275,364,231,
0,519,723,272,359,229,
0,513,713,271,357,227,
0,508,704,269,353,225,
0,502,893,267,384,223,
0,496,907,264,380,221,
0,492,911,263,376,219,
0,487,913,270,372,220,
0,482,903,268,369,219,
0,478,875,265,365,216,
0,472,860,263,361,215,
0,468,899,261,358,213,
0,463,908,259,354,211,
0,460,913,257,352,209,
0,454,914,255,371,207,
0,450,899,253,367,206,
0,446,877,252,363,206,
0,441,862,249,359,206,
0,438,847,248,356,204,
0,433,831,247,352,203,
0,430,819,244,349,201,
0,425,806,243,345,199,
0,422,794,241,343,198,
0,418,825,240,339,196,
0,451,903,238,367,195,
0,492,910,236,364,193,
0,487,913,235,359,200,
0,481,908,232,356,199,
0,476,883,231,353,197,
0,471,864,230,349,195,
0,465,850,228,345,193,
0,460,901,227,343,192,
0,455,910,225,339,191,
0,451,914,224,336,189,
0,448,916,222,370,188,
0,444,915,220,366,185,
0,440,899,220,363,184,
0,435,876,217,359,184,
0,432,862,216,355,182,
0,427,844,215,352,180,
0,423,831,214,348,179,
0,419,819,212,345,178,
0,415,806,211,342,176,
0,411,795,209,349,176,
0,407,901,207,365,174,
0,403,909,207,361,172,
0,399,913,206,359,187,
0,396,908,204,355,184,
0,393,883,203,352,184,
0,390,864,201,347,182,
0,387,851,199,344,180,
0,384,837,199,341,179,
0,380,824,198,338,177,
0,376,811,196,355,176,
0,523,799,195,352,174,
0,515,787,224,348,173,
0,510,775,222,344,185,
0,504,764,220,342,184,
0,498,754,218,338,182,
0,492,741,216,335,180,
0,487,731,215,332,179,
0,482,721,212,329,177,
0,477,711,211,327,176,
0,472,703,209,358,174,
0,466,693,207,353,172,
0,461,684,206,350,172,
0,456,675,204,347,170,
0,452,667,203,344,172,
0,448,659,200,340,171,
0,443,649,199,336,169,
0,439,641,198,334,167,
0,435,633,196,331,167,
0,431,626,195,327,166,
0,427,620,193,361,164,
0,422,612,192,358,163,
0,417,605,191,354,179,
0,414,598,190,351,177,
0,409,591,188,348,176,
0,406,585,188,344,174,
0,402,576,186,340,172,
0,399,571,185,337,172,
0,395,564,184,335,169,
0,391,559,183,332,168,
0,388,553,182,364,167,
0,433,547,180,359,166,
0,428,541,207,357,167,
0,423,536,240,353,166,
0,419,530,238,350,166,
0,415,525,235,347,164,
0,412,519,233,343,163,
0,408,512,231,339,162,
0,403,508,228,335,161,
0,399,503,227,344,159,
0,396,497,225,366,158,
0,416,493,223,361,157,
0,412,488,221,358,159,
0,408,483,220,355,158,
0,403,480,267,352,158,
0,399,475,263,348,157,
0,396,470,261,344,156,
0,391,465,259,342,155,
0,388,460,255,338,153,
0,385,456,254,359,152,
0,381,452,252,354,152,
0,377,448,249,351,150,
0,375,444,248,348,177,
0,371,440,246,344,175,
0,368,436,243,341,174,
0,365,432,242,338,172,
0,362,428,240,334,171,
0,359,423,238,332,169,
0,356,420,236,327,167,
0,354,417,235,352,167,
0,452,492,231,348,166,
0,447,487,231,344,164,
0,441,483,300,341,176,
0,436,477,297,337,174,
0,432,472,294,335,172,
0,428,466,291,332,171,
0,423,460,289,327,169,
0,419,455,287,325,167,
0,415,450,284,323,167,
0,411,547,282,359,166,
0,463,601,280,355,164,
0,459,593,276,352,192,
0,454,585,274,349,190,
0,448,579,271,345,188,
0,444,572,270,343,187,
0,440,564,268,339,185,
0,435,556,265,335,184,
0,430,549,263,332,182,
0,426,543,261,330,180,
0,425,722,259,363,179,
0,595,750,257,359,177,
0,588,738,276,355,222,
0,580,728,275,352,220,
0,574,716,273,349,217,
0,567,707,271,345,216,
0,560,876,268,343,213,
0,553,856,265,339,211,
0,547,842,263,335,209,
0,541,828,262,344,208,
0,536,816,259,366,206,
0,527,803,257,362,204,
0,523,791,255,359,222,
0,517,779,252,355,220,
0,512,768,251,352,217,
0,507,756,248,348,216,
0,501,743,247,345,214,
0,496,732,244,341,212,
0,491,723,243,338,210,
0,486,712,241,353,208,
0,619,704,239,350,207,
0,664,694,238,347,205,
0,655,685,236,344,203,
0,647,676,233,339,201,
0,638,668,231,337,199,
0,631,659,230,334,199,
0,623,649,228,331,196,
0,615,641,227,327,195,
0,608,664,225,324,194,
0,600,710,224,366,192,
0,593,699,222,361,191,
0,585,688,220,358,189,
0,579,679,218,355,190,
0,572,670,216,351,188,
0,566,660,215,348,187,
0,560,652,214,344,185,
0,553,641,211,342,184,
0,547,797,210,337,182,
0,542,783,209,335,181,
0,536,859,207,374,179,
0,632,843,206,370,178,
0,622,829,204,367,181,
0,614,816,203,363,183,
0,607,803,201,359,181,
0,599,790,199,356,179,
0,591,778,199,353,178,
0,584,764,198,350,177,
0,578,753,196,345,176,
0,572,743,195,343,174,
0,566,837,193,377,172,
0,559,884,192,374,172,
0,551,868,190,369,171,
0,545,854,271,366,168,
0,539,839,284,363,167,
0,534,827,316,359,166,
0,527,814,313,356,165,
0,522,798,310,352,163,
0,517,786,307,348,163,
0,512,780,305,359,161,
0,513,838,302,374,159,
0,511,824,300,370,159,
0,504,811,295,367,177,
0,499,798,294,363,176,
0,494,786,291,359,174,
0,489,774,289,356,173,
0,484,852,287,353,172,
0,480,833,284,350,169,
0,476,820,281,346,168,
0,472,807,280,375,167,
0,467,794,278,370,166,
0,462,782,275,367,164,
0,457,771,295,363,167,
0,452,760,292,359,165,
0,449,748,289,356,183,
0,444,738,287,353,180,
0,440,863,284,350,179,
0,436,844,281,347,177,
0,433,830,280,343,176,
0,429,817,277,367,175,
0,425,804,275,363,173,
0,422,792,272,359,172,
0,417,780,276,355,172,
0,413,768,273,352,170,
0,409,758,271,349,168,
0,406,747,269,345,167,
0,403,736,267,343,166,
0,399,723,265,339,164,
0,396,716,263,335,163,
0,393,707,261,372,162,
0,390,780,259,368,161,
0,386,814,257,364,159,
0,383,801,255,361,159,
0,380,787,274,358,158,
0,376,775,326,354,156,
0,373,764,323,351,155,
0,370,753,319,348,153,
0,367,739,316,344,153,
0,364,729,313,340,152,
0,361,719,311,375,151,
0,448,708,307,371,150,
0,444,700,305,367,158,
0,437,690,302,364,156,
0,432,681,300,359,155,
0,428,671,297,356,153,
0,423,664,295,353,152,
0,419,655,292,350,151,
0,415,646,290,345,150,
0,411,638,287,348,148,
0,408,631,285,361,147,
0,403,623,283,358,147,
0,399,615,280,355,190,
0,395,608,292,352,188,
0,391,601,406,348,185,
0,387,595,399,344,184,
0,384,588,395,342,183,
0,380,581,391,339,181,
0,377,573,387,335,179,
0,374,569,384,373,178,
0,429,683,380,368,177,
0,433,671,376,364,176,
0,428,663,374,361,174,
0,423,654,369,358,172,
0,419,645,366,355,171,
0,414,750,363,352,169,
0,409,815,359,348,167,
0,406,801,356,344,167,
0,401,785,353,341,166,
0,398,774,351,359,164,
0,394,762,348,356,163,
0,391,751,344,353,161,
0,387,740,342,350,193,
0,382,729,338,347,192,
0,379,719,357,344,190,
0,376,710,353,340,188,
0,372,700,350,337,187,
0,369,691,347,334,185,
0,366,679,344,331,184,
0,363,671,341,365,182,
0,418,662,337,361,180,
0,414,653,335,358,179,
0,409,645,332,353,177,
0,403,638,338,351,176,
0,399,630,385,348,174,
0,396,622,381,344,173,
0,391,615,377,342,172,
0,387,607,374,338,170,
0,384,598,371,335,169,
0,380,591,367,364,167,
0,377,584,364,359,167,
0,374,577,359,357,177,
0,371,572,357,353,175,
0,367,565,353,350,173,
0,364,559,350,347,172,
0,359,553,348,344,171,
0,357,547,344,340,169,
0,354,541,342,337,167,
0,352,535,339,343,167,
0,349,529,335,351,165,
0,347,524,332,348,163,
0,344,519,330,344,183,
0,342,513,327,341,181,
0,337,508,324,338,180,
0,335,504,321,335,179,
0,332,498,319,332,177,
0,330,493,316,329,176,
0,327,488,313,327,174,
0,326,483,312,359,173,
0,340,478,310,355,172,
0,348,473,307,352,170,
0,344,469,304,350,195,
0,340,464,302,345,193,
0,337,460,300,343,191,
0,334,455,297,339,190,
0,331,451,295,336,188,
0,327,526,292,334,187,
0,325,646,290,331,184,
0,323,635,288,364,184,
0,338,625,286,360,182,
0,335,617,284,358,180,
0,332,609,282,353,183,
0,327,601,280,351,181,
0,324,593,278,347,179,
0,321,586,275,344,177,
0,319,579,273,340,176,
0,316,651,271,338,175,
0,313,708,270,335,174,
0,312,696,268,371,172,
0,474,686,265,367,171,
0,467,676,263,364,174,
0,462,667,262,359,196,
0,455,658,260,356,195,
0,451,649,258,353,193,
0,446,641,255,350,191,
0,441,632,254,347,190,
0,436,624,252,344,188,
0,432,616,251,340,186,
0,428,833,249,368,184,
0,560,847,248,364,183,
0,552,831,246,359,182,
0,545,819,243,356,180,
0,537,807,242,353,179,
0,531,793,241,350,177,
0,526,782,240,347,176,
0,519,770,238,344,174,
0,514,759,237,340,173,
0,508,748,235,337,172,
0,504,735,233,374,170,
0,498,724,231,371,169,
0,493,715,231,367,167,
0,487,705,260,364,167,
0,481,696,297,359,165,
0,477,687,294,356,163,
0,472,678,291,353,162,
0,467,708,287,350,161,
0,463,697,286,347,159,
0,459,685,283,348,159,
0,455,675,280,366,158,
0,450,666,278,363,156,
0,446,659,316,359,155,
0,441,650,399,355,154,
0,436,642,396,352,156,
0,432,634,390,349,153,
0,428,627,387,345,152,
0,423,619,383,343,152,
0,420,611,379,339,150,
0,416,603,376,369,149,
0,413,595,372,364,148,
0,409,764,369,359,147,
0,406,798,366,357,172,
0,402,784,363,353,171,
0,398,772,359,350,169,
0,394,760,355,348,167,
0,391,749,352,344,166,
0,387,738,349,340,165,
0,384,854,346,337,163,
0,381,841,344,353,162,
0,507,899,340,349,161,
0,500,883,338,345,160,
0,495,867,335,343,172,
0,488,853,332,339,170,
0,482,839,329,335,168,
0,477,825,326,333,167,
0,472,813,323,330,166,
0,467,800,321,327,164,
0,462,788,318,324,163,
0,457,774,316,374,161,
0,463,763,313,368,160,
0,457,752,311,365,201,
0,454,742,308,361,199,
0,448,732,306,358,196,
0,443,721,303,355,195,
0,439,711,301,352,193,
0,434,702,299,348,192,
0,431,693,295,344,190,
0,427,798,294,342,188,
0,496,904,292,359,187,
0,575,911,289,355,185,
0,569,911,287,352,184,
0,562,896,286,348,182,
0,556,876,284,344,182,
0,547,862,280,342,180,
0,541,847,279,339,178,
0,536,834,277,335,176,
0,529,821,275,332,175,
0,524,809,272,331,174,
0,518,793,271,355,172,
0,512,782,269,351,171,
0,507,771,337,347,170,
0,502,760,333,344,168,
0,496,749,329,341,167,
0,491,739,326,338,167,
0,486,729,323,335,165,
0,480,719,319,332,163,
0,476,710,317,329,163,
0,472,700,315,365,161,
0,569,847,312,361,160,
0,564,831,309,356,159,
0,558,817,307,353,181,
0,551,803,304,350,179,
0,544,791,305,347,178,
0,536,779,302,344,176,
0,531,896,299,340,175,
0,524,903,296,337,173,
0,519,886,294,334,172,
0,513,870,291,370,170,
0,508,851,289,365,169,
0,503,838,287,361,172,
0,497,824,327,358,204,
0,492,812,323,355,201,
0,487,799,384,352,199,
0,481,787,379,348,198,
0,476,775,375,345,196,
0,472,765,371,342,194,
0,467,761,368,339,193,
0,515,896,365,361,192,
0,613,876,361,356,190,
0,604,861,358,353,199,
0,597,847,355,350,199,
0,590,832,352,347,196,
0,583,819,348,344,195,
0,574,807,345,340,193,
0,568,795,342,337,192,
0,561,783,339,334,190,
0,555,771,336,331,188,
0,580,896,334,374,187,
0,675,909,331,368,185,
0,665,911,327,365,209,
0,655,899,326,361,207,
0,647,877,323,358,215,
0,639,863,319,355,213,
0,630,848,317,352,211,
0,622,835,315,348,209,
0,615,822,312,345,207,
0,608,809,310,344,205,
0,600,798,307,371,204,
0,593,783,304,367,201,
0,587,771,302,363,199,
0,580,760,300,359,199,
0,574,750,297,356,197,
0,568,739,295,353,195,
0,560,729,292,350,193,
0,554,719,290,347,192,
0,548,884,287,344,190,
0,542,905,286,380,188,
0,547,910,284,376,187,
0,540,890,281,371,185,
0,534,873,280,367,185,
0,528,859,278,364,184,
0,523,845,275,359,183,
0,518,831,273,356,181,
0,511,819,271,354,179,
0,507,807,269,351,178,
0,502,795,268,348,177,
0,497,783,265,382,175,
0,492,771,263,377,174,
0,487,758,262,373,174,
0,483,747,332,369,176,
0,478,736,327,366,176,
0,473,727,325,363,174,
0,469,717,321,359,172,
0,463,707,318,355,171,
0,460,698,316,352,169,
0,455,689,312,350,167,
0,451,680,310,379,167,
0,447,671,307,375,166,
0,443,662,304,371,179,
0,440,654,388,367,177,
0,435,646,384,363,177,
0,431,638,380,359,175,
0,428,631,376,356,174,
0,423,623,371,353,172,
0,419,615,368,350,171,
0,415,854,365,347,169,
0,422,861,361,390,167,
0,464,846,359,385,167,
0,460,828,355,381,174,
0,455,815,352,377,172,
0,449,803,349,374,171,
0,444,791,346,370,169,
0,440,779,344,367,167,
0,434,768,339,364,167,
0,430,756,336,359,165,
0,425,745,334,357,163,
0,422,735,331,376,163,
0,417,724,327,371,161,
0,414,711,407,368,161,
0,409,702,423,364,159,
0,406,693,419,359,159,
0,403,684,415,356,158,
0,398,675,412,353,156,
0,395,667,407,351,155,
0,391,658,402,348,153,
0,388,649,399,377,153,
0,423,642,395,374,152,
0,419,634,391,369,151,
0,415,625,388,365,151,
0,409,617,384,361,150,
0,406,610,452,359,148,
0,401,603,446,355,147,
0,396,596,440,352,147,
0,392,590,435,349,145,
0,390,689,431,345,143,
0,386,868,427,376,143,
0,383,852,423,372,142,
0,379,838,419,369,150,
0,376,820,415,364,167,
0,373,807,411,361,167,
0,370,795,407,358,165,
0,367,783,403,355,163,
0,364,771,399,351,162,
0,360,760,395,348,160,
0,358,749,391,344,159,
0,355,824,388,376,158,
0,455,900,385,371,156,
0,450,888,382,368,177,
0,445,868,378,363,176,
0,440,854,375,359,174,
0,435,839,371,355,172,
0,431,827,368,352,171,
0,425,814,366,350,169,
0,421,801,361,347,167,
0,417,789,359,344,167,
0,431,778,356,370,165,
0,494,767,353,367,163,
0,487,755,351,363,165,
0,482,742,348,359,163,
0,476,732,344,355,162,
0,472,721,342,352,161,
0,467,711,339,348,159,
0,460,703,336,345,158,
0,455,694,334,343,157,
0,451,684,331,343,156,
0,504,886,327,372,154,
0,499,870,326,368,153,
0,494,851,323,366,158,
0,487,838,320,360,156,
0,483,824,318,358,156,
0,478,811,316,354,153,
0,472,799,313,351,152,
0,466,787,311,348,152,
0,461,775,308,344,150,
0,456,831,306,381,149,
0,513,903,304,377,147,
0,507,910,301,373,147,
0,500,907,299,369,167,
0,495,883,297,366,166,
0,489,868,345,361,164,
0,484,854,342,359,163,
0,480,840,339,355,161,
0,472,827,335,352,159,
0,468,902,332,348,158,
0,463,910,329,388,157,
0,459,911,326,384,156,
0,454,899,323,380,155,
0,449,874,319,376,161,
0,445,859,318,372,161,
0,440,846,315,368,170,
0,436,831,312,365,169,
0,432,883,310,361,167,
0,427,905,307,358,166,
0,423,911,304,355,164,
0,419,915,302,375,163,
0,415,915,299,371,161,
0,411,903,296,367,179,
0,408,875,295,364,177,
0,403,860,292,359,176,
0,399,847,290,355,174,
0,396,833,287,352,172,
0,393,820,286,350,172,
0,389,807,284,347,170,
0,385,796,281,344,167,
0,382,784,280,377,167,
0,379,773,277,374,166,
0,376,784,275,371,206,
0,372,769,352,367,204,
0,369,758,348,362,201,
0,366,748,344,359,199,
0,363,737,342,355,199,
0,359,728,338,352,196,
0,356,718,334,349,195,
0,353,707,332,345,193,
0,408,699,328,364,192,
0,408,689,326,359,190,
0,403,681,323,357,200,
0,399,670,319,353,199,
0,395,662,318,350,198,
0,391,654,349,347,195,
0,387,646,345,344,194,
0,384,638,342,340,192,
0,379,631,339,337,191,
0,376,624,335,372,189,
0,455,615,332,369,187,
0,448,609,329,366,185,
0,444,602,327,361,227,
0,439,593,323,359,224,
0,434,587,320,354,222,
0,429,580,318,351,220,
0,424,574,316,348,219,
0,420,783,312,344,216,
0,415,831,310,342,215,
0,412,819,307,380,212,
0,499,806,304,375,211,
0,492,792,302,371,209,
0,487,781,300,368,207,
0,482,766,297,363,206,
0,477,755,295,359,204,
0,472,743,292,356,203,
0,467,733,290,353,201,
0,462,723,287,350,199,
0,455,713,285,347,198,
0,451,739,283,381,195,
0,568,899,280,376,194,
0,560,908,279,372,193,
0,553,911,276,369,192,
0,547,892,274,365,190,
0,540,874,272,361,188,
0,535,860,271,358,187,
0,528,846,268,355,185,
0,523,832,267,352,184,
0,515,819,263,348,183,
0,588,903,263,357,180,
0,655,909,260,353,179,
0,646,908,259,350,179,
0,637,886,257,347,177,
0,629,867,255,343,176,
0,621,852,254,339,175,
0,614,839,252,337,174,
0,607,825,250,334,172,
0,600,813,248,331,171,
0,591,800,247,335,169,
0,656,896,244,364,167,
0,657,908,243,361,167,
0,649,912,272,358,199,
0,639,913,270,354,197,
0,632,891,267,350,195,
0,625,873,265,347,193,
0,617,859,263,344,192,
0,609,845,260,340,190,
0,603,831,258,337,188,
0,593,819,255,362,187,
0,587,807,254,358,185,
0,579,794,251,355,184,
0,574,783,270,352,183,
0,568,771,286,348,182,
0,561,758,283,344,180,
0,555,748,280,341,179,
0,549,737,278,337,177,
0,543,727,275,335,176,
0,537,717,273,332,175,
0,531,708,271,371,173,
0,596,819,268,367,172,
0,588,839,265,364,171,
0,580,825,263,359,169,
0,574,812,262,356,168,
0,567,796,280,352,167,
0,560,783,278,349,166,
0,554,772,275,346,164,
0,547,760,273,343,163,
0,542,854,271,339,162,
0,535,893,268,367,161,
0,528,907,265,363,159,
0,523,910,263,359,178,
0,518,897,262,355,176,
0,512,876,259,352,175,
0,507,858,257,348,173,
0,502,844,255,345,172,
0,497,831,253,342,170,
0,492,818,251,339,169,
0,487,806,249,335,167,
0,482,794,247,368,166,
0,478,792,244,364,164,
0,473,779,255,361,163,
0,468,768,300,358,162,
0,463,758,296,354,185,
0,460,743,294,350,184,
0,455,734,291,347,182,
0,451,723,288,344,180,
0,448,714,286,340,179,
0,444,704,284,337,177,
0,439,809,280,352,176,
0,495,854,279,349,174,
0,488,839,276,346,179,
0,483,825,274,343,177,
0,478,812,271,339,176,
0,472,796,270,335,174,
0,467,783,268,333,173,
0,463,772,265,330,172,
0,458,761,263,327,170,
0,452,750,261,376,168,
0,487,739,258,376,167,
0,480,729,255,371,166,
0,475,719,311,368,179,
0,470,709,312,364,178,
0,465,700,308,360,176,
0,460,824,306,356,175,
0,455,855,303,353,174,
0,450,839,300,350,172,
0,446,825,297,347,171,
0,440,813,295,375,169,
0,436,799,292,371,167,
0,432,787,290,367,190,
0,428,775,287,363,219,
0,424,764,294,359,217,
0,421,753,291,356,216,
0,417,740,289,352,213,
0,414,729,286,349,211,
0,410,719,284,345,209,
0,407,710,281,343,207,
0,403,825,280,377,206,
0,401,892,276,374,204,
0,398,875,274,369,203,
0,395,860,345,366,200,
0,391,846,376,363,199,
0,388,831,371,359,199,
0,385,815,368,355,197,
0,382,803,364,352,195,
0,379,791,361,348,194,
0,376,820,358,345,192,
0,399,807,355,376,191,
0,403,793,351,372,189,
0,399,781,348,369,188,
0,396,770,344,366,187,
0,391,760,342,362,185,
0,387,748,339,359,184,
0,384,735,335,355,182,
0,380,724,332,352,181,
0,376,715,330,348,179,
0,374,705,327,345,178,
0,369,696,324,376,176,
0,366,687,321,371,175,
0,364,679,369,368,174,
0,359,670,365,364,172,
0,358,662,361,360,172,
0,355,652,358,358,170,
0,352,643,355,353,169,
0,350,636,352,350,167,
0,347,628,348,347,167,
0,344,697,345,371,166,
0,419,839,342,367,164,
0,415,825,338,363,162,
0,411,812,335,359,199,
0,407,799,332,356,197,
0,402,787,329,353,195,
0,398,771,327,350,193,
0,394,760,324,345,192,
0,391,749,321,343,190,
0,387,776,319,339,188,
0,384,902,316,382,187,
0,568,909,313,377,185,
0,561,913,311,374,184,
0,555,911,376,369,183,
0,547,888,371,366,182,
0,541,872,368,363,180,
0,535,855,364,359,179,
0,529,841,361,355,177,
0,523,828,358,352,176,
0,518,815,355,348,175,
0,512,859,352,382,173,
0,505,844,348,378,172,
0,499,830,344,374,173,
0,495,816,342,371,171,
0,489,803,339,367,169,
0,484,792,335,364,167,
0,480,776,333,359,167,
0,476,888,330,356,166,
0,470,905,327,352,164,
0,465,904,324,350,163,
0,461,883,322,377,162,
0,519,867,319,374,161,
0,512,854,316,369,183,
0,507,839,339,366,181,
0,501,826,389,363,179,
0,496,814,385,359,178,
0,490,798,381,355,176,
0,484,786,377,352,175,
0,480,775,374,348,174,
0,475,764,371,350,172,
0,477,899,367,385,171,
0,515,909,363,381,169,
0,508,911,359,377,184,
0,503,901,401,374,183,
0,497,878,396,369,181,
0,492,864,391,366,179,
0,487,846,388,363,178,
0,481,831,385,359,176,
0,476,819,382,355,175,
0,472,807,378,388,174,
0,467,795,375,385,172,
0,462,783,370,381,171,
0,457,772,367,377,199,
0,453,760,364,374,198,
0,448,750,359,370,196,
0,444,739,358,367,194,
0,440,728,355,363,192,
0,435,718,352,359,191,
0,432,708,348,355,190,
0,428,699,345,385,188,
0,423,689,343,381,187,
0,419,681,339,377,185,
0,415,671,336,374,187,
0,412,664,334,369,185,
0,408,655,331,366,184,
0,404,647,327,363,183,
0,401,638,326,359,181,
0,398,787,323,355,179,
0,394,901,320,352,178,
0,391,902,318,377,176,
0,387,881,316,374,176,
0,384,866,312,370,174,
0,380,851,310,367,180,
0,377,839,307,363,179,
0,374,824,305,359,177,
0,371,812,303,356,176,
0,368,796,300,352,175,
0,364,785,298,350,173,
0,361,899,295,347,172,
0,375,901,294,364,171,
0,487,880,291,359,169,
0,480,865,288,356,167,
0,475,851,287,352,167,
0,470,837,284,350,166,
0,463,824,283,346,164,
0,459,811,280,344,163,
0,455,899,279,339,161,
0,449,883,276,336,160,
0,445,868,274,335,159,
0,440,854,272,369,158,
0,436,839,271,365,157,
0,432,827,268,361,159,
0,427,814,266,358,159,
0,423,801,263,355,159,
0,419,789,263,352,157,
0,415,777,260,348,156,
0,411,764,259,344,155,
0,408,752,257,341,153,
0,403,799,255,374,152,
0,498,902,254,369,152,
0,504,909,252,365,151,
0,497,907,249,361,163,
0,491,884,248,358,162,
0,486,870,298,355,166,
0,480,855,295,352,164,
0,476,841,292,348,163,
0,470,824,289,344,161,
0,465,812,287,342,160,
0,460,880,284,376,159,
0,508,864,282,372,158,
0,500,849,280,368,156,
0,494,835,276,364,195,
0,487,822,274,361,192,
0,483,809,271,358,191,
0,478,823,270,355,189,
0,472,903,268,351,188,
0,467,897,265,347,186,
0,463,877,263,344,184,
0,458,863,262,373,183,
0,454,847,259,369,182,
0,449,834,257,365,180,
0,443,821,259,361,178,
0,439,808,257,359,177,
0,435,796,264,355,176,
0,431,784,262,352,174,
0,426,772,260,348,173,
0,422,760,257,344,172,
0,418,748,255,342,170,
0,441,836,254,366,168,
0,611,821,252,361,167,
0,602,807,249,359,216,
0,592,795,248,355,225,
0,585,783,246,352,224,
0,579,771,243,348,222,
0,572,760,241,345,220,
0,565,748,240,342,217,
0,559,736,239,338,216,
0,551,782,237,338,215,
0,547,902,236,371,212,
0,545,909,233,368,210,
0,540,911,231,364,209,
0,531,894,230,360,207,
0,527,876,276,358,205,
0,521,860,273,354,204,
0,515,846,271,351,201,
0,510,833,268,348,199,
0,504,817,266,344,199,
0,499,805,263,376,197,
0,495,792,262,372,195,
0,489,781,259,368,194,
0,484,769,257,365,199,
0,480,759,255,361,196,
0,475,748,252,358,195,
0,470,737,250,355,193,
0,465,728,248,352,192,
0,461,718,247,348,190,
0,456,901,244,344,188,
0,452,907,243,366,187,
0,448,891,240,361,185,
0,444,873,239,358,184,
0,439,859,236,355,186,
0,435,845,235,352,184,
0,431,831,246,348,183,
0,427,818,243,344,181,
0,423,806,241,342,179,
0,419,793,239,339,179,
0,415,779,237,335,177,
0,412,811,235,364,176,
0,537,797,233,359,175,
0,529,784,231,356,173,
0,522,772,297,353,177,
0,516,760,294,350,175,
0,510,750,291,347,173,
0,504,739,288,344,172,
0,499,729,286,339,171,
0,494,719,283,337,169,
0,488,717,280,334,167,
0,483,897,279,369,167,
0,479,908,275,366,166,
0,473,907,273,363,184,
0,467,885,271,359,191,
0,463,869,289,355,188,
0,458,855,319,352,187,
0,454,841,316,349,185,
0,449,828,313,346,184,
0,445,816,310,343,183,
0,441,893,307,339,181,
0,496,881,305,358,179,
0,598,865,302,354,178,
0,590,851,300,351,222,
0,580,836,297,347,220,
0,574,824,294,344,217,
0,567,811,291,341,215,
0,560,798,289,338,214,
0,553,787,287,335,211,
0,547,772,284,332,209,
0,541,761,281,369,207,
0,536,751,280,364,206,
0,530,740,278,360,204,
0,524,731,300,357,204,
0,518,720,301,353,202,
0,512,711,297,351,199,
0,507,701,295,347,199,
0,502,692,292,344,196,
0,496,684,289,341,195,
0,492,687,287,337,193,
0,487,678,285,372,192,
0,482,669,283,368,191,
0,477,660,280,364,189,
0,472,654,278,361,188,
0,467,646,275,358,186,
0,462,638,272,354,184,
0,457,630,271,351,184,
0,453,623,268,348,182,
0,449,615,267,344,180,
0,445,887,263,342,179,
0,440,873,262,364,177,
0,436,857,259,359,176,
0,432,843,258,357,175,
0,428,830,255,353,177,
0,423,816,254,350,176,
0,420,803,252,347,174,
0,415,792,250,344,173,
0,412,780,248,340,172,
0,409,768,247,337,170,
0,405,754,244,335,168,
0,402,743,243,366,167,
0,505,733,240,361,167,
0,499,723,239,358,166,
0,493,713,291,355,164,
0,486,704,338,352,163,
0,481,695,335,348,161,
0,476,686,332,344,160,
0,471,676,327,342,159,
0,465,668,326,339,158,
0,461,657,323,335,157,
0,455,769,319,366,156,
0,455,756,316,361,155,
0,451,745,313,359,157,
0,447,734,312,355,156,
0,441,723,308,352,155,
0,437,712,305,348,153,
0,432,703,303,344,152,
0,428,693,300,342,151,
0,424,732,298,339,150,
0,420,795,295,335,148,
0,416,783,294,361,147,
0,412,769,291,359,147,
0,408,758,288,355,161,
0,404,747,287,352,159,
0,400,736,284,348,158,
0,397,726,281,345,156,
0,393,716,280,342,155,
0,391,705,277,339,154,
0,387,877,275,335,153,
0,384,862,273,368,152,
0,481,847,270,364,151,
0,486,833,268,359,150,
0,481,819,267,356,155,
0,476,807,263,353,153,
0,468,795,262,350,152,
0,463,783,259,347,152,
0,459,771,258,344,150,
0,454,760,255,340,148,
0,449,749,254,337,147,
0,444,736,252,370,147,
0,440,726,250,366,145,
0,435,716,248,363,146,
0,432,706,248,359,179,
0,428,696,245,355,177,
0,422,688,243,352,176,
0,418,679,241,350,174,
0,414,670,239,345,172,
0,411,661,238,344,171,
0,407,665,236,339,169,
0,404,899,235,369,167,
0,455,908,231,365,167,
0,451,911,231,361,183,
0,446,908,229,358,180,
0,441,883,227,355,179,
0,435,868,273,351,177,
0,431,854,271,348,176,
0,426,839,268,344,174,
0,422,827,266,342,172,
0,418,814,263,339,172,
0,414,799,262,376,169,
0,409,787,259,372,167,
0,406,775,286,369,178,
0,402,764,376,366,176,
0,398,753,371,361,175,
0,393,743,367,359,174,
0,391,733,364,355,172,
0,387,723,359,352,171,
0,384,713,356,348,169,
0,380,704,353,345,167,
0,387,692,351,384,167,
0,383,684,347,380,165,
0,379,675,344,376,190,
0,376,666,341,371,188,
0,372,658,380,368,186,
0,368,649,396,365,184,
0,365,642,391,361,183,
0,362,635,387,358,180,
0,359,627,384,355,179,
0,356,620,380,372,177,
0,353,611,376,369,176,
0,351,604,373,366,175,
0,348,792,370,363,185,
0,345,822,367,359,184,
0,343,807,364,355,182,
0,339,795,359,352,180,
0,337,783,356,349,179,
0,335,771,353,347,177,
0,332,760,351,344,176,
0,329,748,348,384,175,
0,454,735,344,377,173,
0,448,724,342,374,172,
0,443,715,339,370,182,
0,438,704,335,366,180,
0,433,696,333,363,179,
0,428,686,329,359,176,
0,423,677,327,356,175,
0,419,814,324,353,174,
0,415,902,322,350,172,
0,412,902,319,376,171,
0,408,876,316,371,169,
0,403,862,314,367,167,
0,399,847,312,364,167,
0,396,834,310,359,166,
0,391,821,330,356,164,
0,387,808,326,353,163,
0,384,796,323,351,161,
0,380,783,319,347,160,
0,377,772,318,344,159,
0,376,897,315,380,158,
0,371,909,312,376,157,
0,368,904,310,371,169,
0,366,882,319,368,167,
0,362,867,369,364,167,
0,359,852,420,361,164,
0,355,839,415,358,163,
0,352,825,411,354,161,
0,349,812,407,351,160,
0,346,800,403,348,159,
0,344,788,399,382,158,
0,340,774,395,376,156,
0,337,763,391,373,158,
0,335,752,388,369,157,
0,332,742,385,366,156,
0,329,731,381,363,155,
0,327,721,376,359,153,
0,323,711,374,355,152,
0,321,702,370,352,151,
0,319,693,368,380,150,
0,422,684,364,380,148,
0,415,673,360,376,147,
0,412,665,358,371,167,
0,408,657,355,368,166,
0,403,648,352,364,164,
0,398,639,349,360,163,
0,394,633,345,358,161,
0,390,865,343,355,159,
0,386,849,339,352,159,
0,384,862,337,385,158,
0,559,903,335,381,156,
0,548,911,332,376,167,
0,542,915,329,372,191,
0,536,915,327,368,189,
0,529,903,323,365,188,
0,521,879,321,361,185,
0,516,864,318,359,184,
0,511,850,316,355,183,
0,505,902,313,352,181,
0,500,910,311,376,179,
0,515,909,308,372,177,
0,508,883,306,368,176,
0,503,868,304,364,175,
0,497,854,302,360,174,
0,492,840,368,357,172,
0,486,827,364,353,171,
0,481,815,359,351,169,
0,476,850,356,348,167,
0,472,835,353,344,167,
0,521,898,350,376,166,
0,599,907,347,372,163,
0,591,892,344,368,188,
0,583,873,340,364,185,
0,575,859,337,361,184,
0,569,845,335,358,183,
0,561,831,332,354,180,
0,555,819,327,351,179,
0,548,806,326,348,177,
0,543,795,323,345,176,
0,536,896,319,374,175,
0,531,881,317,370,173,
0,525,867,315,366,201,
0,519,851,312,363,199,
0,514,838,310,359,197,
0,508,824,307,355,195,
0,502,812,304,352,194,
0,497,799,302,349,192,
0,492,852,300,345,190,
0,487,838,297,379,189,
0,483,824,295,380,187,
0,478,807,292,376,185,
0,473,796,312,372,185,
0,468,783,308,368,184,
0,463,771,305,365,183,
0,460,856,304,361,181,
0,454,841,300,358,179,
0,449,828,297,355,178,
0,446,814,295,352,176,
0,441,802,292,391,175,
0,438,789,290,387,174,
0,433,774,287,383,172,
0,430,763,286,377,171,
0,425,752,284,374,169,
0,422,742,295,371,168,
0,419,732,293,368,167,
0,414,721,290,364,166,
0,410,711,287,359,164,
0,407,703,285,357,163,
0,406,780,283,379,162,
0,485,831,280,375,160,
0,480,814,278,371,211,
0,474,800,276,367,207,
0,469,788,274,364,206,
0,463,775,271,359,204,
0,459,764,270,356,202,
0,454,753,268,353,199,
0,448,743,265,350,199,
0,444,732,263,347,197,
0,440,846,262,381,195,
0,443,831,260,377,193,
0,438,814,259,374,192,
0,433,801,257,369,191,
0,430,788,255,365,189,
0,425,776,253,361,188,
0,422,765,252,359,186,
0,415,753,249,355,184,
0,412,743,248,352,183,
0,408,732,246,348,182,
0,404,722,244,382,179,
0,401,711,242,377,179,
0,398,700,240,374,177,
0,394,691,239,369,176,
0,391,681,238,366,175,
0,387,673,236,363,174,
0,384,664,234,359,172,
0,380,656,231,356,171,
0,377,648,231,352,169,
0,374,641,229,367,167,
0,396,633,227,365,167,
0,403,880,253,361,165,
0,399,882,251,358,190,
0,394,866,248,353,188,
0,390,851,246,350,186,
0,387,838,244,347,184,
0,383,824,242,344,183,
0,377,811,240,341,182,
0,375,892,238,338,179,
0,371,908,236,381,177,
0,419,911,233,376,176,
0,415,913,231,372,175,
0,411,889,230,368,179,
0,406,872,228,364,177,
0,402,858,298,361,177,
0,398,844,295,358,176,
0,394,831,292,354,174,
0,390,818,289,352,173,
0,385,806,287,348,171,
0,382,794,284,381,169,
0,412,782,281,377,168,
0,408,771,280,374,174,
0,403,757,349,369,172,
0,399,746,345,366,171,
0,395,736,342,362,168,
0,391,726,339,359,167,
0,387,716,335,355,166,
0,383,707,332,352,164,
0,379,787,328,349,163,
0,376,775,326,377,161,
0,371,761,323,373,160,
0,368,751,319,369,188,
0,366,736,318,365,186,
0,363,726,315,361,184,
0,359,716,312,358,184,
0,356,705,310,355,182,
0,354,696,307,352,180,
0,351,687,304,348,179,
0,348,678,302,345,177,
0,451,793,299,374,175,
0,505,780,296,371,174,
0,499,768,295,367,172,
0,494,753,291,362,171,
0,487,742,289,359,171,
0,483,731,287,355,169,
0,478,719,285,352,167,
0,472,892,283,349,167,
0,466,907,280,345,165,
0,462,912,278,373,163,
