=~=~=~=~=~=~=~=~=~=~=~= PuTTY log 2021.04.22 11:52:19 =~=~=~=~=~=~=~=~=~=~=~=
535,675,371,75,462,
0,35,665,368,75,456,
0,34,659,364,74,
0,33,83,451,
0,87,669,361,82,448,
0,86,660,359,81,444,
0,86,652,355,87,439,
0,85,774,352,86,434,
0,84,760,349,85,431,
0,83,748,347,84,427,
0,115,737,344,83,423,
0,112,727,340,83,Hbbbbbbj
0,111,705,370,81,447,
0,110,69StartUp!
125,47,790,353,110,385,
0,46,781,350,110,383,
0,46,772,348,109,380,
0,46,766,345,108,377,
0,45,758,344,108,376,
0,45,750,342,107,372,
0,44,860,339,107,369,
0,44,848,336,106,368,
0,44,841,335,105,365,
0,44,831,332,105,363,
0,44,817,329,103,359,
0,43,803,327,103,391,
0,43,791,364,103,412,
0,43,779,359,102,408,
0,42,768,356,101,404,
0,41,755,352,100,399,
0,41,744,350,99,396,
0,41,799,346,100,391,
0,43,784,343,99,388,
0,43,772,340,99,386,
0,43,760,337,98,383,
0,42,749,335,97,379,
0,41,741,372,97,429,
0,41,729,368,96,425,
0,41,719,365,96,420,
0,40,710,361,95,416,
0,39,703,358,94,412,
0,39,694,355,95,409,
0,39,825,352,94,405,
0,44,811,349,94,401,
0,50,801,346,93,397,
0,50,788,343,92,395,
0,50,779,342,92,393,
0,49,768,377,92,391,
0,49,759,374,91,387,
0,49,747,369,91,385,
0,48,736,368,89,381,
0,48,726,364,89,377,
0,48,724,359,115,375,
0,47,796,357,115,371,
0,48,783,353,113,368,
0,49,771,351,112,364,
0,49,759,348,111,361,
0,48,748,391,110,410,
0,48,736,388,110,408,
0,48,726,384,109,403,
0,47,715,380,108,399,
0,47,705,376,107,395,
0,47,742,373,119,391,
1,46,852,369,117,387,
1,72,837,366,116,384,
1,71,826,363,115,380,
2,71,813,359,115,376,
3,71,799,391,113,377,
2,70,787,392,113,374,
3,69,775,389,112,369,
3,68,764,385,111,367,
3,68,752,382,110,363,
3,67,742,379,120,361,
3,67,858,376,137,358,
3,66,843,371,135,355,
3,66,828,368,135,352,
3,71,816,365,133,348,
4,71,803,361,132,398,
4,70,790,399,131,391,
4,69,777,396,130,388,
4,68,769,391,129,384,
4,68,758,387,127,380,
4,67,746,384,127,377,
5,67,843,380,135,374,
5,66,827,377,133,369,
4,65,814,374,131,366,
5,71,799,371,131,364,
5,70,787,368,129,361,
5,70,775,413,128,428,
5,70,764,408,127,423,
5,68,752,404,127,419,
5,67,742,400,126,415,
6,67,731,396,124,410,
6,67,856,392,135,407,
6,66,859,389,133,402,
6,65,844,385,132,399,
5,66,830,382,131,395,
5,66,816,379,130,391,
5,65,803,413,129,438,
6,64,791,408,127,433,
6,63,778,403,127,429,
5,63,766,401,126,425,
5,63,755,397,125,420,
5,63,743,393,126,416,
5,62,786,390,126,412,
5,63,774,386,124,408,
5,67,761,383,123,404,
4,71,750,379,122,400,
4,70,742,414,121,449,
5,69,731,409,120,444,
4,68,720,404,120,440,
4,68,711,400,119,435,
4,67,701,396,118,430,
4,67,692,393,118,426,
4,66,831,390,124,423,
4,66,816,387,123,419,
4,65,803,384,121,415,
4,64,790,380,121,410,
4,64,777,376,120,450,
3,63,766,400,120,444,
3,63,754,396,119,440,
3,63,743,392,117,435,
3,62,735,388,116,431,
3,62,724,385,115,426,
3,61,841,382,125,422,
3,60,826,378,124,417,
3,60,812,375,123,414,
3,60,799,371,121,409,
3,60,787,368,121,454,
3,59,775,404,120,449,
3,59,763,399,119,444,
3,58,752,396,118,439,
3,57,740,391,118,435,
3,57,729,388,116,430,
3,57,856,385,130,425,
3,56,839,381,129,422,
3,56,829,377,127,417,
3,56,815,374,127,414,
3,55,802,371,126,409,
3,55,790,399,125,438,
3,54,777,396,124,433,
2,54,766,391,123,428,
2,53,754,387,122,423,
2,52,743,385,121,420,
3,52,801,382,124,417,
3,52,856,377,124,412,
2,56,841,374,122,408,
2,56,828,371,121,404,
2,55,814,368,120,401,
2,55,801,384,120,448,
2,55,788,379,119,444,
2,54,780,376,118,439,
2,53,768,371,117,434,
2,52,756,368,116,430,
2,52,745,365,119,425,
1,51,892,361,120,422,
1,52,875,359,119,417,
1,53,860,355,118,414,
1,52,846,353,116,410,
1,51,831,352,115,447,
1,51,818,393,115,441,
1,51,805,390,114,437,
1,51,792,385,113,432,
1,50,780,382,112,428,
1,50,769,379,112,423,
1,49,864,375,115,419,
1,49,849,371,115,415,
1,49,835,368,113,411,
1,48,821,364,113,408,
1,48,807,361,112,449,
1,48,795,386,111,444,
1,47,783,383,110,440,
1,47,771,380,109,435,
1,46,760,376,108,431,
1,46,748,372,108,427,
0,46,864,368,111,422,
1,46,848,365,110,418,
0,45,834,362,109,414,
1,45,820,359,108,410,
1,45,810,355,108,414,
1,44,798,390,107,446,
1,44,785,385,106,440,
0,44,773,382,105,436,
1,43,761,377,104,432,
1,43,750,374,103,427,
0,43,828,371,117,423,
0,42,856,368,116,419,
0,41,841,365,115,415,
0,44,828,361,114,412,
0,44,814,359,113,408,
0,43,801,390,112,430,
0,43,788,385,111,425,
0,42,776,381,110,421,
0,41,768,377,110,416,
0,41,756,374,109,412,
0,41,776,371,113,408,
0,41,901,367,113,404,
0,41,904,364,112,400,
0,43,886,359,111,397,
0,52,870,356,110,393,
0,51,855,373,110,391,
0,51,840,385,108,387,
0,51,827,382,108,384,
0,50,814,378,107,380,
0,50,801,375,105,377,
0,49,789,371,113,374,
0,49,900,368,113,371,
0,48,888,364,113,368,
0,48,875,360,112,364,
0,48,860,358,111,360,
0,47,846,359,110,401,
0,47,831,382,109,396,
0,46,818,377,108,391,
0,46,805,375,108,388,
0,46,792,371,107,385,
0,45,781,368,107,382,
0,45,893,364,115,378,
0,44,883,361,115,375,
0,44,867,358,114,371,
0,44,853,355,113,368,
0,44,839,352,112,389,
0,43,824,381,112,403,
0,43,815,377,111,399,
0,42,802,374,110,395,
0,41,790,370,109,391,
0,41,778,367,108,387,
0,41,880,363,115,384,
0,41,905,359,115,380,
0,40,899,356,114,377,
0,39,879,354,113,374,
0,39,864,351,112,371,
0,39,849,384,111,415,
0,39,835,380,110,411,
0,39,822,376,110,407,
0,39,808,371,109,403,
0,39,796,368,108,399,
0,38,807,365,116,395,
0,38,896,361,115,391,
0,38,878,358,114,387,
0,39,863,355,113,384,
0,38,848,352,112,380,
0,38,835,387,112,412,
0,37,820,383,111,409,
0,37,807,380,110,404,
0,36,795,376,109,401,
0,36,783,372,108,397,
0,35,779,369,115,393,
0,35,889,365,114,389,
0,35,871,361,113,385,
0,35,857,359,112,382,
0,44,847,355,112,378,
0,43,832,369,111,423,
0,43,819,377,110,418,
0,43,806,373,109,414,
0,42,793,369,108,409,
0,41,781,366,108,406,
0,41,769,363,108,401,
0,40,889,359,109,399,
0,40,872,356,108,395,
0,39,857,353,107,391,
0,49,844,350,106,387,
0,49,830,348,105,428,
0,49,816,380,104,428,
0,48,803,376,103,423,
0,48,793,372,103,419,
0,47,782,369,103,415,
0,47,770,366,102,412,
0,47,880,362,117,408,
0,46,880,359,115,403,
0,46,864,355,115,399,
0,46,849,352,113,396,
0,45,835,350,113,393,
0,44,822,377,112,423,
0,44,808,374,111,418,
0,44,796,370,110,414,
0,44,783,366,109,409,
0,43,771,363,108,406,
0,43,871,359,113,401,
0,42,872,355,113,398,
0,42,861,352,112,394,
0,42,846,350,111,391,
0,41,831,347,110,387,
0,41,819,387,110,422,
0,41,806,384,108,417,
0,40,793,379,108,412,
0,39,781,376,107,409,
0,39,769,372,106,406,
0,39,793,369,113,402,
0,39,888,366,112,398,
0,43,871,362,111,393,
0,58,856,359,110,391,
0,59,841,355,109,387,
0,57,828,382,108,431,
0,57,817,376,108,425,
0,56,804,373,107,422,
0,56,792,369,106,417,
0,56,780,366,105,412,
0,56,768,363,108,408,
0,55,888,359,113,404,
0,54,871,355,113,401,
0,54,856,353,112,398,
0,54,842,350,111,393,
0,54,828,347,110,444,
0,53,815,386,109,439,
0,53,801,382,108,434,
0,52,789,378,107,430,
0,51,777,375,107,425,
0,51,768,371,105,421,
0,51,886,368,112,417,
0,51,873,364,111,412,
0,50,857,360,110,408,
0,49,844,358,109,404,
0,49,830,354,108,425,
0,49,816,379,107,422,
0,48,803,376,106,417,
0,48,791,371,105,412,
0,47,779,368,104,408,
0,47,767,364,103,404,
0,47,883,361,115,400,
0,47,895,358,113,397,
0,46,876,355,112,393,
0,46,864,352,112,390,
0,46,850,348,111,386,
0,45,836,382,110,432,
0,44,823,377,109,428,
0,44,809,374,108,423,
0,44,797,370,108,419,
0,44,783,366,107,415,
0,43,829,364,111,412,
0,43,883,359,110,408,
0,43,867,357,108,403,
0,42,852,354,108,399,
0,52,838,351,107,396,
0,52,825,384,106,435,
0,51,812,379,105,430,
0,51,802,375,104,425,
0,51,790,371,103,422,
0,50,777,368,103,417,
0,50,766,364,108,412,
0,49,884,360,114,408,
0,48,867,358,113,404,
0,48,852,354,112,401,
0,49,839,352,112,398,
0,49,824,348,111,440,
0,48,811,384,110,433,
0,48,799,380,109,429,
0,48,786,376,108,424,
0,47,774,372,107,420,
0,47,763,369,107,416,
0,47,874,366,108,412,
0,46,862,362,107,408,
0,46,847,359,105,403,
0,51,833,355,105,399,
0,50,819,352,103,417,
0,50,806,380,103,412,
0,49,793,376,103,408,
0,49,782,371,102,405,
0,48,769,369,101,401,
0,48,759,366,100,398,
0,48,882,362,102,393,
0,47,865,359,102,390,
0,47,851,355,100,387,
0,55,836,352,99,384,
0,54,825,349,99,380,
0,53,813,387,99,423,
0,52,799,384,98,418,
0,52,787,380,97,414,
0,52,778,376,97,409,
0,51,767,372,96,407,
0,51,760,370,102,403,
0,51,876,366,101,399,
0,50,860,363,100,395,
0,49,845,359,99,391,
0,51,835,356,99,387,
0,50,822,371,98,417,
0,49,807,386,97,412,
0,49,795,383,96,408,
0,49,785,379,96,403,
0,48,774,375,95,399,
0,48,763,372,95,396,
0,48,879,368,105,392,
0,47,867,365,104,388,
0,47,851,361,103,385,
0,65,838,359,103,382,
0,64,827,355,103,378,
0,63,814,387,101,419,
0,63,800,384,100,414,
0,63,788,380,99,409,
0,62,775,376,99,407,
0,62,764,373,98,403,
0,61,807,369,107,399,
0,60,875,366,106,395,
0,60,859,363,105,391,
0,60,845,359,104,387,
0,67,831,355,103,384,
0,67,817,388,103,419,
0,66,803,384,102,415,
0,65,792,380,102,411,
0,65,780,377,100,407,
0,63,768,374,99,403,
0,63,756,371,102,399,
0,63,875,367,108,395,
0,63,859,364,107,391,
0,62,847,359,106,387,
0,75,833,357,105,384,
0,75,820,354,103,425,
0,73,807,390,103,420,
0,73,793,385,103,415,
0,71,782,382,102,412,
0,71,770,378,101,408,
0,71,759,376,100,404,
0,71,875,371,107,400,
0,70,859,368,105,397,
0,70,844,364,105,393,
0,69,830,361,103,390,
0,68,816,358,103,391,
0,68,803,385,103,422,
0,67,793,382,102,417,
0,67,782,378,101,413,
0,66,769,375,100,408,
0,66,759,371,99,404,
0,65,846,368,99,401,
0,65,883,364,99,398,
0,64,867,361,98,393,
0,72,856,358,97,390,
0,88,842,355,96,387,
0,86,828,372,96,429,
0,86,815,379,95,423,
0,84,805,376,95,419,
0,84,792,371,94,416,
0,83,780,369,93,412,
0,83,768,366,93,408,
0,82,883,362,96,404,
0,81,867,359,95,401,
0,80,852,356,94,397,
0,85,839,353,94,393,
0,84,828,350,93,390,
0,83,815,383,92,427,
0,83,801,380,92,422,
0,82,789,376,91,417,
0,81,780,372,91,414,
0,81,768,368,90,411,
0,79,757,366,98,407,
0,79,875,362,97,402,
0,79,863,359,97,399,
0,83,849,355,96,395,
0,127,834,352,96,391,
0,126,820,357,95,426,
0,125,807,379,94,426,
0,124,795,376,93,422,
0,123,782,372,92,417,
0,121,771,369,92,413,
0,121,760,366,91,409,
0,120,871,361,91,405,
0,119,855,359,89,401,
0,118,840,355,89,397,
0,153,830,352,88,393,
0,152,816,349,88,419,
0,150,803,374,88,427,
0,148,791,370,87,423,
0,147,778,366,86,419,
0,146,767,363,86,415,
0,145,755,359,85,411,
0,144,853,357,86,407,
0,143,859,353,85,403,
0,142,844,350,84,399,
0,141,830,348,84,396,
0,140,816,344,83,391,
0,139,803,385,83,422,
0,137,790,381,82,417,
0,135,781,377,81,413,
0,135,769,374,81,408,
0,135,758,370,80,404,
0,133,773,367,91,400,
0,132,880,363,89,398,
0,131,864,359,88,393,
0,130,849,356,88,390,
0,129,835,354,88,387,
0,128,823,381,87,415,
0,127,808,380,86,411,
0,126,796,376,86,408,
0,126,783,372,84,403,
0,124,771,368,84,399,
0,124,767,366,92,395,
0,123,879,361,92,391,
0,121,862,358,91,387,
0,121,847,355,90,384,
0,130,833,352,89,380,
0,129,819,374,88,419,
0,127,807,371,88,415,
0,127,794,368,87,411,
0,126,782,366,86,407,
0,125,769,361,86,403,
0,124,759,359,85,399,
0,123,881,355,84,395,
0,121,865,352,83,391,
0,120,851,349,83,387,
0,156,836,345,83,384,
0,155,822,343,82,428,
0,153,812,339,81,423,
0,152,799,337,81,418,
0,150,787,334,80,414,
0,149,775,332,79,409,
0,147,763,327,79,406,
0,147,860,326,79,402,
0,145,844,323,78,399,
0,144,830,321,78,395,
0,152,816,319,77,391,
0,161,803,316,76,387,
0,159,790,352,76,409,
0,158,777,348,76,404,
0,157,7StartUp!
125,32,856,335,119,388,
0,32,845,332,118,387,
0,31,835,331,118,384,
0,31,829,355,116,406,
0,31,818,353,116,402,
0,31,808,351,115,399,
0,31,799,348,115,396,
0,31,790,345,114,394,
0,31,783,344,113,391,
0,31,775,340,113,388,
0,30,870,338,113,385,
0,30,871,335,112,381,
0,30,856,332,111,377,
0,30,842,329,110,374,
0,29,828,327,109,371,
0,29,815,348,108,376,
0,29,801,344,108,371,
0,29,792,340,108,368,
0,28,780,337,107,364,
0,28,768,334,105,361,
0,28,792,331,112,359,
0,28,883,327,111,355,
0,28,867,326,110,352,
0,28,852,323,110,349,
0,27,838,320,108,347,
0,27,824,331,108,366,
0,27,811,327,107,362,
0,27,798,323,106,359,
0,26,785,321,105,355,
0,26,774,318,103,352,
0,25,771,316,105,348,
0,25,876,313,104,345,
0,25,860,312,104,344,
0,28,850,310,103,342,
0,47,835,307,103,338,
0,46,822,342,103,390,
0,46,808,338,102,385,
0,45,796,335,101,382,
0,45,783,332,100,379,
0,44,771,329,99,376,
0,44,760,327,108,371,
0,44,887,323,120,368,
0,43,870,319,119,364,
0,43,858,318,118,361,
0,71,844,315,116,358,
0,69,830,313,115,386,
0,68,816,352,115,382,
0,68,803,348,114,378,
0,67,791,345,113,375,
0,66,779,342,112,371,
0,66,768,339,111,368,
0,65,880,336,127,364,
0,64,871,334,127,361,
1,64,856,331,126,358,
1,88,842,327,124,355,
1,87,828,324,124,366,
2,86,815,363,123,385,
2,84,805,359,121,381,
2,83,792,355,120,377,
3,83,780,352,120,374,
3,82,768,349,119,371,
3,81,814,345,137,367,
3,80,873,343,135,364,
3,79,857,339,135,359,
3,95,844,337,134,358,
3,94,830,334,132,354,
3,92,816,385,131,391,
3,92,803,381,130,387,
3,91,791,377,129,384,
4,90,779,374,127,380,
4,89,767,369,127,376,
4,88,778,367,153,372,
4,88,844,363,151,369,
4,88,830,359,150,366,
4,87,816,356,147,362,
4,95,803,353,147,359,
4,94,791,356,145,401,
4,93,778,353,144,398,
4,92,766,350,143,395,
4,91,755,347,142,391,
5,90,743,344,141,387,
4,89,734,341,143,384,
4,88,855,338,143,379,
4,88,839,335,143,376,
4,88,825,332,141,371,
5,88,812,329,140,368,
4,88,802,339,140,423,
4,87,790,369,138,417,
4,86,777,366,137,413,
4,85,765,361,135,409,
4,84,754,359,135,404,
4,83,743,355,134,401,
4,83,876,352,140,398,
4,82,859,349,139,394,
4,81,844,346,137,391,
4,81,830,344,136,387,
4,80,816,339,135,389,
4,79,803,361,135,389,
4,79,791,358,134,385,
3,79,779,354,132,382,
4,78,769,351,131,378,
4,78,759,347,131,375,
4,77,831,344,133,371,
3,76,870,341,132,368,
3,76,855,337,131,364,
3,76,840,335,130,361,
3,75,826,332,129,359,
3,74,813,381,127,407,
3,74,799,376,127,403,
3,73,787,373,126,399,
3,72,775,369,125,395,
3,71,764,366,124,391,
3,71,819,363,138,387,
3,71,857,359,137,384,
3,71,846,355,135,380,
3,71,831,352,135,376,
3,71,819,349,134,372,
3,71,806,392,132,404,
3,70,792,387,131,399,
3,70,780,384,131,396,
3,68,768,380,129,391,
3,68,757,377,128,390,
3,67,746,374,140,385,
3,67,882,370,139,382,
3,67,866,367,137,379,
3,66,851,364,135,375,
3,70,836,359,135,371,
3,69,824,391,134,403,
3,68,813,412,133,399,
3,67,799,408,132,395,
2,67,787,403,131,391,
2,67,775,399,130,387,
2,66,764,396,129,384,
2,65,893,391,135,380,
2,65,886,388,135,376,
2,64,870,386,134,374,
2,71,855,383,131,370,
2,71,839,380,131,398,
2,70,826,378,130,395,
2,69,813,375,129,391,
2,68,800,371,127,387,
2,67,788,368,127,384,
1,67,775,365,126,380,
1,67,862,361,129,376,
2,66,878,359,127,372,
1,65,863,355,127,368,
1,79,847,352,126,365,
2,78,834,349,125,364,
1,77,820,396,124,364,
1,76,807,393,124,361,
1,76,795,390,123,358,
1,76,782,385,121,355,
1,75,771,382,120,352,
1,74,863,379,132,348,
1,73,901,375,131,345,
1,73,884,371,131,343,
1,72,868,368,129,339,
1,71,857,365,129,337,
1,71,844,387,127,377,
1,71,829,384,127,374,
1,70,816,380,126,370,
1,70,803,376,125,367,
1,69,791,372,124,363,
1,68,796,369,136,359,
0,67,900,367,135,357,
1,67,889,363,134,353,
1,71,871,359,133,351,
1,71,857,356,132,348,
1,71,844,384,131,388,
0,71,829,380,129,384,
1,70,816,376,129,380,
0,70,806,371,127,376,
1,69,793,368,127,373,
1,68,781,365,129,369,
1,67,887,361,140,366,
1,67,871,358,138,363,
0,67,856,355,137,359,
0,73,841,352,135,356,
0,72,827,350,135,396,
1,71,814,359,134,391,
0,71,800,356,132,387,
0,71,788,353,131,383,
0,70,776,350,131,379,
0,70,765,347,130,376,
0,69,880,344,141,371,
0,68,868,340,140,368,
0,67,853,337,139,365,
0,76,839,335,137,361,
0,76,825,332,135,417,
1,75,812,358,135,411,
0,74,799,354,134,407,
0,73,786,351,134,403,
0,72,774,348,132,399,
0,71,763,345,131,396,
0,71,872,342,143,391,
1,71,893,339,142,388,
0,71,875,335,141,384,
0,71,860,333,140,380,
0,71,845,329,139,377,
0,71,835,363,138,396,
0,70,821,359,137,391,
0,69,808,355,135,388,
0,68,796,352,135,384,
0,67,783,350,134,381,
0,67,783,346,136,377,
0,67,866,343,135,374,
0,66,851,340,135,371,
0,70,836,337,133,368,
0,70,823,335,132,364,
0,68,809,339,131,384,
0,68,796,335,130,380,
0,67,784,332,129,376,
0,67,772,329,127,372,
0,67,760,327,127,369,
0,66,752,324,127,366,
0,65,881,321,127,362,
0,65,865,319,126,359,
0,64,850,316,125,355,
0,78,836,313,124,352,
0,76,822,364,124,350,
0,76,808,359,123,348,
0,75,796,356,121,344,
0,75,783,353,120,342,
0,74,772,350,120,338,
0,73,760,347,120,335,
0,73,881,344,128,333,
0,71,864,340,127,330,
0,71,850,337,127,327,
0,72,839,334,126,324,
0,71,825,331,124,344,
0,71,812,364,124,340,
0,71,799,360,123,336,
0,70,787,358,121,334,
0,70,775,354,120,331,
0,69,763,351,120,327,
0,68,875,348,124,326,
0,68,865,344,123,323,
0,67,851,342,122,319,
0,67,836,339,121,317,
0,66,823,335,120,321,
0,66,809,368,119,361,
0,65,796,364,118,358,
0,65,787,359,118,355,
0,64,775,356,116,351,
0,63,764,353,116,348,
0,63,806,350,141,344,
0,63,876,347,140,342,
0,62,860,344,138,338,
0,66,846,340,137,335,
0,65,831,338,135,332,
0,65,818,361,135,375,
0,64,805,358,134,371,
0,63,792,355,132,367,
0,63,780,351,131,364,
0,63,768,348,131,359,
0,62,804,344,136,357,
0,62,896,341,135,353,
0,62,882,338,135,350,
0,61,867,335,134,347,
0,63,851,332,132,344,
0,63,838,359,131,372,
0,62,824,355,131,368,
0,62,811,352,129,365,
0,61,798,350,127,362,
0,61,785,346,127,359,
0,60,774,343,127,355,
0,60,889,339,127,352,
0,60,871,336,127,348,
0,59,856,334,126,345,
0,61,843,331,124,343,
0,60,829,329,124,387,
0,60,818,359,123,382,
0,60,806,357,121,377,
0,59,792,353,121,374,
0,59,780,350,120,371,
0,58,769,347,120,367,
0,58,891,344,137,364,
0,57,896,342,135,360,
0,57,877,338,135,358,
0,62,862,335,134,354,
0,62,847,332,132,369,
0,61,833,362,131,384,
0,60,820,359,131,380,
0,60,807,355,129,376,
0,60,795,352,127,372,
0,59,785,348,127,368,
0,59,839,345,129,366,
0,57,880,342,127,361,
0,57,864,339,126,359,
0,61,849,335,126,355,
0,60,835,333,125,368,
0,60,822,358,124,403,
0,59,808,355,123,399,
0,59,796,352,121,395,
0,58,783,348,121,391,
0,58,771,344,120,387,
0,57,826,342,131,384,
0,56,872,338,129,380,
0,56,856,335,129,376,
0,73,846,332,127,372,
0,83,831,329,127,369,
0,81,819,371,126,406,
0,81,805,366,125,401,
0,79,792,363,124,398,
0,79,780,359,123,393,
0,79,768,355,121,391,
0,78,758,353,123,387,
0,77,882,350,122,384,
0,76,865,347,121,380,
0,76,851,344,120,376,
0,75,836,340,120,372,
0,75,824,343,119,376,
0,74,809,355,118,371,
0,73,799,352,116,368,
0,73,787,348,116,364,
0,71,775,345,115,361,
0,71,764,342,115,359,
0,71,871,339,123,355,
0,71,855,335,121,352,
0,70,840,332,120,348,
0,83,826,331,120,346,
0,83,813,327,119,378,
0,82,799,355,117,379,
0,81,787,351,116,375,
0,81,775,348,115,371,
0,80,764,344,115,368,
0,79,752,342,114,364,
0,79,841,338,124,359,
0,78,867,335,124,357,
0,78,852,332,122,353,
0,77,838,328,121,351,
0,76,824,326,120,377,
0,76,811,368,120,391,
0,76,798,364,119,387,
0,74,786,361,118,384,
0,73,774,358,116,380,
0,73,763,355,115,376,
0,72,837,352,124,373,
0,71,865,348,123,369,
0,71,851,345,121,366,
0,71,836,342,120,363,
0,71,823,339,120,359,
0,71,814,369,119,384,
0,70,799,366,118,379,
0,69,787,361,117,376,
0,68,775,358,116,371,
0,67,764,355,115,368,
0,67,761,352,120,364,
0,67,884,349,120,361,
0,66,867,345,119,359,
0,66,853,343,118,355,
0,66,839,339,116,352,
0,65,825,367,115,388,
0,65,812,364,115,384,
0,64,799,359,113,380,
0,63,786,356,113,376,
0,63,777,353,112,373,
0,63,766,350,113,369,
0,63,871,346,116,366,
0,62,855,344,115,362,
0,62,839,340,115,359,
0,65,826,337,114,355,
0,64,813,353,113,386,
0,63,799,364,112,382,
0,63,787,361,111,377,
0,63,775,358,111,374,
0,62,764,354,110,370,
0,62,752,351,109,367,
0,61,881,348,122,363,
0,61,865,344,121,359,
0,60,854,342,120,356,
0,60,839,338,119,353,
0,60,825,335,118,399,
0,59,812,384,117,395,
0,59,799,380,116,390,
0,58,787,376,115,387,
0,57,775,371,115,384,
0,57,763,369,113,380,
0,56,867,366,116,376,
0,56,879,362,115,372,
0,56,863,359,115,369,
0,71,848,355,113,366,
0,71,834,352,113,362,
0,71,821,399,112,398,
0,70,811,395,111,393,
0,69,798,391,111,390,
0,68,785,387,110,386,
0,67,774,384,108,382,
0,67,774,380,126,378,
0,67,871,376,125,375,
0,66,856,372,124,371,
0,70,841,370,123,368,
0,69,827,367,122,365,
0,68,814,366,121,384,
0,68,800,363,120,380,
0,67,788,359,119,376,
0,67,775,356,118,372,
0,66,764,353,117,369,
0,65,756,350,116,366,
0,65,883,347,120,362,
0,64,866,344,119,359,
0,63,851,340,118,355,
0,65,836,338,117,352,
0,64,824,361,116,351,
0,63,810,358,115,347,
0,63,797,355,114,344,
0,63,784,352,113,342,
0,62,773,348,112,339,
0,62,761,344,112,335,
0,61,891,342,124,333,
0,60,876,338,123,330,
0,60,860,335,121,327,
0,60,846,332,121,325,
0,59,835,329,120,365,
0,59,822,349,119,360,
0,58,808,345,118,357,
0,57,796,342,118,353,
0,57,783,339,116,351,
0,57,771,335,115,348,
0,56,876,333,118,344,
0,56,876,331,117,342,
0,56,861,327,116,339,
0,103,846,325,115,335,
0,101,831,321,114,377,
0,99,819,362,113,374,
0,99,806,359,113,370,
0,98,793,355,112,366,
0,97,780,352,111,363,
0,96,769,348,110,359,
0,96,870,345,116,356,
0,95,878,342,115,352,
0,94,862,339,115,350,
0,96,851,335,113,347,
0,95,836,333,113,344,
0,94,824,351,112,384,
0,93,809,348,111,380,
0,92,797,344,110,376,
0,92,784,340,110,372,
0,91,772,337,108,370,
0,90,790,335,129,367,
0,89,876,332,127,363,
0,88,861,329,127,359,
0,88,847,327,126,356,
0,88,831,323,124,353,
0,87,819,344,124,392,
0,87,806,341,123,388,
0,86,796,338,121,384,
0,84,783,335,121,380,
0,84,772,332,120,377,
0,83,760,329,121,374,
0,83,856,326,127,369,
0,82,841,323,127,367,
0,81,828,319,126,364,
0,81,814,318,125,359,
0,80,801,316,124,412,
0,79,788,327,123,406,
0,79,775,326,121,402,
0,79,764,323,120,398,
0,78,753,319,120,394,
0,78,742,316,119,391,
0,76,873,314,121,387,
0,76,857,312,120,384,
0,76,843,308,120,380,
0,76,828,307,119,376,
0,75,815,304,118,408,
0,74,801,345,117,402,
0,73,789,343,116,398,
0,72,777,340,115,395,
0,71,765,337,115,391,
0,71,753,334,113,387,
0,71,881,331,127,384,
0,71,877,327,127,380,
0,71,861,324,126,376,
0,70,847,321,125,372,
0,70,835,319,124,369,
0,68,823,353,123,380,
0,68,808,350,122,376,
0,67,796,347,121,372,
0,67,783,344,120,369,
0,67,772,340,119,366,
0,66,798,337,123,362,
0,65,861,335,122,359,
0,65,846,332,121,356,
0,67,831,329,120,353,
0,67,818,326,120,350,
0,66,805,364,119,348,
0,65,792,359,118,344,
0,65,780,355,116,342,
0,64,768,352,115,339,
0,63,760,349,115,335,
0,63,748,347,137,334,
0,63,866,343,135,331,
0,62,851,339,135,327,
0,62,836,337,134,324,
0,61,823,334,132,323,
0,61,809,337,131,370,
0,60,796,348,130,366,
0,60,783,344,129,362,
0,60,772,341,127,359,
0,59,760,338,127,355,
0,59,750,335,126,352,
0,59,882,332,126,348,
0,57,865,329,126,345,
0,57,854,326,124,343,
0,57,839,323,124,339,
0,57,825,326,123,368,
0,56,812,356,121,364,
0,56,799,353,120,359,
0,56,787,350,120,357,
0,56,775,346,119,355,
0,55,764,344,118,352,
0,54,884,340,118,348,
0,54,870,337,118,344,
0,54,855,335,116,342,
0,56,839,332,115,339,
0,56,825,327,115,359,
0,56,812,358,114,369,
0,56,803,355,113,366,
0,55,791,351,112,363,
0,54,778,348,112,359,
0,54,767,344,111,355,
0,54,853,342,123,352,
0,53,888,338,121,349,
0,52,871,335,120,347,
0,52,856,333,120,344,
0,52,841,329,118,340,
0,51,828,348,117,381,
0,51,815,344,116,377,
0,51,801,341,115,374,
0,51,789,337,115,369,
0,50,777,335,113,366,
0,49,768,332,126,363,
0,49,879,327,124,359,
0,49,864,326,123,355,
0,50,849,323,122,352,
0,50,835,319,121,349,
0,50,822,342,120,390,
0,49,807,337,119,386,
0,49,795,335,118,384,
0,48,783,332,118,379,
0,48,771,329,116,376,
0,48,760,326,124,372,
0,48,868,323,123,368,
0,47,852,319,121,364,
0,47,838,318,120,361,
0,48,828,315,120,359,
0,48,814,339,119,371,
0,48,801,358,118,368,
0,47,788,354,117,364,
0,47,776,351,115,360,
0,47,764,348,115,358,
0,46,753,344,114,354,
0,46,871,342,125,352,
0,46,855,339,124,348,
0,45,840,335,123,345,
0,45,827,332,121,343,
0,44,813,329,121,379,
0,44,799,363,120,384,
0,44,787,359,119,380,
0,44,775,355,118,376,
0,43,767,352,117,372,
0,43,755,349,116,369,
0,43,842,346,118,366,
0,42,862,343,117,362,
0,41,847,339,115,359,
0,41,831,336,115,355,
0,41,819,334,114,353,
0,40,806,348,113,399,
0,40,792,344,112,396,
0,39,780,340,112,391,
0,39,768,337,111,387,
0,39,757,335,110,384,
0,39,835,332,112,380,
0,39,868,328,111,376,
0,39,857,326,110,373,
0,50,843,323,109,369,
0,49,829,319,108,366,
0,49,816,359,107,403,
0,48,802,355,107,399,
0,48,790,352,105,396,
0,48,777,348,105,391,
0,47,766,346,103,388,
0,47,774,343,116,385,
0,47,896,339,115,381,
0,46,880,336,114,377,
0,46,864,334,113,374,
0,57,850,331,112,371,
0,57,836,355,112,390,
0,56,825,352,111,386,
0,56,812,348,110,382,
0,56,799,345,109,379,
0,55,787,342,108,375,
0,55,775,339,108,371,
0,54,883,335,116,368,
0,54,867,332,115,365,
0,53,851,330,115,361,
0,71,838,327,113,359,
0,71,824,324,112,396,
0,70,811,351,112,391,
0,69,798,348,111,388,
0,68,785,344,110,384,
0,68,774,341,109,380,
0,67,764,337,108,376,
0,67,865,335,118,373,
0,66,863,332,116,369,
0,65,847,328,115,366,
0,66,833,326,115,363,
0,65,819,323,113,375,
0,65,807,355,112,371,
0,64,793,352,112,368,
0,63,782,349,111,364,
0,63,769,345,110,360,
0,63,758,343,109,357,
0,63,856,339,121,354,
0,62,867,335,120,351,
0,61,851,333,119,348,
0,65,838,330,118,344,
0,64,828,327,117,342,
0,63,814,358,116,379,
0,63,800,354,115,375,
0,63,788,351,115,371,
0,62,775,347,113,368,
0,62,764,344,112,364,
0,61,764,342,121,361,
0,60,867,338,120,358,
0,60,851,335,119,355,
0,60,838,332,118,352,
0,59,824,329,117,348,
0,59,810,332,116,361,
0,58,797,327,115,358,
0,57,784,326,115,355,
0,57,775,322,114,352,
0,56,764,319,113,348,
0,56,752,317,113,345,
0,56,865,315,121,342,
0,56,850,312,120,339,
0,55,835,309,120,335,
0,71,822,307,119,334,
0,71,808,304,118,385,
0,70,796,337,116,381,
0,70,783,334,115,377,
0,69,771,331,115,374,
0,68,760,327,114,369,
0,68,748,324,113,367,
0,67,875,321,120,363,
0,67,863,319,119,359,
0,67,847,316,118,356,
0,65,834,313,117,352,
0,65,820,311,115,396,
0,64,807,352,115,391,
0,63,794,348,114,387,
0,63,782,344,113,384,
0,63,770,342,112,381,
0,63,759,339,111,377,
0,62,867,335,113,374,
0,62,851,332,113,369,
0,61,838,329,112,366,
0,62,824,327,111,363,
0,61,810,323,110,359,
0,60,800,345,110,387,
0,60,787,342,108,384,
0,60,775,339,108,380,
0,59,764,335,107,376,
0,59,752,332,106,372,
0,58,792,329,120,369,
0,57,871,327,118,366,
0,57,856,324,117,363,
0,57,840,321,116,359,
0,56,827,319,115,356,
0,56,814,350,114,376,
0,56,799,345,113,371,
0,56,787,343,112,367,
0,55,775,339,112,364,
0,54,767,335,111,359,
0,54,755,333,118,357,
0,53,884,329,120,353,
0,53,867,327,120,351,
0,52,853,324,118,348,
0,54,839,321,117,344,
0,54,825,370,116,341,
0,53,812,366,115,339,
0,53,799,363,114,335,
0,52,786,359,113,333,
0,52,775,355,112,331,
0,51,763,352,114,327,
0,51,892,349,121,324,
0,51,875,345,120,322,
0,50,860,343,120,319,
0,51,849,339,119,316,
0,50,835,372,118,330,
0,49,822,408,116,327,
0,49,808,404,115,323,
0,49,796,399,115,320,
0,48,783,396,114,318,
0,48,771,393,113,316,
0,48,891,390,118,313,
0,47,898,386,116,311,
0,47,879,382,115,308,
0,55,864,379,115,306,
0,54,849,376,114,327,
0,54,835,372,113,345,
0,52,822,368,112,343,
0,52,812,365,111,339,
0,51,799,362,111,335,
0,51,787,359,110,333,
0,51,840,355,120,329,
0,51,887,353,119,327,
0,50,870,350,118,323,
0,51,856,347,117,321,
0,51,841,344,116,319,
0,50,828,355,115,371,
0,50,814,352,115,367,
0,49,801,348,113,363,
0,49,789,344,112,359,
0,49,776,342,112,356,
0,48,816,339,123,352,
0,48,879,335,121,350,
0,47,863,333,120,346,
0,48,847,330,120,344,
0,51,833,327,119,340,
0,51,820,348,118,381,
0,50,807,344,117,377,
0,49,795,340,116,375,
0,49,782,338,115,371,
0,49,771,335,114,367,
0,48,759,332,124,364,
0,48,883,328,124,359,
0,48,867,326,123,356,
0,47,852,323,122,353,
0,50,838,320,121,350,
0,49,828,335,120,391,
0,49,814,355,120,387,
0,48,801,352,118,383,
0,48,788,349,118,379,
0,48,776,345,116,376,
0,47,765,343,115,371,
0,47,892,339,127,368,
0,47,884,337,126,366,
0,46,868,334,124,362,
0,51,854,331,123,359,
0,51,839,327,123,386,
0,51,825,340,121,391,
0,50,812,337,120,387,
0,49,799,334,120,384,
0,49,790,331,119,380,
0,49,777,327,118,376,
0,48,856,325,123,372,
0,48,881,322,121,368,
0,48,865,319,120,365,
0,67,851,316,120,361,
0,66,836,315,119,367,
0,65,824,350,118,380,
0,65,809,347,116,376,
0,64,796,344,115,371,
0,63,784,339,115,368,
0,63,772,336,114,365,
0,63,835,334,121,361,
0,62,870,331,120,358,
0,62,855,327,120,355,
0,61,844,324,119,352,
0,60,829,322,117,348,
0,60,816,349,116,353,
0,60,803,345,115,350,
0,59,790,342,115,347,
0,59,778,339,113,344,
0,58,766,335,113,341,
0,57,755,334,119,338,
0,57,856,331,117,335,
0,56,841,327,116,332,
0,56,828,324,115,329,
0,57,814,321,114,327,
0,56,802,334,113,372,
0,56,788,339,112,368,
0,56,780,336,112,364,
0,56,768,333,111,361,
0,55,756,330,110,358,
0,54,745,327,109,355,
0,54,862,324,120,352,
0,54,846,321,119,348,
0,53,831,319,118,345,
0,71,818,316,116,343,
0,70,805,313,115,385,
0,70,792,352,115,380,
0,69,780,348,114,376,
0,68,768,344,113,372,
0,67,756,341,112,368,
0,67,745,338,112,366,
0,67,860,335,127,361,
0,66,867,332,126,358,
0,65,851,328,125,355,
0,67,838,326,124,352,
0,67,824,323,123,368,
0,67,810,356,122,366,
0,66,797,353,121,363,
0,65,784,351,120,359,
0,65,773,348,120,356,
0,64,761,344,118,352,
0,63,857,340,125,350,
0,63,874,337,124,347,
0,63,859,334,123,344,
0,63,844,332,121,340,
0,62,833,327,121,337,
0,61,820,364,120,384,
0,60,807,359,119,380,
0,60,794,356,118,376,
0,60,782,353,117,372,
0,60,770,350,116,369,
0,59,775,347,119,366,
0,59,874,344,118,363,
0,58,858,340,117,359,
0,58,844,337,116,356,
0,59,830,335,115,353,
0,57,817,365,114,398,
0,57,803,360,113,393,
0,56,791,357,112,390,
0,56,779,353,112,385,
0,56,769,350,111,382,
0,56,758,347,110,379,
0,55,870,344,110,375,
0,55,854,340,109,371,
0,54,839,337,108,368,
0,54,825,335,108,364,
0,54,812,332,107,387,
0,54,799,368,106,384,
0,53,787,364,105,380,
0,52,775,359,104,376,
0,52,763,357,103,372,
0,51,752,353,103,368,
0,51,894,351,112,365,
0,51,888,347,112,361,
0,51,875,344,111,358,
0,51,860,340,110,355,
0,51,845,338,109,391,
0,50,831,352,108,387,
0,50,817,349,108,383,
0,49,804,345,107,379,
0,49,792,342,105,376,
0,48,780,339,105,372,
0,48,878,337,119,368,
0,48,878,334,118,365,
0,48,863,331,116,362,
0,49,847,327,115,359,
0,48,834,326,115,355,
0,48,820,356,114,363,
0,48,810,353,113,359,
0,47,798,350,112,356,
0,47,785,347,111,353,
0,46,774,344,111,350,
0,46,801,340,117,347,
0,46,889,337,115,344,
0,45,871,334,115,342,
0,51,857,332,114,338,
0,51,843,328,113,335,
0,50,829,364,112,389,
0,49,815,359,111,385,
0,49,803,356,111,381,
0,48,790,353,110,377,
0,48,777,350,108,374,
0,48,769,347,115,370,
0,48,892,343,118,367,
0,47,875,339,116,363,
0,46,860,337,115,359,
0,47,846,334,115,356,
0,47,831,363,114,370,
0,46,818,359,113,366,
0,46,804,356,112,364,
0,46,792,352,112,359,
0,45,780,350,110,356,
0,45,768,345,110,353,
0,44,889,343,114,350,
0,44,871,339,113,347,
0,44,856,336,112,344,
0,44,846,334,112,340,
0,43,831,331,111,396,
0,43,818,355,110,391,
0,43,806,352,109,387,
0,42,792,348,108,384,
0,42,780,345,108,380,
0,41,768,342,107,376,
0,41,857,339,123,373,
0,41,841,336,121,369,
0,40,828,333,120,366,
0,48,814,331,120,363,
0,47,801,327,119,361,
0,47,788,327,118,377,
0,46,775,323,116,374,
0,46,764,321,116,369,
0,46,756,318,115,366,
0,46,745,316,114,363,
0,45,776,313,123,359,
0,44,822,311,121,355,
0,44,808,308,120,352,
0,49,796,305,120,350,
0,48,783,304,119,348,
0,48,771,345,118,403,
0,48,760,342,116,399,
0,48,748,338,115,395,
0,47,737,335,115,391,
0,47,727,332,113,387,
0,46,775,329,121,384,
0,46,854,326,120,380,
0,45,843,323,120,376,
0,45,829,319,119,372,
0,46,815,317,118,369,
0,44,803,352,116,396,
0,44,790,348,115,391,
0,44,777,344,115,387,
0,44,766,341,114,384,
0,43,754,339,113,380,
0,43,743,335,120,377,
0,42,849,332,120,374,
0,41,835,329,119,369,
0,41,820,327,118,367,
0,59,807,323,117,363,
0,57,795,351,116,359,
0,57,784,376,115,356,
0,56,773,372,114,353,
0,56,761,368,113,351,
0,56,750,365,112,348,
0,55,739,361,112,344,
0,55,840,359,115,342,
0,54,824,355,113,339,
0,54,812,352,112,335,
0,63,798,350,112,334,
0,62,785,347,111,361,
0,62,774,374,110,371,
0,61,761,370,109,368,
0,60,750,367,108,364,
0,60,739,363,107,361,
0,60,731,359,107,358,
0,59,812,356,112,354,
0,59,854,353,111,351,
0,58,839,350,110,348,
0,59,824,347,110,344,
0,59,811,344,108,376,
0,57,798,355,108,400,
0,57,785,353,107,398,
0,56,774,350,106,393,
0,56,761,347,105,390,
0,56,751,344,103,385,
0,56,811,340,113,382,
0,55,856,337,112,378,
0,55,840,334,112,375,
0,54,831,332,111,371,
0,54,817,327,110,368,
0,53,804,342,109,377,
0,53,792,339,108,374,
0,52,779,335,107,370,
0,52,768,332,107,367,
0,51,755,329,105,363,
0,51,744,327,110,360,
0,51,866,323,109,357,
0,50,851,321,108,354,
0,49,836,319,108,351,
0,49,823,316,107,348,
0,49,810,339,106,387,
0,49,796,344,105,383,
0,48,783,342,104,379,
0,48,775,338,103,376,
0,48,764,335,103,371,
0,48,752,332,103,368,
0,47,892,329,121,364,
0,47,882,326,120,361,
0,46,866,323,120,358,
0,46,851,319,119,355,
0,46,838,318,118,400,
0,46,824,352,116,396,
0,45,810,348,115,391,
0,45,798,344,115,387,
0,44,785,341,113,384,
0,44,774,338,113,380,
0,44,891,335,125,376,
0,44,881,332,124,372,
0,43,866,328,123,369,
0,43,851,326,121,366,
0,43,837,323,120,399,
0,42,823,355,120,403,
0,42,809,352,119,399,
0,41,798,348,118,396,
0,41,785,345,117,391,
0,41,772,342,115,388,
0,40,855,339,121,384,
0,40,871,335,120,380,
0,39,856,333,119,377,
0,45,841,329,118,374,
0,45,828,327,117,370,
0,44,817,358,116,367,
0,44,804,353,115,364,
0,44,792,350,114,359,
0,43,780,347,113,357,
0,43,768,344,112,353,
0,42,758,340,116,351,
0,41,871,337,115,348,
0,41,856,335,114,345,
0,46,841,332,113,343,
0,48,827,329,112,339,
0,47,815,376,111,381,
0,47,800,370,110,376,
0,46,788,367,110,373,
0,46,775,363,108,369,
0,45,768,359,108,366,
0,45,756,356,108,363,
0,44,877,353,116,359,
0,44,861,350,115,355,
0,44,846,347,115,352,
0,46,831,344,114,350,
0,46,819,362,113,368,
0,45,806,361,112,365,
0,44,792,359,111,361,
0,44,780,355,110,359,
0,44,768,352,109,355,
0,44,757,348,108,352,
0,43,889,345,115,348,
0,43,873,342,115,345,
0,42,858,339,114,342,
0,51,847,335,113,339,
0,51,833,332,112,357,
0,51,819,387,111,352,
0,50,807,384,110,349,
0,49,793,380,110,345,
0,49,781,376,108,343,
0,48,769,374,108,340,
0,48,864,370,119,337,
0,48,865,367,118,334,
0,47,851,363,117,332,
0,48,836,359,116,327,
0,47,823,356,115,326,
0,47,809,362,114,372,
0,46,796,359,113,369,
0,46,787,355,112,366,
0,46,775,352,112,361,
0,45,764,348,111,359,
0,45,786,346,116,355,
0,44,876,343,115,352,
0,44,861,339,114,348,
0,51,846,337,113,345,
0,51,831,335,112,343,
0,50,819,364,111,384,
0,50,806,359,111,379,
0,49,793,356,110,376,
0,49,780,353,109,371,
0,48,769,350,108,368,
0,48,802,347,111,364,
0,48,896,344,115,361,
0,47,882,340,115,358,
0,48,867,337,113,355,
0,59,851,334,113,352,
0,57,838,360,112,381,
0,57,824,356,111,377,
0,56,811,353,110,374,
0,56,798,351,109,371,
0,56,785,348,108,367,
0,55,774,344,108,364,
0,55,879,341,114,359,
0,54,863,337,113,356,
0,54,847,335,112,353,
0,57,834,332,111,350,
0,56,824,329,110,347,
0,56,811,368,109,344,
0,56,798,364,108,340,
0,56,785,360,108,337,
0,55,773,358,107,335,
0,55,761,354,106,332,
0,54,877,351,118,329,
0,53,862,348,117,327,
0,53,847,345,115,324,
0,60,833,342,115,321,
0,60,819,339,114,327,
0,59,806,370,113,364,
0,59,793,366,112,359,
0,58,782,363,111,356,
0,57,772,359,111,353,
0,57,760,355,110,350,
0,56,814,352,121,347,
0,56,875,349,120,344,
0,56,859,345,119,340,
0,55,844,343,118,337,
0,55,831,339,117,335,
0,54,817,367,115,379,
0,54,803,363,115,375,
0,53,792,359,114,371,
0,52,779,355,113,367,
0,52,768,352,112,364,
0,51,792,349,124,359,
0,51,863,345,123,356,
0,51,847,343,122,353,
0,56,838,339,121,350,
0,60,824,336,120,348,
0,59,811,379,120,393,
0,58,797,374,118,389,
0,57,785,371,118,385,
0,57,772,367,116,382,
0,56,761,364,115,379,
0,56,750,360,120,376,
0,56,898,358,120,371,
0,56,891,353,120,368,
0,55,873,351,119,364,
0,59,858,348,118,360,
0,58,844,345,116,399,
0,57,830,352,116,394,
0,57,819,349,115,391,
0,56,807,345,114,387,
0,56,794,343,113,383,
0,56,782,339,112,379,
0,55,891,337,114,376,
0,55,895,334,113,371,
0,54,876,331,113,369,
0,54,861,328,112,366,
0,54,847,326,111,388,
0,53,832,355,110,400,
0,52,819,352,109,396,
0,52,806,348,108,391,
0,51,793,344,108,388,
0,51,782,342,107,385,
0,51,840,338,112,381,
0,50,872,335,111,377,
0,50,857,332,111,374,
0,49,843,329,110,371,
0,49,828,327,108,384,
0,48,816,389,108,391,
0,48,802,385,107,390,
0,48,790,382,106,385,
0,48,777,379,105,382,
0,47,766,375,103,378,
0,47,819,371,114,375,
0,46,870,368,113,371,
0,46,856,364,112,368,
0,55,840,361,111,364,
0,67,830,358,111,361,
0,67,817,358,110,409,
0,67,803,354,108,405,
0,66,792,351,108,401,
0,65,779,348,107,397,
0,65,768,344,106,393,
0,64,755,342,115,390,
0,63,873,339,113,387,
0,63,857,336,113,384,
0,63,844,334,112,380,
0,63,829,331,111,376,
0,63,816,356,110,372,
0,62,802,359,109,369,
0,62,790,356,108,366,
0,61,780,353,108,363,
0,61,769,350,107,359,
0,60,758,347,106,356,
0,60,863,344,120,353,
0,59,847,340,118,350,
0,59,833,337,118,347,
0,59,819,334,116,344,
0,59,806,332,115,381,
0,58,792,329,114,376,
0,57,781,327,113,372,
0,57,769,324,112,369,
0,56,758,321,112,365,
0,56,746,319,111,362,
0,56,860,316,126,359,
0,56,845,313,124,355,
0,55,834,311,124,352,
0,56,820,308,123,349,
0,56,807,306,121,371,
0,55,794,341,121,368,
0,54,782,337,120,364,
0,54,769,334,119,359,
0,54,759,332,118,358,
0,53,747,329,117,354,
0,52,827,326,127,351,
0,52,864,323,126,348,
0,51,849,319,124,344,
0,52,835,318,124,342,
0,51,822,315,123,339,
0,51,808,355,121,382,
0,51,799,352,120,377,
0,50,786,348,120,374,
0,50,774,345,119,370,
0,49,763,342,118,367,
0,49,752,339,121,364,
0,49,866,335,120,359,
0,48,851,332,120,358,
0,48,836,331,118,354,
0,48,823,327,118,351,
0,48,811,348,116,394,
0,47,796,349,115,390,
0,47,783,345,115,385,
0,47,772,342,113,382,
0,46,761,339,113,378,
0,46,752,335,112,375,
0,45,877,333,118,371,
0,45,861,329,117,368,
0,44,846,327,116,364,
0,44,831,323,115,359,
0,44,818,361,114,364,
0,43,804,380,113,361,
0,43,792,377,112,359,
0,43,780,374,111,355,
0,42,768,371,111,352,
0,42,756,367,110,349,
0,42,878,364,114,345,
0,41,862,359,113,343,
0,41,847,356,112,339,
0,44,836,353,111,336,
0,43,823,350,110,382,
0,43,809,355,110,376,
0,42,796,352,108,372,
0,42,783,348,108,369,
0,41,772,345,107,366,
0,41,760,342,106,362,
0,41,856,339,112,359,
0,40,865,336,112,355,
0,39,850,334,111,352,
0,71,836,331,110,350,
0,71,823,327,109,346,
0,70,809,359,108,379,
0,69,796,356,107,375,
0,68,783,353,107,371,
0,68,775,350,105,368,
0,67,764,347,105,364,
0,67,773,344,107,360,
0,66,871,340,106,357,
0,65,856,337,105,353,
0,65,840,334,104,351,
0,64,827,332,103,348,
0,63,814,366,103,390,
0,63,800,363,102,385,
0,63,788,359,102,382,
0,62,775,355,100,377,
0,62,764,352,99,374,
0,62,755,349,103,371,
0,61,858,345,113,367,
0,60,843,343,112,364,
0,60,828,339,112,359,
0,60,815,336,111,357,
0,59,803,361,110,401,
0,59,790,358,109,399,
0,58,777,355,108,395,
0,57,766,352,107,391,
0,57,754,348,106,387,
0,56,743,344,107,384,
0,56,854,342,113,379,
0,56,839,338,112,376,
0,56,824,335,112,372,
0,67,815,332,111,368,
0,67,801,329,110,366,
0,66,788,364,109,362,
0,65,776,360,108,359,
0,64,764,358,107,355,
0,63,753,354,106,352,
0,63,742,352,105,350,
0,63,861,348,120,347,
0,62,855,345,119,344,
0,62,840,342,118,342,
0,68,826,339,116,338,
0,67,812,335,115,344,
0,67,799,364,115,374,
0,66,787,359,114,369,
0,66,778,356,113,366,
0,65,766,353,112,362,
0,64,755,350,112,359,
0,64,798,347,123,355,
0,63,878,344,121,352,
0,63,862,340,120,349,
0,65,847,337,120,347,
0,64,833,335,118,344,
0,63,819,369,118,375,
0,63,806,365,116,371,
0,63,793,361,115,367,
0,62,782,358,115,363,
0,62,769,355,113,359,
0,61,796,352,124,356,
0,61,883,348,123,353,
0,60,867,345,123,350,
0,60,852,342,121,347,
0,61,838,339,120,344,
0,60,824,373,120,374,
0,60,811,368,118,369,
0,59,798,365,118,367,
0,59,785,363,116,363,
0,58,774,359,115,359,
0,57,762,355,115,356,
0,57,880,352,116,352,
0,56,864,349,115,350,
0,56,849,345,115,346,
0,59,834,343,113,343,
0,58,824,342,113,370,
0,57,811,363,112,366,
0,56,798,359,111,363,
0,56,785,355,110,359,
0,56,774,352,109,355,
0,56,762,349,108,352,
0,55,883,345,119,349,
0,55,867,344,118,347,
0,54,852,340,116,344,
0,64,838,337,115,340,
0,63,824,334,115,342,
0,63,811,367,113,348,
0,63,798,363,112,344,
0,62,785,359,112,340,
0,62,775,355,111,337,
0,61,764,352,110,335,
0,61,824,349,119,332,
0,60,892,345,117,329,
0,59,875,343,116,327,
0,71,860,339,115,323,
0,70,845,336,114,342,
0,69,831,364,113,366,
0,68,817,360,112,361,
0,68,804,358,112,358,
0,67,792,354,111,355,
0,67,780,351,110,352,
0,66,817,348,120,348,
0,65,873,344,120,344,
0,65,858,340,119,342,
0,65,847,338,118,339,
0,64,833,335,116,335,
0,63,820,360,115,369,
0,63,807,356,115,365,
0,63,794,353,114,361,
0,62,781,350,113,358,
0,62,769,348,112,355,
0,61,759,344,120,352,
0,60,859,340,120,349,
0,60,844,337,119,345,
0,60,830,335,118,343,
0,65,816,332,117,339,
0,64,803,347,116,369,
0,63,790,354,115,366,
0,63,781,351,114,362,
0,63,769,348,113,359,
0,62,758,344,113,355,
0,61,747,341,112,352,
0,60,875,337,118,348,
0,60,859,335,118,345,
0,60,844,332,116,343,
0,100,830,328,115,339,
0,99,816,344,115,381,
0,98,803,359,113,378,
0,97,791,356,112,374,
0,96,778,352,112,371,
0,96,767,349,111,367,
0,95,755,345,110,364,
0,94,880,343,121,359,
0,93,863,339,121,356,
0,92,852,336,120,353,
0,95,838,334,119,350,
0,94,824,331,118,383,
0,93,811,363,116,385,
0,92,798,359,116,381,
0,92,785,355,115,377,
0,91,774,352,114,374,
0,90,761,350,113,371,
0,89,845,347,120,368,
0,88,880,344,119,364,
0,88,864,340,118,359,
0,88,850,337,116,357,
0,88,835,334,115,354,
0,87,822,332,115,353,
0,86,808,327,114,350,
0,85,799,326,113,347,
0,84,787,323,112,344,
0,84,775,319,112,340,
0,83,763,318,120,337,
0,83,880,315,120,335,
0,82,864,312,118,332,
0,81,849,310,117,329,
0,81,835,307,116,327,
0,80,822,350,115,361,
0,79,807,344,114,358,
0,79,796,342,113,355,
0,79,783,338,112,351,
0,78,771,335,112,348,
0,77,760,332,111,344,
0,76,881,329,122,341,
0,76,864,326,121,338,
0,76,849,323,120,335,
0,75,835,319,120,332,
0,74,822,351,118,377,
0,73,807,353,117,373,
0,73,796,349,116,370,
0,72,783,347,115,366,
0,71,771,344,115,363,
0,71,760,340,113,359,
0,71,880,337,121,355,
0,71,863,334,120,352,
0,70,848,331,120,350,
0,70,834,327,119,347,
0,70,824,325,118,384,
0,69,810,359,117,379,
0,68,798,355,115,376,
0,68,785,352,115,371,
0,67,773,348,114,368,
0,67,761,344,113,364,
0,67,856,342,115,361,
0,66,871,339,115,358,
0,65,856,336,114,355,
0,71,841,334,113,352,
0,71,827,330,112,348,
0,71,813,364,111,371,
0,70,800,359,111,368,
0,70,787,356,109,364,
0,68,779,353,108,359,
0,68,768,350,108,357,
0,67,775,347,111,354,
0,67,871,344,110,351,
0,66,856,340,109,347,
0,71,842,337,108,344,
0,71,828,334,108,342,
0,71,815,366,107,358,
0,70,801,361,105,355,
0,70,788,358,105,351,
0,69,776,355,103,348,
0,68,765,351,103,344,
0,67,755,348,122,342,
0,67,871,344,121,338,
0,67,856,342,120,335,
0,67,844,338,120,332,
0,65,830,335,119,329,
0,65,817,350,118,367,
0,65,803,346,116,363,
0,64,792,343,115,359,
0,63,779,339,115,355,
0,63,768,337,113,353,
0,63,755,334,113,350,
0,62,879,332,120,347,
0,62,863,327,120,344,
0,62,848,326,119,340,
0,61,834,323,118,337,
0,61,820,319,117,387,
0,60,807,356,115,383,
0,60,798,353,115,379,
0,59,785,350,114,375,
0,59,773,346,113,371,
0,59,761,343,112,368,
0,58,870,339,115,364,
0,57,864,337,113,359,
0,57,849,334,112,358,
0,57,835,332,112,355,
0,56,822,327,111,352,
0,56,807,327,110,374,
0,56,796,324,109,370,
0,56,783,321,108,366,
0,55,771,319,108,363,
0,55,760,316,107,359,
0,54,792,313,123,355,
0,54,869,311,121,352,
0,53,854,308,120,350,
0,53,839,306,120,346,
0,52,825,304,119,344,
0,52,812,352,118,390,
0,51,799,348,117,386,
0,51,786,345,116,382,
0,51,774,342,115,379,
0,51,763,339,114,375,
0,50,775,335,116,371,
0,50,867,332,115,368,
0,49,851,329,115,364,
0,49,838,327,114,360,
0,60,827,323,113,358,
0,60,814,358,112,355,
0,59,800,353,112,352,
0,59,788,350,111,348,
0,57,775,347,110,345,
0,57,764,344,109,342,
0,56,753,340,109,339,
0,56,852,337,111,337,
0,56,837,335,110,334,
0,56,824,332,108,332,
0,60,809,327,108,327,
0,59,797,326,107,375,
0,59,783,345,106,369,
0,57,771,342,105,366,
0,57,763,339,104,363,
0,57,752,335,103,359,
0,56,740,332,103,355,
0,56,869,329,113,352,
0,56,852,327,112,349,
0,55,838,323,111,345,
0,55,824,321,110,343,
0,55,810,319,109,352,
0,54,797,348,108,368,
0,54,785,344,107,364,
0,53,772,341,106,361,
0,52,761,338,105,358,
0,52,750,335,104,355,
0,51,884,332,117,351,
0,51,887,328,116,348,
0,51,873,326,115,344,
0,57,859,323,114,342,
0,56,844,319,113,344,
0,56,830,353,112,367,
0,55,817,350,112,363,
0,55,803,347,111,359,
0,54,792,344,110,357,
0,54,779,340,109,353,
0,53,816,337,119,350,
0,53,876,335,118,347,
0,52,861,332,116,344,
0,53,847,328,115,340,
0,56,831,326,115,337,
0,56,819,361,114,374,
0,55,808,358,113,369,
0,55,796,354,112,366,
0,54,783,351,112,362,
0,54,771,348,111,359,
0,53,760,344,120,355,
0,52,879,341,119,352,
0,52,863,338,118,350,
0,52,848,335,117,346,
0,51,834,332,116,344,
0,51,821,332,115,379,
0,51,807,359,114,375,
0,51,795,355,113,371,
0,50,782,352,112,368,
0,50,771,349,111,364,
0,49,761,345,111,359,
0,49,876,343,115,357,
0,48,860,339,115,353,
0,48,845,335,114,351,
0,61,831,333,113,347,
0,60,817,332,112,390,
0,60,804,355,112,387,
0,59,792,353,110,382,
0,58,779,350,110,379,
0,57,768,347,108,375,
0,57,756,344,108,371,
0,57,880,340,112,368,
0,56,864,337,111,364,
0,56,848,334,110,359,
0,65,838,331,109,358,
0,64,824,327,108,362,
0,63,811,352,108,367,
0,63,798,348,107,363,
0,63,785,345,105,359,
0,62,774,342,105,356,
0,62,762,339,103,353,
0,61,831,336,115,351,
0,60,883,333,113,348,
0,60,867,330,112,344,
0,63,852,327,112,342,
0,63,838,324,111,338,
0,62,824,355,110,365,
0,62,811,352,109,361,
0,61,801,348,108,358,
0,60,788,344,108,354,
0,60,776,341,107,351,
0,60,765,338,114,348,
0,59,879,335,113,344,
0,58,863,332,112,341,
0,65,848,329,111,338,
0,64,834,327,110,335,
0,63,821,341,109,368,
0,63,807,342,108,364,
0,63,795,338,108,359,
0,62,782,335,107,356,
0,62,771,332,105,353,
0,62,759,328,108,350,
0,60,861,326,108,346,
0,60,849,323,107,344,
0,60,835,319,106,340,
0,60,822,318,105,337,
0,59,807,344,104,376,
0,59,795,356,103,371,
0,57,783,352,103,368,
0,57,771,349,102,364,
0,56,759,347,101,361,
0,56,748,344,100,358,
0,56,876,340,108,354,
0,56,860,337,107,351,
0,55,846,334,105,348,
0,56,831,331,105,344,
0,56,817,327,103,391,
0,55,807,358,103,391,
0,55,795,355,103,388,
0,55,783,352,102,385,
0,54,771,348,100,381,
0,53,760,344,100,377,
0,53,839,342,111,374,
0,52,851,339,110,371,
0,52,837,335,108,368,
0,60,824,333,108,364,
0,59,809,329,107,360,
0,59,797,359,106,375,
0,58,784,355,105,371,
0,57,772,352,103,367,
0,57,760,348,103,364,
0,56,752,345,103,359,
0,56,745,342,107,356,
0,56,860,339,106,353,
0,56,845,335,105,350,
0,61,831,332,103,347,
0,64,817,329,103,344,
0,63,804,359,103,366,
0,63,792,358,102,363,
0,62,779,353,101,359,
0,62,768,350,100,355,
0,61,755,347,99,352,
0,61,745,344,100,349,
0,60,891,340,109,345,
0,60,875,337,108,343,
0,59,860,334,108,339,
0,59,845,332,107,336,
0,59,831,336,105,376,
0,58,817,333,104,371,
0,57,804,329,103,368,
0,56,792,327,103,365,
0,56,780,324,103,361,
0,56,768,321,102,358,
0,56,876,319,108,355,
0,55,860,316,108,352,
0,55,846,313,107,348,
0,67,831,311,105,344,
0,67,822,308,105,364,
0,66,807,337,103,359,
0,65,795,334,103,356,
0,65,783,331,103,353,
0,65,771,327,102,350,
0,63,760,324,101,347,
0,63,862,322,114,344,
0,63,860,319,113,341,
0,62,846,317,112,338,
0,63,831,314,111,335,
0,63,818,312,110,332,
0,63,805,349,109,380,
0,62,792,345,108,376,
0,62,780,343,107,371,
0,61,771,339,107,368,
0,60,760,335,105,364,
0,60,799,332,117,361,
0,60,880,329,116,358,
0,59,864,327,115,355,
0,60,849,323,114,352,
0,60,835,321,113,348,
0,59,822,355,112,396,
0,59,807,350,111,391,
0,58,796,347,110,387,
0,57,783,344,110,384,
0,57,771,340,108,380,
0,56,785,337,114,376,
0,56,880,334,113,372,
0,56,865,332,112,369,
0,56,854,327,112,366,
0,62,839,326,111,362,
0,62,825,355,110,409,
0,61,812,351,108,404,
0,61,799,347,108,400,
0,60,787,344,107,396,
0,60,775,342,106,393,
0,59,763,339,109,390,
0,59,874,335,122,385,
0,58,858,332,120,382,
0,57,844,329,120,379,
0,58,830,327,119,376,
0,57,816,323,118,394,
0,56,803,320,117,390,
0,56,793,318,116,386,
0,56,782,316,115,382,
0,56,769,312,115,379,
0,55,758,310,113,375,
0,55,880,307,123,371,
0,54,866,304,121,368,
0,54,851,303,120,365,
0,54,837,300,120,362,
0,53,824,299,119,359,
0,53,810,342,118,355,
0,52,797,339,116,352,
0,52,785,335,115,350,
0,51,772,332,115,347,
0,51,761,329,114,344,
0,51,817,326,125,340,
0,50,874,323,124,337,
0,50,859,319,123,335,
0,69,844,318,122,332,
0,67,830,315,120,342,
0,67,817,368,120,377,
0,67,803,363,119,375,
0,66,791,360,118,371,
0,65,779,358,117,368,
0,65,767,353,116,364,
0,64,805,351,120,359,
0,63,867,347,118,357,
0,63,852,344,118,353,
0,63,839,341,116,350,
0,70,828,337,115,348,
0,69,815,368,115,376,
0,68,801,364,114,372,
0,67,788,359,113,368,
0,67,776,356,112,365,
0,67,765,353,111,361,
0,66,753,351,118,359,
0,65,871,348,120,355,
0,65,856,344,118,352,
0,64,841,341,118,349,
0,71,827,338,116,346,
0,70,814,348,115,344,
0,70,800,363,115,342,
0,68,788,359,113,339,
0,68,779,355,113,335,
0,67,768,352,112,332,
0,67,755,349,111,330,
0,66,881,345,127,327,
0,65,864,342,126,324,
0,65,849,339,125,321,
0,65,835,335,124,319,
0,64,822,334,123,348,
0,63,807,369,122,353,
0,63,796,365,121,350,
0,63,783,361,120,347,
0,62,771,359,120,344,
0,62,760,355,119,340,
0,61,877,352,119,337,
0,61,861,348,118,334,
0,60,849,345,117,331,
0,65,835,342,116,327,
0,65,822,339,115,348,
0,63,808,359,115,371,
0,63,796,356,114,368,
0,63,783,352,112,364,
0,62,771,350,112,361,
0,62,760,347,111,358,
0,61,819,344,113,355,
0,61,857,340,112,351,
0,60,843,337,111,348,
0,60,829,335,111,345,
0,60,816,332,110,342,
0,59,803,371,109,380,
0,59,792,368,108,376,
0,58,780,364,107,371,
0,57,768,359,107,368,
0,57,757,356,105,364,
0,56,756,353,123,360,
0,56,898,350,121,358,
0,56,887,347,120,355,
0,55,870,344,120,352,
0,55,856,342,118,348,
0,54,841,358,118,393,
0,54,827,371,116,388,
0,54,814,368,115,384,
0,53,801,364,115,380,
0,52,789,359,113,377,
0,52,780,356,113,374,
0,51,887,353,115,369,
0,51,870,350,115,366,
0,51,855,347,114,363,
0,60,840,344,113,359,
0,60,827,355,112,359,
0,59,814,380,112,358,
0,59,799,376,111,354,
0,58,788,372,110,351,
0,57,775,369,108,348,
0,57,764,366,108,344,
0,56,880,362,116,342,
0,56,864,359,115,339,
0,56,849,355,115,335,
0,56,838,352,114,332,
0,55,824,349,113,367,
0,55,811,348,112,376,
0,54,798,344,111,371,
0,54,785,341,110,368,
0,53,774,338,110,364,
0,52,761,335,108,361,
0,52,865,333,117,358,
0,51,903,330,116,355,
0,51,892,327,115,352,
0,57,875,324,114,348,
0,57,860,322,113,345,
0,57,845,358,112,377,
0,56,831,353,112,374,
0,56,821,350,111,369,
0,55,807,347,110,366,
0,55,796,344,109,363,
0,54,789,340,120,359,
0,54,896,337,120,355,
0,54,879,334,119,352,
0,56,864,332,117,349,
0,55,848,329,116,347,
0,55,835,370,115,387,
0,54,821,366,115,384,
0,54,807,361,113,380,
0,53,795,358,113,376,
0,53,783,355,112,371,
0,52,771,352,120,368,
0,51,879,348,120,365,
0,51,867,345,118,361,
0,51,852,342,117,358,
0,64,838,339,116,355,
0,63,824,366,115,399,
0,63,811,372,115,395,
0,63,798,368,113,391,
0,62,785,365,112,388,
0,62,774,362,112,384,
0,61,762,359,112,380,
0,60,888,355,129,376,
0,60,871,352,128,373,
0,60,856,349,127,369,
0,63,841,345,126,366,
0,63,828,343,125,385,
0,62,817,363,124,380,
0,61,804,359,124,376,
0,61,792,356,122,373,
0,60,780,353,121,369,
0,60,768,350,120,366,
0,59,855,346,124,363,
0,59,851,343,122,359,
0,58,837,340,121,356,
0,74,824,337,120,353,
0,73,809,335,120,351,
0,72,797,362,119,368,
0,71,783,359,118,364,
0,71,772,355,116,359,
0,71,760,352,115,357,
0,71,752,348,115,354,
0,70,764,345,126,351,
0,69,860,342,124,348,
0,68,844,339,124,344,
0,70,830,335,123,342,
0,69,816,332,121,338,
0,68,803,348,120,379,
0,67,791,346,120,376,
0,67,779,343,119,371,
0,66,767,339,118,368,
0,66,755,336,116,364,
0,65,763,334,124,360,
0,65,873,331,123,358,
0,64,857,327,121,354,
0,63,847,324,121,351,
0,63,831,322,120,348,
0,63,819,368,119,391,
0,62,806,364,118,387,
0,62,792,359,117,384,
0,61,780,356,116,380,
0,60,769,353,115,376,
0,60,758,351,115,374,
0,60,878,347,119,370,
0,60,862,344,118,367,
0,59,847,340,116,363,
0,60,833,337,115,359,
0,59,819,335,115,385,
0,59,806,369,114,381,
0,57,793,366,113,377,
0,57,783,363,112,374,
0,57,772,359,112,370,
0,57,760,356,111,367,
0,56,885,352,121,363,
0,56,882,349,120,359,
0,56,866,346,120,356,
0,62,851,344,119,353,
0,62,836,340,118,355,
0,61,823,364,116,387,
0,60,809,359,115,383,
0,60,797,357,115,379,
0,60,784,353,113,376,
0,59,772,351,113,371,
0,59,878,347,114,368,
0,57,880,344,113,364,
0,57,864,340,112,361,
0,57,850,337,112,358,
0,56,835,335,111,355,
0,56,822,351,110,353,
0,56,808,348,109,351,
0,55,796,344,108,348,
0,55,783,342,108,344,
0,54,771,339,107,342,
0,54,799,335,111,339,
0,54,876,332,110,335,
0,53,860,329,109,333,
0,52,846,327,108,330,
0,52,831,324,107,327,
0,51,822,368,107,368,
0,51,808,364,105,364,
0,51,796,359,104,361,
0,50,783,356,103,358,
0,50,771,353,103,354,
0,49,760,350,104,351,
0,49,876,347,106,348,
0,48,860,344,105,345,
0,48,846,341,103,342,
0,50,831,337,103,339,
0,50,819,340,103,371,
0,49,806,366,102,367,
0,49,793,362,102,364,
0,48,780,359,100,359,
0,48,772,355,99,356,
0,48,760,352,99,353,
0,48,871,349,113,351,
0,47,856,346,112,348,
0,47,840,343,111,344,
0,62,826,339,110,341,
0,61,813,337,109,366,
0,60,799,372,108,382,
0,60,787,369,108,378,
0,59,775,366,107,375,
0,59,766,361,105,371,
0,58,755,359,105,367,
0,57,812,355,124,364,
0,57,846,352,123,359,
0,56,831,348,121,356,
0,56,818,345,120,353,
0,56,805,344,120,352,
0,56,792,369,119,379,
0,55,780,366,118,376,
0,55,768,361,116,371,
0,54,756,359,115,368,
0,54,745,355,115,364,
0,53,801,352,118,360,
0,52,854,348,116,357,
0,52,843,345,115,354,
0,54,829,342,115,351,
0,58,816,339,114,348,
0,57,803,396,113,377,
0,57,790,391,112,374,
0,56,777,387,111,370,
0,56,766,384,111,368,
0,56,754,381,110,364,
0,56,743,377,121,359,
0,55,867,374,120,357,
0,55,851,370,119,353,
0,54,838,367,118,351,
0,76,824,363,116,348,
0,75,810,359,115,362,
0,74,799,358,115,359,
0,73,787,354,114,355,
0,72,775,351,113,352,
0,71,764,348,112,348,
0,71,752,344,112,344,
0,71,891,342,116,342,
0,70,878,339,115,339,
0,70,862,336,114,336,
0,69,847,334,113,334,
0,68,833,331,113,375,
0,67,820,361,112,372,
0,67,807,359,111,369,
0,67,795,355,110,366,
0,66,782,352,109,361,
0,66,773,348,108,359,
0,65,860,345,118,355,
0,65,873,342,118,352,
0,63,857,339,116,348,
0,78,844,335,115,345,
0,77,830,333,114,385,
0,76,816,355,113,391,
0,75,803,352,112,388,
0,75,790,349,112,385,
0,74,778,345,110,381,
0,73,766,343,110,377,
0,73,831,339,121,374,
0,71,859,336,120,370,
0,71,844,333,120,367,
0,71,833,331,119,364,
0,71,819,327,118,359,
0,71,807,358,116,403,
0,70,793,353,115,399,
0,69,781,351,115,395,
0,68,769,348,114,391,
0,68,758,344,113,387,
0,67,760,342,122,384,
0,67,889,339,120,380,
0,66,872,335,120,377,
0,66,857,332,119,374,
0,68,843,329,118,370,
0,67,830,359,117,369,
0,67,816,356,116,366,
0,66,803,352,115,363,
0,65,793,349,114,359,
0,65,781,345,113,355,
0,65,769,344,113,353,
0,63,884,339,125,350,
0,63,868,336,124,347,
0,63,853,334,123,344,
0,70,839,331,121,341,
0,70,825,327,120,358,
0,68,812,359,120,353,
0,68,799,355,119,351,
0,67,787,352,118,347,
0,67,775,349,117,344,
0,67,763,345,116,340,
0,66,868,343,125,337,
0,65,856,339,124,335,
0,65,841,336,123,332,
0,70,828,334,122,329,
0,69,814,331,120,380,
0,68,801,361,120,376,
0,68,788,358,119,371,
0,67,775,354,118,369,
0,67,764,352,117,365,
0,66,753,348,116,361,
0,65,860,345,120,358,
0,65,873,342,119,355,
0,64,858,339,118,352,
0,65,844,335,116,348,
0,64,829,332,116,345,
0,63,819,376,115,400,
0,63,806,371,114,396,
0,63,793,368,113,391,
0,62,781,364,112,388,
0,62,769,361,112,385,
0,61,774,358,120,381,
0,60,868,355,119,378,
0,60,854,352,118,375,
0,71,839,348,117,371,
0,71,825,345,116,368,
0,71,812,382,115,368,
0,70,799,377,114,364,
0,70,786,373,113,361,
0,69,775,369,112,358,
0,68,766,366,112,355,
0,67,755,363,113,352,
0,67,897,359,120,348,
0,67,892,355,119,345,
0,66,873,352,118,342,
0,73,859,350,116,339,
0,72,844,364,115,379,
0,71,830,361,115,376,
0,71,817,358,113,371,
0,71,803,355,112,368,
0,70,792,351,112,364,
0,70,780,348,113,361,
0,69,890,344,127,358,
0,68,873,342,127,354,
0,67,862,339,126,351,
0,67,847,335,125,348,
0,67,833,332,124,388,
0,67,819,344,123,384,
0,66,807,342,122,380,
0,65,793,338,121,376,
0,65,782,335,120,372,
0,64,770,332,119,369,
0,63,867,329,125,366,
0,63,850,327,124,363,
0,63,835,324,123,359,
0,63,822,321,122,355,
0,63,808,319,121,359,
0,63,796,352,120,395,
0,62,783,348,120,391,
0,61,774,344,119,387,
0,61,763,341,118,383,
0,60,751,338,117,379,
0,60,783,335,126,376,
0,59,856,332,124,371,
0,59,841,329,124,368,
0,73,827,326,122,366,
0,72,814,323,121,362,
0,71,799,369,120,364,
0,71,787,364,120,359,
0,71,775,361,119,357,
0,70,764,358,118,353,
0,70,752,354,116,351,
0,69,755,352,127,348,
0,68,815,348,127,344,
0,67,801,344,126,341,
0,67,788,342,124,338,
0,67,775,338,124,335,
0,66,764,357,123,361,
0,65,752,353,121,358,
0,65,740,350,121,355,
0,64,730,347,120,352,
0,63,719,344,119,348,
0,63,711,341,120,345,
0,63,877,337,121,343,
0,62,861,335,120,339,
0,74,847,332,120,335,
0,126,831,329,118,333,
0,124,819,327,118,376,
0,124,806,344,116,371,
0,121,793,342,115,368,
0,120,780,337,115,364,
0,120,769,334,113,359,
0,119,757,331,115,356,
0,118,747,327,120,353,
0,116,733,325,120,350,
0,115,723,323,119,347,
0,115,713,319,118,344,
0,114,704,354,117,396,
0,113,694,350,115,391,
0,112,685,345,115,387,
0,111,676,343,114,383,
0,110,668,339,113,379,
0,109,700,335,114,376,
0,108,850,332,113,371,
0,108,831,329,112,368,
0,107,818,327,111,365,
0,106,804,324,110,361,
0,105,792,321,109,408,
0,103,780,319,108,404,
0,103,768,316,108,399,
0,103,756,312,107,395,
0,102,745,311,106,391,
0,100,752,307,113,387,
0,100,781,305,112,384,
0,99,768,303,111,380,
0,99,756,300,110,376,
0,98,745,298,109,374,
0,97,734,340,108,384,
0,96,723,337,107,379,
0,96,713,335,106,376,
0,95,704,332,105,372,
0,94,695,328,104,369,
0,94,768,326,111,366,
0,93,896,323,110,363,
0,92,880,319,109,359,
0,92,865,317,108,355,
0,91,851,314,108,352,
0,91,839,348,107,350,
0,89,826,344,105,347,
0,89,812,340,104,344,
0,88,799,337,103,340,
0,88,787,334,103,337,
0,87,775,332,107,335,
0,87,897,327,107,332,
0,86,889,326,105,329,
0,86,871,323,104,327,
0,85,857,319,103,324,
0,84,844,326,103,387,
0,83,828,352,102,382,
0,83,816,349,102,377,
0,82,803,345,101,374,
0,82,793,343,100,370,
0,81,781,339,99,367,
0,80,852,335,108,363,
0,79,837,333,107,359,
0,79,823,331,106,358,
0,79,809,327,105,354,
0,78,796,325,104,382,
0,78,783,350,103,392,
0,77,772,345,103,388,
0,77,760,343,102,385,
0,76,750,339,101,381,
0,76,739,336,100,377,
0,75,833,334,110,374,
0,75,891,331,109,370,
0,73,873,327,108,367,
0,98,859,324,107,364,
0,97,844,322,106,361,
0,96,830,355,105,369,
0,95,816,352,103,367,
0,94,803,348,103,363,
0,94,792,345,103,359,
0,93,779,342,102,356,
0,92,787,339,118,353,
0,92,802,335,116,350,
0,91,788,332,115,347,
0,91,776,329,114,344,
0,91,768,327,113,340,
0,90,756,345,112,373,
0,89,745,342,112,369,
0,88,735,338,111,366,
0,88,724,335,110,361,
0,88,714,332,109,359,
0,87,705,329,118,356,
0,86,862,327,116,352,
0,85,847,323,115,349,
0,84,831,320,115,346,
0,86,818,318,113,343,
0,85,806,344,112,359,
0,84,792,353,112,355,
0,83,780,349,111,352,
0,83,771,345,110,349,
0,83,760,343,110,345,
0,81,748,339,108,343,
0,81,895,335,114,339,
0,80,906,333,113,336,
0,79,896,330,112,334,
0,79,876,327,111,331,
0,79,862,326,111,376,
0,78,847,358,109,372,
0,77,833,353,108,368,
0,77,819,350,108,366,
0,76,807,347,107,361,
0,76,794,344,107,359,
0,75,881,340,115,355,
0,75,868,337,115,352,
0,74,853,334,113,348,
0,73,839,331,112,345,
0,72,824,327,112,359,
0,71,812,345,111,355,
0,71,799,342,110,352,
0,71,786,338,109,348,
0,71,775,335,108,345,
0,70,763,333,107,343,
0,70,839,330,115,339,
0,70,856,327,113,335,
0,69,841,324,113,333,
0,68,828,321,112,331,
0,67,815,318,111,327,
0,67,801,351,111,342,
0,67,792,348,110,338,
0,67,780,344,108,335,
0,66,768,340,108,332,
0,65,756,337,107,327,
0,65,779,335,113,326,
0,64,899,332,112,323,
0,63,886,329,111,321,
0,63,869,326,111,318,
0,63,855,323,110,316,
0,63,840,355,108,356,
0,63,827,352,108,353,
0,62,813,348,107,350,
0,62,799,344,106,346,
0,61,788,342,105,343,
0,60,779,338,104,339,
0,60,896,335,106,336,
0,60,900,332,105,334,
0,60,881,329,104,330,
0,59,866,326,103,327,
0,59,851,371,103,381,
0,58,837,380,102,377,
0,57,824,377,102,374,
0,56,811,373,100,370,
0,56,798,369,100,367,
0,56,785,366,99,364,
0,56,888,363,108,359,
0,56,876,359,107,356,
0,56,860,356,107,353,
0,60,846,353,105,350,
0,59,831,350,104,401,
0,59,818,347,103,396,
0,58,805,344,103,391,
0,57,792,342,102,388,
0,57,780,338,101,385,
0,56,768,335,100,381,
0,56,847,332,105,377,
0,56,839,329,105,374,
0,55,825,327,103,370,
0,55,812,324,103,367,
0,54,799,321,103,364,
0,54,790,351,102,370,
0,54,777,348,101,366,
0,53,765,344,100,363,
0,52,753,340,99,359,
0,52,743,338,99,357,
0,52,732,335,110,353,
0,51,775,332,108,351,
0,51,763,329,108,348,
0,51,752,327,107,344,
0,51,743,323,106,342,
0,50,732,337,105,380,
0,49,721,334,104,376,
0,49,711,331,103,373,
0,49,702,327,103,369,
0,48,693,324,102,366,
0,48,684,321,103,363,
0,48,801,319,103,359,
0,48,787,317,103,356,
0,47,775,314,102,353,
0,47,763,312,102,350,
0,47,752,309,100,400,
0,46,739,307,99,396,
0,46,732,304,99,391,
0,46,721,302,99,388,
0,45,711,300,97,385,
0,51,701,297,97,382,
0,50,807,295,102,377,
0,49,848,294,101,374,
0,49,834,291,100,371,
0,49,820,289,99,368,
0,48,807,287,98,364,
0,48,795,340,97,376,
0,48,785,336,97,372,
0,47,773,333,96,369,
0,47,761,331,96,366,
0,47,755,327,95,363,
0,46,782,325,95,359,
0,46,896,322,103,356,
0,46,883,319,103,353,
0,58,867,316,102,350,
0,92,852,313,101,347,
0,91,838,312,100,385,
0,89,824,349,99,381,
0,89,811,345,99,376,
0,88,801,342,98,374,
0,88,789,339,97,371,
0,87,777,336,96,367,
0,86,765,334,109,364,
0,86,754,331,108,359,
0,84,743,327,107,356,
0,83,733,324,107,353,
0,83,725,321,105,350,
0,83,715,323,104,386,
0,82,705,320,103,382,
0,81,696,318,103,378,
0,81,687,315,102,375,
0,79,678,312,102,371,
0,79,875,310,114,368,
0,79,905,307,113,364,
0,78,903,305,112,360,
0,78,882,303,111,358,
0,77,867,300,110,355,
0,76,852,358,109,404,
0,76,838,353,108,399,
0,75,824,350,108,396,
0,74,815,346,107,391,
0,73,801,343,105,387,
0,73,790,339,110,384,
0,72,777,336,112,380,
0,71,766,334,111,377,
0,71,755,331,110,374,
0,71,743,327,108,371,
0,71,734,326,108,403,
0,70,723,344,107,398,
0,70,713,341,106,395,
0,69,704,337,105,391,
0,68,695,335,103,387,
0,67,685,332,104,384,
0,67,757,328,112,379,
0,67,748,326,111,376,
0,66,736,323,110,371,
0,111,723,319,109,368,
0,110,712,327,108,396,
0,109,702,359,107,391,
0,108,692,355,106,388,
0,107,683,352,105,384,
0,105,674,349,103,380,
0,104,665,345,103,376,
0,103,892,342,106,372,
0,103,907,339,105,368,
0,102,908,335,103,366,
0,101,883,332,103,361,
0,100,867,359,103,384,
0,99,852,355,102,380,
0,99,842,352,101,376,
0,97,828,348,100,372,
0,97,815,345,99,368,
0,96,802,342,99,366,
0,96,899,339,103,362,
0,95,909,335,103,359,
0,95,912,333,103,355,
0,94,910,331,102,352,
0,93,886,329,101,408,
0,92,873,408,100,403,
0,92,859,403,99,399,
0,91,844,399,99,396,
0,90,831,396,98,391,
0,89,817,392,97,387,
0,89,835,389,103,384,
0,88,899,385,103,380,
0,88,881,382,103,376,
0,87,866,379,102,374,
0,86,851,375,100,370,
0,86,837,371,100,380,
0,84,824,368,99,378,
0,84,810,366,99,375,
0,83,798,362,97,371,
0,83,788,359,97,367,
0,83,777,356,110,364,
0,82,765,353,111,361,
0,81,754,351,110,358,
0,80,743,348,109,355,
0,80,733,345,108,352,
0,79,723,356,108,388,
0,79,713,353,107,384,
0,78,704,350,105,380,
0,78,695,347,105,376,
0,77,688,344,103,373,
0,103,676,340,106,369,
0,103,881,337,108,366,
0,102,904,335,108,363,
0,101,898,332,107,359,
0,100,877,328,105,355,
0,99,863,327,104,406,
0,98,847,323,103,401,
0,97,833,321,103,397,
0,97,820,318,103,393,
0,96,807,316,102,390,
0,95,795,313,101,385,
0,94,856,311,103,382,
0,94,839,307,102,378,
0,93,826,305,102,375,
0,92,812,303,100,371,
0,91,799,301,99,406,
0,91,787,326,99,415,
0,90,775,323,98,411,
0,89,767,319,97,407,
0,88,755,317,97,403,
0,88,743,315,96,399,
0,88,816,312,96,396,
0,87,859,310,96,391,
0,86,844,307,95,388,
0,86,830,305,95,385,
0,85,816,302,94,382,
0,84,803,344,93,415,
0,83,793,339,93,411,
0,83,780,336,92,408,
0,83,769,334,92,403,
0,82,847,331,91,399,
0,81,836,327,91,396,
0,81,823,325,102,391,
0,79,809,323,102,389,
0,79,796,319,100,385,
0,79,783,317,99,382,
0,79,771,315,99,379,
0,78,763,342,98,375,
0,78,752,339,97,372,
0,76,740,336,96,368,
0,76,729,333,96,366,
0,92,723,330,95,362,
0,131,712,327,103,359,
0,129,703,324,103,355,
0,127,691,321,103,352,
0,134,683,319,102,350,
0,191,673,316,101,347,
0,189,665,366,100,377,
0,187,657,362,99,373,
0,185,648,359,98,369,
0,184,641,355,97,366,
0,182,633,352,97,363,
0,180,626,349,107,359,
0,179,748,345,106,355,
0,177,736,342,105,352,
0,176,725,339,103,349,
0,175,714,415,103,345,
0,173,704,480,103,384,
0,172,694,473,102,380,
0,171,684,468,101,376,
0,169,675,463,100,372,
0,167,754,459,99,368,
0,167,873,455,103,365,
0,165,907,449,101,361,
0,163,908,446,100,358,
0,293,887,441,99,355,
0,292,870,437,99,352,
0,289,856,433,98,388,
0,286,841,428,97,384,
0,284,828,424,96,380,
0,281,818,421,96,376,
0,279,805,417,96,373,
0,276,880,414,98,369,
0,274,905,409,97,366,
0,271,903,407,96,363,
0,269,881,403,95,359,
0,267,866,399,95,356,
0,265,851,396,94,380,
0,263,838,393,93,376,
0,261,824,390,92,372,
0,259,811,387,92,368,
0,257,851,384,91,365,
0,255,839,380,100,361,
0,253,824,376,99,358,
0,251,811,374,98,355,
0,249,798,371,97,352,
0,248,789,368,96,348,
0,245,777,364,96,396,
0,243,765,361,95,391,
0,241,754,359,94,387,
0,240,743,355,93,385,
0,238,733,353,93,382,
0,236,723,350,92,377,
0,235,898,348,95,374,
0,233,909,345,94,371,
0,231,912,343,93,367,
0,230,912,339,92,364,
0,228,891,356,92,415,
0,227,873,352,91,411,
0,225,859,349,90,406,
0,224,844,345,89,402,
0,222,834,343,89,398,
0,220,821,339,88,394,
0,219,896,337,94,391,
0,217,908,334,93,387,
0,216,913,332,92,384,
0,214,915,328,92,380,
0,212,910,327,91,377,
0,211,883,366,90,415,
0,209,868,362,89,411,
0,207,854,359,89,406,
0,207,869,355,88,402,
0,205,905,352,88,398,
0,204,910,348,89,394,
0,203,914,345,88,391,
0,201,916,342,88,387,
0,199,919,339,88,384,
0,199,920,335,87,380,
0,197,920,333,86,414,
0,195,908,329,85,411,
0,194,880,327,84,406,
0,193,864,324,84,402,
0,192,903,323,83,398,
0,191,911,319,93,394,
0,190,911,318,92,391,
0,188,893,315,92,387,
0,187,874,312,91,384,
0,185,860,311,90,380,
0,184,846,411,90,376,
0,183,835,404,89,373,
0,182,823,399,88,369,
0,180,809,396,88,366,
0,179,798,392,87,363,
0,178,785,388,91,359,
0,177,870,385,99,358,
0,176,854,382,97,354,
0,175,839,379,97,351,
0,174,825,376,96,348,
0,173,812,372,95,393,
0,172,799,368,95,389,
0,171,787,365,94,385,
0,169,775,362,93,382,
0,167,896,359,92,377,
0,167,895,355,92,374,
0,166,899,352,97,371,
0,165,909,350,96,367,
0,164,911,347,96,364,
0,163,908,358,95,361,
0,161,882,354,94,376,
0,160,867,355,93,393,
0,159,852,352,93,389,
0,159,839,349,92,385,
0,158,903,345,91,382,
0,157,896,342,91,377,
0,156,878,339,99,374,
0,155,863,336,98,371,
0,154,847,334,97,367,
0,153,838,331,96,364,
0,152,824,327,96,370,
0,151,812,415,95,396,
0,150,799,409,94,391,
0,149,787,406,93,390,
0,148,775,401,93,386,
0,166,827,398,92,382,
0,172,812,395,96,379,
0,172,799,391,95,375,
0,169,786,387,95,371,
0,167,774,384,94,368,
0,167,763,380,93,364,
0,166,752,467,92,411,
0,206,891,462,92,406,
0,271,888,455,91,401,
0,268,874,451,90,398,
0,266,859,448,89,393,
0,263,845,443,97,390,
0,261,831,439,97,386,
0,259,817,434,96,384,
0,256,804,430,96,380,
0,255,792,427,95,376,
0,254,780,423,94,423,
0,251,768,419,94,418,
0,249,757,415,92,414,
0,247,745,412,92,409,
0,245,736,408,91,406,
0,243,726,404,91,401,
0,241,895,399,91,398,
0,239,905,396,89,393,
0,237,911,393,89,390,
0,235,915,390,88,387,
0,233,916,425,88,423,
0,231,908,451,87,419,
0,230,881,447,86,415,
0,228,865,443,86,411,
0,227,851,439,85,408,
0,225,900,435,84,403,
0,224,909,431,88,399,
0,222,913,426,88,395,
0,220,916,422,87,391,
0,219,919,419,86,387,
0,217,918,415,86,407,
0,216,910,463,84,412,
0,214,880,457,84,407,
0,212,865,452,83,403,
0,211,851,448,83,399,
0,291,838,444,82,396,
0,295,824,440,94,391,
0,293,898,435,93,388,
0,291,908,432,92,384,
0,287,913,428,92,381,
0,286,916,423,91,377,
0,284,917,419,90,422,
0,280,909,415,89,418,
0,279,881,412,88,414,
0,275,866,408,88,409,
0,274,856,404,88,405,
0,271,841,400,96,401,
0,270,894,397,95,398,
0,268,907,393,94,393,
0,265,903,391,93,391,
0,263,881,387,92,387,
0,262,866,384,92,412,
0,259,851,382,91,408,
0,257,838,378,90,403,
0,255,870,376,89,399,
0,314,905,371,89,396,
0,349,911,369,93,391,
0,345,915,366,92,387,
0,342,915,363,92,384,
0,338,911,359,91,380,
0,335,886,356,90,377,
0,332,880,486,89,403,
0,329,903,494,88,399,
0,327,893,487,88,396,
0,323,875,483,88,391,
0,321,860,478,87,387,
0,318,846,474,86,384,
0,316,831,470,91,380,
0,313,879,464,90,376,
0,311,863,460,89,374,
0,308,848,455,88,369,
0,306,834,451,88,409,
0,304,821,447,88,403,
0,301,807,443,87,399,
0,299,799,439,86,396,
0,296,787,435,86,391,
0,294,775,431,84,388,
0,291,768,427,90,384,
0,289,880,423,89,382,
0,287,891,419,88,377,
0,285,907,415,88,375,
0,284,903,412,87,371,
0,281,881,480,87,428,
0,280,866,475,86,423,
0,276,851,470,85,419,
0,275,838,464,84,414,
0,273,902,460,83,409,
0,271,910,455,83,406,
0,268,911,451,83,401,
0,267,902,446,83,398,
0,264,878,441,82,395,
0,263,863,438,81,391,
0,262,849,433,80,433,
0,259,835,430,79,428,
0,257,822,425,79,423,
0,255,808,423,79,419,
0,254,796,419,78,415,
0,252,784,415,87,411,
0,251,897,412,86,407,
0,248,888,408,86,403,
0,247,871,404,84,399,
0,245,856,441,84,396,
0,243,846,451,83,428,
0,241,831,446,83,423,
0,240,819,441,82,419,
0,238,806,437,81,415,
0,236,792,432,81,412,
0,235,781,428,80,408,
0,233,864,423,89,403,
0,231,849,422,89,399,
0,230,835,417,88,396,
0,228,821,415,88,391,
0,227,807,411,87,409,
0,225,795,411,86,404,
0,224,783,407,86,399,
0,223,771,403,84,396,
0,221,847,399,84,391,
0,220,839,396,83,388,
0,218,875,391,89,384,
0,216,870,390,88,382,
0,215,854,385,88,379,
0,214,840,384,87,376,
0,212,902,380,86,376,
0,211,903,425,85,419,
0,210,883,420,84,414,
0,208,867,415,83,410,
0,207,853,412,83,406,
0,206,888,408,83,402,
0,204,906,404,105,398,
0,203,911,400,103,394,
0,201,915,397,103,391,
0,199,918,393,102,387,
0,199,918,388,102,384,
0,198,908,431,100,412,
0,196,880,426,99,408,
0,195,865,422,99,403,
0,193,851,417,98,399,
0,192,838,414,97,396,
0,192,867,411,103,391,
0,190,860,406,103,387,
0,188,845,401,102,384,
0,188,831,398,101,380,
0,186,818,395,100,391,
0,190,806,419,99,390,
0,188,793,414,99,385,
0,187,781,410,98,382,
0,185,769,406,97,378,
0,184,759,402,96,376,
0,183,748,398,98,372,
0,182,737,395,97,368,
0,181,728,391,97,366,
0,240,850,388,96,362,
0,272,835,384,95,359,
0,270,821,382,94,396,
0,267,807,378,94,391,
0,264,795,375,93,388,
0,263,783,371,92,384,
0,260,774,368,92,380,
0,258,762,366,99,377,
0,255,899,363,99,374,
0,254,907,359,97,370,
0,252,893,357,96,368,
0,249,875,354,96,364,
0,248,860,352,95,385,
0,246,846,349,94,381,
0,243,831,347,94,377,
0,242,818,344,93,374,
0,240,806,341,92,369,
0,238,793,339,108,367,
0,236,900,335,107,363,
0,235,909,334,105,359,
0,232,913,331,104,356,
0,231,916,327,103,352,
0,229,918,367,103,403,
0,227,910,364,102,399,
0,225,882,359,101,395,
0,224,863,356,100,391,
0,222,849,353,99,387,
0,220,835,350,103,384,
0,219,822,347,103,380,
0,217,809,344,103,376,
0,216,797,340,102,373,
0,215,785,337,100,369,
0,212,774,391,100,408,
0,210,762,387,99,403,
0,209,751,384,98,399,
0,207,740,380,97,396,
0,207,730,377,97,391,
0,205,720,374,99,388,
0,204,711,370,99,384,
0,201,701,367,97,380,
0,200,691,364,97,377,
0,199,683,359,96,374,
0,198,675,521,96,406,
0,201,668,513,95,401,
0,199,659,507,94,397,
0,199,652,502,94,393,
0,197,643,496,93,390,
0,195,636,492,97,387,
0,194,771,486,100,382,
0,193,891,481,99,379,
0,205,907,476,99,376,
0,203,910,472,98,372,
0,201,894,468,97,384,
0,199,875,463,96,380,
0,199,860,460,96,376,
0,197,846,455,95,372,
0,195,831,451,94,368,
0,194,819,447,94,365,
0,192,897,443,96,361,
0,191,904,439,96,359,
0,190,893,434,95,355,
0,188,874,431,94,352,
0,187,860,427,93,404,
0,185,845,423,92,401,
0,184,831,419,92,396,
0,183,818,415,91,392,
0,182,805,413,90,389,
0,181,793,409,89,385,
0,179,781,406,100,382,
0,179,769,402,99,377,
0,177,758,399,99,374,
0,176,747,396,98,371,
0,175,736,391,97,368,
0,174,727,443,96,364,
0,173,716,438,96,360,
0,172,707,433,95,358,
0,171,700,429,94,354,
0,169,691,424,94,352,
0,168,792,420,103,348,
0,167,893,416,102,344,
0,166,871,412,101,342,
0,166,856,409,100,339,
0,164,842,404,99,358,
0,163,828,487,98,381,
0,162,815,481,97,377,
0,161,802,476,97,374,
0,159,792,471,96,369,
0,159,792,465,96,366,
0,158,825,461,108,363,
0,157,903,456,107,359,
0,156,907,452,106,355,
0,155,887,448,105,352,
0,154,870,444,103,350,
0,153,856,440,103,377,
0,152,841,435,103,374,
0,151,828,431,102,370,
0,150,815,426,101,366,
0,190,902,423,100,363,
0,188,907,418,109,359,
0,186,911,415,108,355,
0,185,914,411,107,352,
0,184,903,408,106,349,
0,182,879,403,105,387,
0,180,864,399,103,383,
0,179,849,396,103,379,
0,177,835,393,103,376,
0,176,823,389,102,371,
0,174,861,385,101,367,
0,172,904,383,112,364,
0,172,911,380,111,359,
0,170,915,376,110,356,
0,169,914,374,108,353,
0,167,891,370,108,391,
0,167,872,367,107,387,
0,165,901,364,106,383,
0,163,886,361,104,379,
0,162,870,358,103,374,
0,161,856,355,103,371,
0,159,841,352,105,367,
0,159,828,350,103,364,
0,158,812,347,103,359,
0,156,799,344,102,356,
0,155,787,485,102,405,
0,154,775,483,100,400,
0,152,764,477,100,396,
0,152,831,471,99,392,
0,230,903,467,98,388,
0,227,909,462,102,385,
0,224,901,457,101,381,
0,222,879,451,100,376,
0,220,864,448,99,374,
0,219,849,443,99,371,
0,216,835,439,98,371,
0,216,822,435,97,368,
0,214,809,432,96,364,
0,211,796,428,96,361,
0,210,784,423,95,358,
0,208,772,419,110,355,
0,207,769,415,109,352,
0,205,758,412,108,348,
0,203,748,408,107,345,
0,201,737,404,106,342,
0,199,728,400,105,384,
0,199,717,397,103,380,
0,197,707,393,103,376,
0,195,697,391,103,372,
0,194,687,387,102,369,
0,233,784,384,113,366,
0,231,899,380,112,362,
0,228,885,377,111,359,
0,225,868,374,111,355,
0,224,854,371,110,352,
0,222,839,457,108,390,
0,220,826,452,108,385,
0,218,813,448,107,382,
0,216,797,443,106,377,
0,215,785,439,105,374,
0,213,773,435,114,371,
0,211,761,430,113,367,
0,209,751,426,112,364,
0,207,739,422,111,359,
0,206,729,417,110,409,
0,204,719,413,109,404,
0,203,710,409,108,399,
0,201,700,406,108,396,
0,199,688,402,107,391,
0,198,679,399,105,388,
0,196,671,395,112,384,
0,195,663,391,112,380,
0,193,655,387,110,377,
0,192,647,384,110,374,
0,191,639,380,109,407,
0,189,631,377,108,401,
0,188,624,374,107,398,
0,186,615,371,106,393,
0,184,608,368,105,390,
0,184,600,364,103,386,
0,182,679,362,103,383,
0,181,882,359,103,379,
0,179,865,355,103,376,
0,178,850,353,102,371,
0,177,836,350,101,393,
0,176,822,347,100,389,
0,174,808,344,99,385,
0,173,796,342,99,381,
0,172,873,339,98,379,
0,171,858,335,99,375,
0,169,899,333,105,371,
0,167,899,331,104,367,
0,167,880,327,103,363,
0,166,865,326,103,359,
0,164,851,345,102,402,
0,163,833,342,102,398,
0,163,819,339,100,393,
0,161,807,335,99,390,
0,160,794,332,99,386,
0,159,833,329,103,383,
0,158,903,327,103,379,
0,157,910,323,103,376,
0,156,910,321,102,371,
0,201,889,482,101,368,
0,199,872,477,100,403,
0,198,857,472,99,399,
0,195,843,467,99,396,
0,194,829,462,97,391,
0,193,816,459,97,387,
0,192,803,454,108,384,
0,190,896,449,108,380,
0,188,900,444,107,376,
0,187,881,440,105,372,
0,185,865,435,104,369,
0,184,851,470,103,368,
0,182,833,464,103,365,
0,180,820,460,102,361,
0,179,807,455,102,359,
0,178,795,450,100,355,
0,176,826,446,111,352,
0,175,895,440,110,349,
0,174,876,435,110,345,
0,172,862,432,108,343,
0,171,847,428,108,339,
0,169,833,478,107,384,
0,168,816,472,105,380,
0,167,803,467,104,376,
0,166,791,463,103,373,
0,165,779,457,103,369,
0,163,884,453,116,366,
0,162,906,448,115,362,
0,161,910,444,114,358,
0,159,902,440,113,355,
0,159,879,435,112,391,
0,158,864,431,111,390,
0,156,846,427,110,385,
0,155,831,423,109,382,
0,154,819,419,108,379,
0,153,806,415,108,375,
0,152,892,412,118,371,
0,151,894,407,116,367,
0,150,876,403,115,363,
0,148,861,399,115,359,
0,147,846,411,113,393,
0,147,831,464,112,388,
0,146,816,459,112,384,
0,145,803,455,111,381,
0,143,791,450,110,377,
0,143,779,446,109,374,
0,142,768,440,123,369,
0,141,755,435,121,366,
0,140,744,432,120,361,
0,140,735,428,120,359,
0,139,724,423,118,396,
0,137,715,419,118,391,
0,137,703,415,116,387,
0,135,694,412,115,384,
0,135,684,408,115,380,
0,134,675,404,120,376,
0,134,846,400,120,372,
0,132,831,396,118,368,
0,131,817,392,118,364,
0,131,804,390,116,361,
0,130,792,386,115,371,
0,129,779,384,114,368,
0,129,764,380,113,364,
0,127,753,376,112,359,
0,127,742,374,112,358,
0,126,824,371,120,354,
0,126,825,368,118,351,
0,124,812,364,117,348,
0,124,798,360,116,344,
0,123,785,358,115,344,
0,122,774,355,114,387,
0,121,761,352,113,384,
0,120,748,349,112,380,
0,120,736,346,112,376,
0,120,726,344,110,372,
0,119,716,340,121,368,
0,118,817,337,120,365,
0,116,804,335,120,361,
0,116,792,332,118,358,
0,115,779,329,117,387,
0,115,767,348,116,384,
0,114,755,344,115,380,
0,113,741,341,114,376,
0,112,731,338,113,371,
0,112,719,335,112,368,
0,112,868,332,112,364,
0,111,886,329,111,361,
0,110,869,326,110,357,
0,109,854,323,109,354,
0,108,839,321,108,394,
0,108,825,353,108,390,
0,107,812,350,107,385,
0,107,796,347,105,382,
0,105,783,344,105,378,
0,105,772,339,104,375,
0,103,761,336,112,371,
0,103,750,334,110,367,
0,103,739,329,110,363,
0,103,728,327,109,359,
0,102,719,391,108,396,
0,102,708,388,107,391,
0,100,699,385,106,387,
0,100,688,381,105,384,
0,99,681,377,104,380,
0,99,671,374,103,376,
0,98,664,370,111,372,
0,97,655,367,110,369,
0,97,647,364,109,366,
0,96,639,415,108,362,
0,96,632,409,107,402,
0,96,624,407,107,399,
0,95,617,402,105,395,
0,95,609,399,104,391,
0,94,603,395,103,387,
0,93,596,391,103,384,
0,92,769,387,108,380,
0,92,756,384,107,376,
0,92,744,380,106,372,
0,91,736,377,105,369,
0,91,726,374,104,408,
0,90,715,370,103,403,
0,89,704,367,103,399,
0,88,695,364,103,395,
0,88,685,360,102,391,
0,88,675,358,100,388,
0,88,735,355,107,384,
0,87,722,352,105,381,
0,87,711,348,105,377,
0,86,700,346,103,374,
0,86,691,344,103,370,
0,85,681,340,102,408,
0,84,671,337,102,403,
0,84,664,334,101,399,
0,83,655,332,100,396,
0,83,647,328,99,391,
0,83,652,327,108,388,
0,82,787,324,108,385,
0,81,774,321,107,382,
0,81,761,319,105,378,
0,80,750,317,104,375,
0,79,739,320,103,411,
0,79,728,318,103,407,
0,83,718,315,103,402,
0,83,707,312,102,398,
0,82,700,310,101,394,
0,81,690,307,102,391,
0,81,807,305,107,387,
0,80,792,303,105,383,
0,79,779,319,105,380,
0,79,768,348,103,376,
0,79,755,346,103,374,
0,78,743,359,102,369,
0,78,733,355,102,367,
0,77,722,352,101,363,
0,76,711,348,99,359,
0,113,702,344,99,356,
0,112,692,342,111,353,
0,111,684,339,110,350,
0,110,674,335,109,348,
0,109,665,332,108,344,
0,108,657,374,108,391,
0,107,648,440,107,385,
0,106,639,435,105,382,
0,105,632,431,104,377,
0,103,624,427,103,374,
0,103,617,423,103,371,
0,103,790,418,123,367,
0,102,776,414,121,364,
0,101,764,410,120,359,
0,100,752,406,120,356,
0,99,741,403,119,375,
0,99,730,399,118,370,
0,98,719,396,116,367,
0,97,710,391,115,363,
0,97,700,388,115,359,
0,96,756,385,114,356,
0,95,900,382,115,353,
0,95,909,379,114,350,
0,94,913,375,113,347,
0,93,911,371,112,344,
0,92,887,415,112,362,
0,92,871,423,111,359,
0,91,856,420,110,355,
0,91,842,416,109,352,
0,89,828,412,108,349,
0,89,816,408,107,345,
0,88,847,404,112,343,
0,88,831,400,111,339,
0,88,818,397,110,336,
0,87,807,393,109,334,
0,86,796,390,108,376,
0,86,783,386,108,370,
0,84,771,383,107,366,
0,84,760,379,105,363,
0,83,750,376,105,359,
0,83,739,372,103,355,
0,82,843,370,111,353,
0,81,903,367,110,350,
0,81,906,364,109,347,
0,81,887,360,108,344,
0,79,871,358,107,340,
0,79,856,387,107,398,
0,79,841,382,105,393,
0,79,828,379,105,390,
0,78,818,375,103,386,
0,77,806,371,103,382,
0,76,793,368,105,379,
0,76,781,364,104,376,
0,76,880,361,103,371,
0,103,865,358,103,368,
0,102,851,355,102,364,
0,100,836,353,101,396,
0,99,823,350,100,391,
0,99,809,347,99,387,
0,98,796,344,99,385,
0,97,783,342,98,381,
0,96,772,339,106,377,
0,96,761,336,105,374,
0,95,752,334,103,370,
0,94,742,331,103,366,
0,94,732,327,103,363,
0,92,722,385,102,408,
0,92,711,380,101,404,
0,91,702,376,100,399,
0,91,693,373,99,397,
0,90,684,371,99,393,
0,89,675,367,98,390,
0,88,669,364,113,385,
0,88,660,359,112,382,
0,171,652,356,111,379,
0,167,644,354,111,375,
0,167,635,351,109,409,
0,165,627,348,108,404,
0,163,643,344,108,400,
0,162,633,342,107,396,
0,161,625,338,106,392,
0,159,616,335,105,389,
0,158,609,332,116,384,
0,156,603,329,115,380,
0,156,595,327,114,376,
0,154,589,323,113,373,
0,153,582,364,112,396,
0,152,575,372,111,391,
0,151,568,369,111,387,
0,150,563,366,109,384,
0,148,556,361,109,380,
0,147,551,358,115,376,
0,145,745,354,114,371,
0,144,732,352,113,368,
0,143,721,348,112,364,
0,142,711,344,111,361,
0,142,698,347,110,409,
0,140,688,344,109,405,
0,139,679,340,108,401,
0,138,670,337,107,396,
0,137,660,335,107,392,
0,135,652,331,114,389,
0,135,643,327,113,384,
0,134,635,326,112,381,
0,133,627,322,111,377,
0,132,619,319,110,374,
0,131,609,359,108,385,
0,130,603,355,108,382,
0,129,595,352,107,377,
0,128,812,348,106,374,
0,127,797,344,105,371,
0,126,816,341,112,366,
0,125,875,337,111,363,
0,124,859,335,110,359,
0,124,844,332,108,356,
0,123,831,328,108,377,
0,121,814,326,107,378,
0,120,801,323,105,374,
0,120,788,319,105,371,
0,119,776,318,103,367,
0,118,765,315,103,364,
0,118,753,312,114,359,
0,116,743,310,113,355,
0,115,732,307,112,352,
0,115,722,305,112,350,
0,114,711,303,111,395,
0,113,700,339,109,390,
0,113,691,335,108,386,
0,112,682,333,108,382,
0,111,673,329,107,379,
0,110,664,327,107,375,
0,109,656,323,116,370,
0,108,647,319,115,367,
0,108,639,317,115,364,
0,123,632,315,114,359,
0,121,625,312,113,391,
0,120,615,309,112,387,
0,120,608,307,111,383,
0,119,601,304,110,379,
0,118,594,302,109,376,
0,116,588,299,110,371,
0,115,581,295,109,367,
0,115,575,295,108,364,
0,169,568,292,107,359,
0,167,562,290,106,357,
0,166,556,348,105,401,
0,164,548,344,103,397,
0,163,543,341,103,393,
0,161,593,337,103,389,
0,160,583,335,102,385,
0,159,609,332,107,382,
0,157,850,327,105,376,
0,156,834,325,103,373,
0,155,820,321,103,369,
0,153,807,319,103,367,
0,152,793,369,102,391,
0,152,778,366,101,388,
0,150,767,363,100,384,
0,149,755,359,99,381,
0,147,885,355,99,376,
0,147,877,352,111,373,
0,145,905,349,110,369,
0,144,903,345,109,366,
0,143,882,343,108,363,
0,143,867,339,107,359,
0,142,852,391,106,405,
0,140,839,386,105,401,
0,140,824,383,103,397,
0,139,812,379,103,392,
0,137,796,376,103,389,
0,136,786,371,111,385,
0,135,774,368,110,382,
0,135,763,365,109,377,
0,134,752,361,108,375,
0,132,741,358,108,383,
0,131,731,355,107,384,
0,131,720,353,105,380,
0,129,711,350,104,376,
0,128,884,347,103,372,
0,128,908,344,105,369,
0,127,912,340,117,366,
0,127,913,337,115,361,
0,126,901,335,115,359,
0,125,878,332,113,355,
0,124,863,385,113,399,
0,123,848,384,112,392,
0,122,835,379,111,389,
0,121,822,376,110,385,
0,120,808,371,109,381,
0,120,834,368,110,377,
0,119,903,364,109,374,
0,118,910,361,108,371,
0,117,909,358,107,367,
0,116,887,355,106,364,
0,115,871,409,105,401,
0,114,856,403,104,397,
0,113,842,399,103,393,
0,112,828,396,103,389,
0,112,816,391,102,385,
0,111,880,388,105,382,
0,110,905,385,103,378,
0,109,910,381,103,375,
0,108,899,377,103,371,
0,108,878,375,102,368,
0,107,863,384,100,417,
0,107,848,380,99,414,
0,105,835,376,99,410,
0,104,822,373,98,406,
0,103,808,370,97,402,
0,103,796,367,134,398,
0,103,887,364,131,394,
0,102,870,359,131,390,
0,101,856,356,129,386,
0,100,840,353,127,382,
0,99,827,350,127,385,
0,99,814,348,126,381,
0,98,801,344,125,377,
0,97,788,342,124,375,
0,97,776,339,123,371,
0,96,783,336,122,368,
0,96,901,334,121,364,
0,95,903,331,120,361,
0,95,884,327,120,358,
0,94,868,326,119,355,
0,93,854,347,118,385,
0,92,843,343,117,381,
0,144,826,339,115,377,
0,199,813,335,115,374,
0,197,799,332,114,370,
0,195,812,329,116,367,
0,193,859,327,115,363,
0,192,844,323,114,359,
0,190,830,319,113,355,
0,188,816,319,112,352,
0,187,804,438,112,366,
0,185,791,432,111,361,
0,184,775,428,110,358,
0,182,764,423,109,355,
0,180,753,419,108,352,
0,179,880,415,113,348,
0,177,905,411,112,345,
0,176,911,407,111,342,
0,175,915,403,110,339,
0,173,915,399,109,353,
0,172,896,455,108,398,
0,171,875,449,108,393,
0,169,856,445,107,389,
0,167,843,440,105,385,
0,167,829,435,105,382,
0,166,816,432,110,377,
0,164,803,428,109,374,
0,163,792,423,108,369,
0,162,779,419,107,367,
0,161,768,415,107,391,
0,159,757,411,105,387,
0,159,746,407,104,384,
0,157,733,403,103,379,
0,156,723,399,103,376,
0,155,713,396,102,372,
0,153,792,392,106,368,
0,152,779,389,105,364,
0,152,766,385,103,360,
0,150,755,382,103,358,
0,149,743,379,103,399,
0,148,732,376,102,396,
0,147,722,371,101,391,
0,146,709,368,100,387,
0,145,700,366,99,384,
0,143,690,363,120,380,
0,143,681,359,123,376,
0,142,673,356,121,373,
0,141,664,353,120,369,
0,140,655,351,120,366,
0,139,648,347,119,399,
0,137,639,344,118,396,
0,136,632,342,116,391,
0,135,649,339,115,387,
0,135,639,335,115,384,
0,134,630,334,120,380,
0,133,622,331,120,376,
0,132,615,327,119,372,
0,131,608,326,118,369,
0,130,600,323,116,366,
0,129,593,319,115,423,
0,127,587,317,115,418,
0,127,580,315,114,414,
0,126,574,312,113,409,
0,126,568,310,112,406,
0,124,560,307,116,401,
0,124,559,305,115,398,
0,123,552,303,114,393,
0,122,547,301,113,390,
0,121,541,298,112,386,
0,120,536,350,112,424,
0,120,530,347,111,420,
0,119,524,343,110,415,
0,118,519,339,109,412,
0,117,512,336,108,408,
0,116,704,334,111,403,
0,115,727,331,111,399,
0,115,716,327,110,396,
0,114,705,324,108,391,
0,113,695,321,108,388,
0,112,685,326,107,388,
0,111,675,322,106,385,
0,111,666,319,105,382,
0,110,657,316,103,377,
0,109,647,313,103,375,
0,108,664,312,107,371,
0,108,654,308,105,368,
0,107,644,306,105,364,
0,107,636,452,103,361,
0,105,628,453,103,396,
0,104,620,447,103,391,
0,103,612,441,102,387,
0,103,605,438,101,383,
0,103,598,433,100,379,
0,102,602,429,99,376,
0,101,790,424,114,371,
0,100,772,420,113,368,
0,99,764,416,112,364,
0,99,752,413,111,361,
0,98,740,409,111,409,
0,97,729,406,110,405,
0,97,719,401,108,401,
0,96,708,398,108,396,
0,96,699,395,107,393,
0,95,689,391,106,390,
0,95,806,388,111,386,
0,94,791,385,110,382,
0,93,777,382,109,379,
0,93,766,379,108,376,
0,92,754,376,108,415,
0,92,743,371,107,423,
0,91,735,368,106,418,
0,90,724,366,105,414,
0,89,714,363,103,409,
0,89,704,359,103,406,
0,88,695,356,111,401,
0,88,685,353,110,398,
0,88,675,351,108,394,
0,87,667,348,108,391,
0,86,658,345,107,387,
0,86,650,343,106,392,
0,85,642,340,105,388,
0,85,634,337,103,385,
0,84,626,335,103,382,
0,83,619,332,103,377,
0,83,800,329,117,374,
0,83,864,327,115,371,
0,82,848,323,115,368,
0,81,834,321,113,364,
0,81,820,319,112,361,
0,80,807,316,112,387,
0,79,795,313,111,382,
0,79,782,312,110,380,
0,79,771,310,109,376,
0,78,760,307,108,372,
0,78,796,305,120,368,
0,77,857,303,118,365,
0,77,843,300,118,361,
0,76,828,298,116,359,
0,76,815,295,115,355,
0,76,806,353,115,389,
0,75,792,362,113,384,
0,74,780,359,113,381,
0,74,769,355,112,377,
0,73,758,352,111,374,
0,72,746,348,110,369,
0,72,875,345,113,367,
0,71,902,343,112,364,
0,71,884,339,112,360,
0,130,868,376,111,357,
0,128,854,372,110,415,
0,127,839,387,109,411,
0,126,827,383,108,407,
0,125,814,379,108,402,
0,124,800,376,106,398,
0,123,785,371,112,395,
0,121,897,368,111,391,
0,120,907,364,110,387,
0,120,899,361,109,384,
0,119,878,358,108,380,
0,118,864,355,108,391,
0,220,849,352,107,387,
0,254,835,348,105,384,
0,251,822,345,105,380,
0,248,808,342,103,376,
0,246,875,339,109,373,
0,243,905,335,108,369,
0,241,911,333,107,366,
0,239,913,331,106,363,
0,236,905,327,105,359,
0,235,881,371,103,391,
0,232,865,367,103,387,
0,231,851,364,103,383,
0,229,837,359,102,379,
0,227,824,356,102,376,
0,225,808,353,113,371,
0,224,903,350,112,368,
0,222,900,347,111,365,
0,220,879,344,110,361,
0,218,864,340,109,358,
0,216,849,336,108,391,
0,215,835,334,108,387,
0,213,822,331,107,384,
0,211,809,327,105,380,
0,259,793,325,105,376,
0,255,782,322,115,372,
0,252,770,319,113,369,
0,250,759,317,112,366,
0,248,748,315,112,362,
0,246,737,312,111,359,
0,243,728,308,110,355,
0,241,718,306,109,352,
0,239,707,304,108,348,
0,237,698,302,107,345,
0,236,687,299,107,343,
0,233,678,296,109,339,
0,231,670,295,108,337,
0,230,662,292,108,335,
0,228,654,291,107,332,
0,226,646,443,105,374,
0,224,638,488,105,368,
0,223,630,483,103,364,
0,221,623,478,103,361,
0,220,615,472,103,358,
0,217,607,467,102,354,
0,216,733,463,105,351,
0,215,853,459,104,348,
0,212,838,454,103,344,
0,211,824,449,103,342,
0,214,811,446,102,368,
0,212,797,440,102,364,
0,211,785,435,100,359,
0,209,772,432,100,356,
0,207,761,428,99,353,
0,206,774,423,111,350,
0,204,822,420,112,347,
0,203,805,416,110,344,
0,204,792,412,110,340,
0,224,780,409,108,337,
0,223,768,406,108,390,
0,220,756,402,107,385,
0,218,745,398,105,382,
0,216,893,393,105,376,
0,215,878,391,103,373,
0,212,863,387,112,369,
0,211,866,384,111,366,
0,209,903,381,109,363,
0,222,888,378,108,359,
0,220,871,375,108,355,
0,219,856,371,107,396,
0,216,841,368,105,391,
0,214,828,364,105,387,
0,212,892,361,103,384,
0,211,907,359,103,380,
0,209,911,355,115,376,
0,207,903,353,114,372,
0,206,876,350,113,369,
0,204,861,349,112,366,
0,203,847,346,112,390,
0,200,833,344,111,403,
0,199,819,340,110,399,
0,198,807,337,108,395,
0,196,795,335,108,391,
0,195,889,332,107,387,
0,193,907,329,118,384,
0,192,910,327,116,380,
0,191,890,324,115,376,
0,189,872,322,115,372,
0,188,858,319,113,379,
0,255,844,352,112,374,
0,287,830,349,112,371,
0,284,817,344,111,366,
0,281,804,342,110,363,
0,279,795,339,109,359,
0,276,902,335,110,356,
0,274,909,332,110,353,
0,271,903,329,108,350,
0,270,880,327,108,347,
0,267,865,323,107,396,
0,265,851,321,105,391,
0,263,899,318,105,387,
0,261,908,315,103,382,
0,259,913,312,103,379,
0,257,913,311,108,376,
0,255,914,307,106,371,
0,253,916,305,105,368,
0,251,919,303,104,364,
0,248,920,301,103,361,
0,248,922,344,103,418,
0,246,920,339,102,414,
0,243,906,337,102,409,
0,240,910,332,100,403,
0,239,911,329,99,401,
0,237,903,327,119,396,
0,236,910,323,118,391,
0,233,914,320,116,388,
0,231,916,318,115,385,
0,231,918,369,115,381,
0,228,907,366,113,382,
0,227,879,361,113,379,
0,225,864,359,112,375,
0,224,850,355,111,371,
0,222,848,352,110,368,
0,220,903,348,109,364,
0,218,911,344,108,360,
0,216,915,342,108,358,
0,216,916,396,107,355,
0,214,899,391,105,393,
0,212,876,388,105,403,
0,211,862,384,103,399,
0,209,847,380,103,396,
0,207,835,377,103,391,
0,207,903,374,102,387,
0,205,910,369,113,384,
0,204,914,366,112,380,
0,203,916,363,112,376,
0,201,919,359,110,372,
0,199,916,356,110,398,
0,198,890,353,108,393,
0,196,872,350,108,390,
0,195,858,347,107,386,
0,194,844,344,105,382,
0,193,831,340,105,379,
0,192,903,337,108,374,
0,190,911,335,107,370,
0,188,913,332,105,367,
0,187,907,329,105,364,
0,185,879,332,103,391,
0,184,863,328,103,387,
0,184,849,326,102,384,
0,183,878,323,102,380,
0,181,905,319,100,376,
0,179,911,317,114,373,
0,178,914,315,113,368,
0,177,908,312,112,365,
0,220,883,310,111,361,
0,248,867,307,110,358,
0,244,849,335,109,415,
0,243,835,332,108,410,
0,240,823,328,107,406,
0,238,809,326,106,401,
0,236,797,323,105,398,
0,233,830,319,111,393,
0,231,856,316,110,389,
0,230,841,313,108,385,
0,228,828,311,108,382,
0,226,814,307,107,378,
0,225,798,315,106,415,
0,223,785,319,105,411,
0,221,774,316,103,407,
0,220,763,313,103,403,
0,217,752,311,102,399,
0,216,742,307,110,395,
0,214,731,304,109,391,
0,212,721,302,108,387,
0,211,711,300,107,383,
0,209,702,297,107,412,
0,207,691,319,105,412,
0,206,682,316,104,408,
0,204,889,313,103,403,
0,203,873,311,103,399,
0,201,857,307,102,396,
0,199,872,304,108,391,
0,198,865,302,108,387,
0,196,850,299,107,384,
0,195,836,296,106,380,
0,194,823,332,105,423,
0,192,806,391,103,418,
0,191,793,387,103,414,
0,190,782,384,102,409,
0,188,769,380,102,406,
0,187,759,376,103,401,
0,185,899,371,108,398,
0,184,895,368,107,392,
0,183,876,364,105,389,
0,181,860,419,104,385,
0,180,846,415,103,415,
0,179,828,410,103,412,
0,177,816,406,102,408,
0,176,803,402,101,403,
0,175,791,398,100,399,
0,174,900,395,110,396,
0,172,908,390,109,391,
0,172,899,386,108,387,
0,199,878,384,108,384,
0,232,863,380,107,380,
0,231,849,376,105,410,
0,228,831,372,104,406,
0,226,818,369,103,401,
0,224,805,366,103,398,
0,223,792,363,102,393,
0,220,781,359,108,390,
0,218,769,356,108,385,
0,216,758,353,107,382,
0,215,747,350,105,378,
0,213,736,347,104,375,
0,211,726,344,103,384,
0,209,713,341,103,380,
0,208,704,338,102,376,
0,207,696,335,101,373,
0,205,809,332,100,369,
0,203,867,329,110,366,
0,201,851,327,109,362,
0,199,836,323,108,359,
0,199,823,321,107,355,
0,197,809,319,106,384,
0,195,797,396,105,380,
0,194,781,391,103,376,
0,192,769,388,103,371,
0,191,758,384,103,368,
0,190,747,381,102,364,
0,188,883,377,108,360,
0,187,894,373,107,357,
0,185,876,369,105,353,
0,184,860,366,104,351,
0,183,846,385,103,391,
0,181,831,396,103,387,
0,179,816,391,102,384,
0,179,803,388,101,379,
0,177,790,384,100,376,
0,176,778,381,103,372,
0,175,896,377,103,368,
0,173,908,373,103,364,
0,172,911,369,102,359,
0,171,907,366,101,358,
0,169,883,363,100,409,
0,167,867,359,99,404,
0,167,852,356,99,400,
0,166,839,353,98,396,
0,166,825,350,97,392,
0,164,812,347,103,389,
0,163,809,344,112,385,
0,162,831,342,111,382,
0,161,817,339,110,377,
0,159,801,335,109,374,
0,159,789,333,108,408,
0,158,777,329,107,404,
0,156,766,327,106,399,
0,156,754,324,105,396,
0,155,743,321,104,391,
0,153,733,319,110,387,
0,152,723,316,109,384,
0,152,713,313,108,380,
0,151,704,312,108,376,
0,150,692,310,106,373,
0,148,683,308,105,398,
0,147,675,305,104,393,
0,147,665,303,103,390,
0,145,657,300,103,385,
0,144,649,297,103,381,
0,143,641,295,107,377,
0,143,634,294,105,374,
0,142,626,291,105,370,
0,141,617,289,103,367,
0,140,611,287,103,364,
0,139,604,344,102,382,
0,139,596,340,102,378,
0,137,710,337,100,375,
0,135,698,334,99,371,
0,135,688,331,99,368,
0,135,678,327,114,364,
0,134,685,324,113,359,
0,132,675,321,112,356,
0,132,665,319,111,353,
0,131,656,316,110,409,
0,130,647,316,109,406,
0,129,639,313,108,401,
0,128,630,311,108,398,
0,127,796,307,107,393,
0,127,893,305,105,390,
0,126,896,302,110,385,
0,126,908,300,109,382,
0,124,912,296,108,377,
0,124,913,295,107,374,
0,123,894,305,107,408,
0,123,875,337,105,403,
0,121,860,334,104,399,
0,121,842,331,103,396,
0,120,846,327,103,391,
0,120,831,324,103,388,
0,119,817,321,107,384,
0,192,806,319,105,380,
0,259,793,315,104,376,
0,256,781,312,103,372,
0,254,769,310,103,415,
0,252,758,307,102,411,
0,249,748,304,102,407,
0,248,734,302,100,403,
0,246,724,300,99,399,
0,243,715,297,109,395,
0,241,704,295,108,391,
0,240,696,292,107,387,
0,238,686,289,106,384,
0,235,678,287,105,380,
0,259,744,353,103,376,
0,281,732,350,103,372,
0,278,720,346,103,368,
0,275,710,343,102,366,
0,273,696,339,101,362,
0,271,687,336,115,359,
0,268,678,334,115,355,
0,266,668,331,114,352,
0,263,660,327,113,350,
0,261,652,323,112,347,
0,259,643,321,111,380,
0,257,636,318,110,376,
0,255,628,316,109,372,
0,253,621,312,108,368,
0,251,611,310,108,365,
0,249,828,307,115,361,
0,247,902,305,115,358,
0,244,892,303,113,355,
0,243,875,300,113,352,
0,240,860,297,112,355,
0,239,845,295,111,390,
0,237,831,292,110,385,
0,236,823,290,110,382,
0,359,903,287,108,377,
0,353,911,286,108,375,
0,350,912,284,107,371,
0,347,897,281,105,367,
0,344,876,280,104,364,
0,340,862,304,103,359,
0,336,847,302,103,374,
0,333,833,299,103,368,
0,331,820,295,102,365,
0,327,807,294,101,361,
0,324,795,291,100,358,
0,322,780,288,99,355,
0,319,883,286,103,352,
0,316,863,284,103,348,
0,313,847,281,102,345,
0,312,834,287,101,343,
0,309,821,449,100,386,
0,307,807,451,99,382,
0,304,795,446,99,377,
0,302,783,441,98,374,
0,300,771,437,97,370,
0,297,760,432,98,367,
0,295,749,428,97,364,
0,292,738,423,97,359,
0,290,731,420,96,356,
0,306,721,416,96,353,
0,303,711,443,95,399,
0,300,702,523,94,395,
0,297,692,516,94,391,
0,295,684,511,93,387,
0,292,674,505,92,384,
0,291,665,501,92,380,
0,288,657,496,103,376,
0,286,649,491,102,373,
0,284,641,484,100,368,
0,281,634,480,99,366,
0,280,627,475,99,364,
0,277,619,471,98,364,
0,275,611,467,97,359,
0,273,604,463,96,357,
0,271,668,459,96,354,
0,270,891,454,95,351,
0,268,878,449,103,348,
0,265,863,446,102,344,
0,263,847,441,101,342,
0,261,833,438,100,339,
0,259,820,432,99,350,
0,257,807,428,99,382,
0,255,795,425,98,377,
0,254,783,422,97,374,
0,252,771,419,96,371,
0,251,760,415,95,367,
0,248,748,412,107,363,
0,247,737,408,105,359,
0,245,728,404,105,356,
0,243,718,400,103,353,
0,241,707,396,103,368,
0,240,698,393,103,364,
0,238,689,390,102,360,
0,236,679,387,100,357,
0,235,671,384,99,353,
0,232,739,380,99,351,
0,231,728,377,107,348,
0,230,716,374,105,344,
0,228,704,371,104,341,
0,227,693,368,103,338,
0,225,684,458,103,387,
0,224,674,545,102,382,
0,222,665,539,101,377,
0,220,656,531,100,373,
0,219,891,525,99,370,
0,217,903,519,99,367,
0,216,903,514,121,363,
0,214,907,508,120,359,
0,212,890,504,119,355,
0,211,873,499,118,352,
0,210,857,494,117,403,
0,208,840,488,115,398,
0,207,827,483,115,393,
0,206,814,479,113,390,
0,204,801,475,113,386,
0,203,788,470,119,383,
0,201,776,464,123,379,
0,199,765,460,121,374,
0,199,754,455,121,371,
0,198,743,451,120,367,
0,196,733,448,119,399,
0,195,720,444,118,395,
0,193,711,440,117,391,
0,192,701,435,115,387,
0,191,692,432,115,384,
0,190,787,428,122,380,
0,188,878,423,121,376,
0,187,862,419,120,371,
0,185,847,415,119,368,
0,184,833,412,118,365,
0,184,820,423,117,375,
0,183,803,419,116,371,
0,181,792,415,115,367,
0,179,779,411,114,364,
0,179,768,407,113,359,
0,177,755,403,115,357,
0,176,752,399,115,353,
0,175,741,396,114,350,
0,214,731,392,113,347,
0,215,719,390,112,371,
0,212,711,386,111,407,
0,211,699,384,110,402,
0,209,689,380,109,398,
0,207,679,377,108,393,
0,206,671,374,108,390,
0,204,854,371,124,386,
0,201,864,367,122,383,
0,199,847,364,121,378,
0,199,834,361,120,375,
0,196,820,359,120,403,
0,195,807,356,118,399,
0,194,792,353,117,395,
0,192,780,351,116,391,
0,191,768,348,115,387,
0,190,756,345,114,384,
0,188,883,343,115,380,
0,186,905,339,114,376,
0,185,902,336,113,371,
0,184,880,334,112,368,
0,182,865,355,111,403,
0,180,851,382,110,399,
0,179,833,377,109,395,
0,178,819,374,108,391,
0,176,807,371,108,387,
0,176,795,367,116,384,
0,174,857,364,115,379,
0,173,842,359,115,375,
0,172,828,356,113,371,
0,171,815,353,113,368,
0,169,802,350,112,408,
0,167,789,347,111,403,
0,167,825,344,110,399,
0,167,851,340,109,395,
0,165,835,337,108,391,
0,164,822,335,108,387,
0,163,807,332,107,384,
0,161,795,328,106,379,
0,161,783,326,105,376,
0,159,771,323,104,371,
0,159,760,387,103,376,
0,158,749,384,103,372,
0,157,736,380,102,369,
0,156,726,376,101,366,
0,155,716,372,100,363,
0,153,705,368,112,359,
0,152,696,366,111,356,
0,152,687,361,110,352,
0,151,679,358,109,349,
0,150,670,355,108,354,
0,149,662,352,108,377,
0,147,653,348,107,374,
0,147,643,345,105,371,
0,146,636,343,104,367,
0,145,627,339,103,363,
0,144,620,336,115,359,
0,143,613,334,114,356,
0,142,671,330,113,352,
0,155,708,342,112,349,
0,153,697,338,111,387,
0,152,688,335,110,384,
0,151,678,332,109,380,
0,150,666,329,108,376,
0,148,657,327,108,371,
0,147,648,323,107,368,
0,146,639,321,111,364,
0,145,632,318,110,361,
0,143,624,316,109,357,
0,143,615,313,108,354,
0,142,608,332,107,387,
0,141,600,329,107,384,
0,140,594,326,105,379,
0,139,585,323,104,376,
0,138,579,319,103,371,
0,137,578,318,107,368,
0,136,783,315,105,364,
0,135,771,312,104,361,
0,135,759,308,103,357,
0,134,747,306,103,353,
0,132,736,307,102,401,
0,132,725,304,101,398,
0,131,715,302,100,393,
0,130,778,299,99,390,
0,129,864,297,99,385,
0,129,852,295,119,382,
0,127,835,293,120,378,
0,127,820,291,119,375,
0,126,807,289,118,371,
0,126,795,290,116,368,
0,125,783,348,115,377,
0,124,771,344,115,374,
0,123,760,340,114,369,
0,123,748,337,113,365,
0,121,737,334,112,362,
0,120,728,331,115,359,
0,120,892,327,113,355,
0,120,902,324,113,352,
0,119,883,322,112,349,
0,118,867,319,111,346,
0,118,853,316,110,387,
0,116,839,313,109,384,
0,115,825,311,108,379,
0,115,812,307,107,376,
0,114,839,305,106,371,
0,113,824,303,110,368,
0,113,807,300,108,364,
0,112,795,297,108,360,
0,112,783,295,107,358,
0,111,771,293,106,371,
0,110,760,291,105,382,
0,109,749,288,104,378,
0,108,739,287,103,374,
0,108,728,284,103,369,
0,108,718,282,102,366,
0,107,708,280,107,363,
0,106,787,278,105,359,
0,105,775,276,104,356,
0,104,763,274,103,352,
0,103,750,272,103,396,
0,103,739,271,102,391,
0,103,728,268,101,387,
0,102,718,267,100,384,
0,102,867,264,99,379,
0,100,851,263,99,376,
0,100,836,261,101,371,
0,99,823,259,100,369,
0,99,809,258,99,366,
0,99,797,268,98,362,
0,98,787,270,98,396,
0,97,775,268,97,391,
0,96,764,265,96,388,
0,96,752,263,96,385,
0,96,742,262,95,381,
0,95,734,259,95,377,
0,95,768,257,110,375,
0,94,894,255,108,371,
0,94,877,254,108,368,
0,96,862,252,107,364,
0,95,847,251,106,360,
0,94,833,297,105,412,
0,94,819,294,103,408,
0,93,807,291,103,403,
0,92,797,287,103,399,
0,92,785,286,102,395,
0,91,795,283,109,391,
0,91,900,280,108,387,
0,90,888,279,107,384,
0,89,871,275,107,380,
0,89,856,273,105,376,
0,88,843,272,104,395,
0,88,828,273,103,391,
0,88,816,271,103,386,
0,87,803,268,102,383,
0,87,791,266,101,379,
0,86,809,263,103,376,
0,85,903,262,105,371,
0,84,909,260,104,368,
0,176,911,258,103,365,
0,216,889,255,103,361,
0,214,872,259,102,398,
0,211,857,305,101,393,
0,209,844,302,100,389,
0,207,830,298,99,385,
0,206,816,295,99,381,
0,204,803,294,99,377,
0,202,896,291,103,374,
0,199,907,288,102,371,
0,199,899,286,101,366,
0,198,878,283,100,363,
0,195,863,281,99,414,
0,194,848,278,99,410,
0,192,835,276,98,406,
0,191,821,273,97,402,
0,190,889,271,96,398,
0,191,907,270,97,394,
0,189,911,268,107,390,
0,188,915,265,106,387,
0,185,917,263,105,382,
0,184,916,261,104,378,
0,183,894,300,103,406,
0,182,874,296,103,401,
0,180,860,294,102,398,
0,179,842,291,101,393,
0,177,828,288,100,390,
0,176,816,286,108,385,
0,175,803,284,108,382,
0,174,791,280,107,378,
0,214,779,278,105,374,
0,222,768,339,105,371,
0,220,756,336,103,393,
0,218,745,333,103,390,
0,216,736,329,102,385,
0,214,723,327,102,382,
0,212,713,323,100,378,
0,211,704,321,106,376,
0,209,695,318,105,371,
0,207,686,316,103,368,
0,206,676,312,103,364,
0,204,668,310,103,359,
0,203,660,376,102,388,
0,200,652,371,101,384,
0,199,643,368,100,380,
0,198,634,364,99,376,
0,195,627,359,99,372,
0,195,621,358,104,369,
0,193,612,353,103,366,
0,192,605,351,103,362,
0,190,598,348,102,359,
0,188,591,344,101,355,
0,188,585,391,100,353,
0,185,579,387,99,350,
0,184,572,384,99,347,
0,184,686,380,97,344,
0,247,819,376,97,340,
0,243,859,372,108,337,
0,240,902,369,107,335,
0,238,888,366,105,332,
0,236,871,361,104,329,
0,233,856,359,103,363,
0,231,842,355,103,381,
0,230,828,352,102,377,
0,227,816,349,102,373,
0,225,799,346,100,369,
0,224,787,344,99,366,
0,223,775,339,115,363,
0,220,764,337,115,359,
0,219,752,334,113,355,
0,217,742,332,112,352,
0,215,732,328,112,368,
0,213,721,327,111,391,
0,211,711,324,110,387,
0,209,702,321,109,384,
0,208,692,319,108,380,
0,207,681,316,107,376,
0,205,673,313,119,372,
0,204,664,312,118,369,
0,202,655,308,116,365,
0,200,647,306,115,361,
0,199,639,304,115,384,
0,198,632,301,113,378,
0,195,624,298,113,375,
0,194,617,295,112,371,
0,193,610,294,111,367,
0,192,699,291,110,364,
0,190,896,289,120,359,
0,240,908,287,118,356,
0,236,912,285,118,353,
0,235,914,283,116,351,
0,231,907,281,115,393,
0,230,880,278,114,388,
0,228,865,275,113,384,
0,226,851,274,112,380,
0,224,838,271,112,376,
0,223,821,270,117,373,
0,221,808,268,116,369,
0,219,796,266,115,366,
0,217,783,263,114,363,
0,216,772,263,113,359,
0,214,761,260,112,397,
0,211,750,258,111,391,
0,210,739,255,110,387,
0,208,729,255,109,384,
0,207,719,253,108,380,
0,205,869,251,119,376,
0,204,854,249,118,372,
0,202,839,248,116,369,
0,200,825,246,115,366,
0,199,812,244,115,363,
0,198,799,242,114,367,
0,196,787,240,113,361,
0,194,775,239,112,359,
0,193,764,238,112,355,
0,192,752,236,110,352,
0,190,864,235,117,349,
0,189,847,233,115,345,
0,188,833,231,115,344,
0,186,819,230,113,339,
0,185,807,242,113,337,
0,184,793,327,112,334,
0,182,781,323,111,331,
0,180,769,319,110,327,
0,179,758,317,109,325,
0,178,747,314,108,323,
0,176,734,312,119,319,
0,176,723,308,117,318,
0,215,713,306,116,315,
0,212,704,304,115,312,
0,211,695,300,114,359,
0,208,686,297,113,355,
0,207,676,295,112,351,
0,204,668,292,111,347,
0,203,659,290,111,344,
0,201,652,287,110,341,
0,199,746,285,113,337,
0,199,734,283,112,335,
0,196,723,281,111,332,
0,231,712,412,110,328,
0,229,704,448,109,375,
0,227,692,446,108,371,
0,224,683,441,108,366,
0,223,673,436,106,362,
0,221,664,432,105,359,
0,219,655,428,112,355,
0,217,785,423,111,352,
0,216,772,419,110,348,
0,214,760,415,109,345,
0,211,749,412,108,343,
0,210,738,411,108,384,
0,207,728,406,107,380,
0,206,716,402,105,375,
0,205,707,399,105,371,
0,203,696,395,103,368,
0,201,864,391,110,364,
0,199,903,388,109,359,
0,199,885,384,108,357,
0,197,869,382,107,354,
0,195,855,378,106,351,
0,194,840,375,105,397,
0,192,827,371,104,392,
0,191,814,368,103,387,
0,190,800,364,103,384,
0,188,788,361,102,380,
0,187,776,359,114,376,
0,185,820,355,112,372,
0,184,844,352,112,369,
0,247,830,350,111,366,
0,243,816,347,110,387,
0,241,803,344,109,384,
0,239,790,340,108,379,
0,236,777,337,107,375,
0,235,766,335,106,371,
0,232,755,332,105,368,
0,231,892,329,112,364,
0,229,873,327,111,359,
0,227,859,324,110,358,
0,225,844,321,109,354,
0,224,831,337,108,390,
0,222,816,374,107,385,
0,220,803,368,107,381,
0,217,792,365,105,377,
0,216,779,361,104,374,
0,214,768,359,104,369,
0,212,896,355,105,366,
0,211,876,352,103,363,
0,209,860,348,103,359,
0,207,846,345,103,356,
0,206,831,391,102,398,
0,204,818,386,100,393,
0,203,806,381,100,388,
0,201,793,377,99,385,
0,199,781,374,99,382,
0,199,803,371,110,378,
0,196,892,367,108,374,
0,195,875,364,108,370,
0,194,859,359,107,367,
0,192,845,357,106,363,
0,191,828,354,105,359,
0,190,834,351,103,356,
0,188,872,348,103,353,
0,187,857,344,103,350,
0,185,843,342,102,347,
0,184,828,338,111,344,
0,183,816,335,110,340,
0,181,803,332,108,337,
0,180,790,329,108,334,
0,179,778,327,107,332,
0,177,764,324,106,354,
0,176,752,321,105,351,
0,175,742,319,103,348,
0,174,821,316,103,344,
0,172,807,313,103,340,
0,171,871,311,107,337,
0,170,889,308,106,334,
0,168,872,305,105,331,
0,167,857,304,103,327,
0,167,843,302,103,380,
0,166,825,378,103,375,
0,164,812,374,102,371,
0,163,799,370,100,367,
0,162,787,367,100,364,
0,161,775,364,99,359,
0,159,764,359,106,356,
0,159,752,356,105,353,
0,158,742,352,104,350,
0,156,732,350,103,347,
0,156,721,347,103,391,
0,154,711,344,102,387,
0,153,702,340,101,384,
0,152,691,337,100,380,
0,151,681,334,99,376,
0,150,673,332,102,371,
0,149,868,328,103,368,
0,148,851,326,103,364,
0,147,838,323,102,361,
0,146,824,319,101,358,
0,145,811,377,100,397,
0,143,798,372,99,393,
0,143,785,368,99,390,
0,142,773,365,98,385,
0,142,761,363,97,382,
0,150,751,359,99,379,
0,148,889,355,106,375,
0,147,876,352,105,371,
0,145,861,348,103,368,
0,144,847,345,103,364,
0,143,833,399,103,390,
0,142,819,395,102,385,
0,141,806,391,101,382,
0,140,791,387,100,377,
0,139,778,384,99,374,
0,139,807,380,107,371,
0,137,902,376,105,367,
0,135,910,372,104,364,
0,135,912,369,103,359,
0,134,903,366,103,356,
0,134,880,361,102,400,
0,132,864,358,102,396,
0,131,851,355,100,391,
0,131,836,352,99,388,
0,130,824,349,99,385,
0,129,880,345,113,380,
0,127,905,343,112,377,
0,127,911,339,111,374,
0,127,915,337,110,369,
0,126,917,334,108,367,
0,125,911,425,108,403,
0,124,883,423,107,399,
0,123,867,418,106,395,
0,123,854,412,105,391,
0,121,839,408,103,387,
0,120,826,405,111,383,
0,120,875,400,110,379,
0,120,859,397,109,376,
0,119,841,393,108,371,
0,118,828,390,107,368,
0,117,814,386,106,387,
0,116,801,383,105,384,
0,115,790,380,103,380,
0,114,777,376,103,376,
0,114,766,371,103,372,
0,113,755,368,106,368,
0,112,815,365,105,365,
0,114,903,361,103,361,
0,116,908,359,103,358,
0,115,893,356,103,398,
0,114,874,428,102,397,
0,113,860,423,101,393,
0,112,845,419,100,390,
0,112,851,414,99,385,
0,111,883,411,99,382,
0,110,867,407,120,377,
0,110,852,401,120,375,
0,109,838,398,118,370,
0,108,824,395,117,367,
0,108,812,391,116,408,
0,140,799,387,115,403,
0,138,783,384,114,399,
0,136,772,380,113,395,
0,135,761,376,112,391,
0,135,750,374,112,387,
0,134,897,371,115,384,
0,132,905,367,114,380,
0,131,892,364,113,376,
0,130,873,359,112,371,
0,129,859,454,112,368,
0,127,844,451,111,365,
0,127,828,446,110,361,
0,126,814,441,108,358,
0,124,801,437,108,355,
0,124,892,432,116,352,
0,123,907,428,115,349,
0,121,911,423,115,345,
0,120,915,419,114,342,
0,120,914,415,112,339,
0,120,895,475,112,380,
0,118,874,469,111,376,
0,118,856,463,110,372,
0,116,841,459,109,369,
0,115,859,455,108,366,
0,115,902,450,112,361,
0,114,889,445,110,359,
0,113,871,440,110,355,
0,127,858,435,108,352,
0,170,844,432,108,361,
0,168,830,428,107,396,
0,167,816,423,106,391,
0,166,801,419,105,387,
0,164,788,415,103,384,
0,163,777,412,103,380,
0,161,874,408,107,376,
0,159,869,404,105,372,
0,159,854,399,105,368,
0,157,839,396,103,364,
0,156,826,393,103,377,
0,155,812,390,102,372,
0,153,799,387,102,369,
0,152,783,384,100,366,
0,152,887,380,100,362,
0,150,906,377,99,359,
0,149,909,374,110,355,
0,147,892,371,109,352,
0,147,873,368,108,349,
0,145,859,364,107,346,
0,144,845,387,106,350,
0,143,831,413,105,347,
0,142,817,408,103,344,
0,141,805,404,103,340,
0,140,792,400,103,337,
0,139,897,396,103,335,
0,137,908,393,114,332,
0,137,913,390,113,329,
0,135,916,385,112,326,
0,135,918,382,111,323,
0,134,919,378,110,363,
0,133,908,375,109,359,
0,131,880,371,108,355,
0,131,865,368,108,352,
0,129,851,364,107,349,
0,129,834,361,112,345,
0,127,821,359,111,343,
0,127,807,355,110,339,
0,126,796,352,109,335,
0,125,783,350,108,333,
0,124,772,348,108,369,
0,123,761,345,107,365,
0,122,751,343,105,361,
0,121,739,339,104,358,
0,120,729,337,103,355,
0,120,785,335,105,352,
0,119,902,332,104,348,
0,118,910,329,103,344,
0,117,913,327,103,342,
0,116,913,323,103,339,
0,115,894,321,102,376,
0,115,874,319,100,371,
0,113,860,316,99,368,
0,113,881,313,99,365,
0,112,866,312,99,361,
0,111,851,308,102,357,
0,111,903,307,100,353,
0,110,911,304,99,351,
0,109,915,302,99,348,
0,108,916,300,98,344,
0,108,915,297,97,377,
0,107,889,295,97,374,
0,106,872,294,96,369,
0,105,858,291,95,366,
0,105,844,289,95,363,
0,103,831,287,110,359,
0,103,817,286,108,355,
0,103,804,283,108,352,
0,102,793,280,107,350,
0,101,781,279,105,352,
0,100,769,316,104,401,
0,100,759,313,103,398,
0,99,748,310,103,393,
0,99,737,307,103,390,
0,98,727,304,102,385,
0,97,717,302,121,384,
0,96,707,300,120,380,
0,96,698,297,119,376,
0,96,689,295,118,372,
0,95,679,292,116,368,
0,95,671,292,115,398,
0,94,664,289,115,393,
0,93,655,287,114,389,
0,92,648,285,113,385,
0,92,641,282,112,382,
0,92,633,280,112,377,
0,91,837,278,112,374,
0,91,823,275,111,370,
0,89,808,273,110,367,
0,89,796,271,110,364,
0,88,783,291,108,398,
0,88,771,329,108,393,
0,88,760,327,107,390,
0,88,748,323,106,385,
0,87,737,320,105,382,
0,86,727,318,105,379,
0,86,871,315,105,375,
0,85,859,312,104,371,
0,84,844,309,103,368,
0,83,831,307,103,364,
0,83,817,310,102,385,
0,83,803,363,101,380,
0,83,791,359,100,376,
0,82,779,355,99,374,
0,81,768,352,99,370,
0,81,755,350,98,366,
0,80,827,346,107,363,
0,79,878,343,106,359,
0,79,862,339,105,356,
0,79,847,366,103,353,
0,79,833,465,103,359,
0,78,820,519,103,395,
0,78,807,513,102,391,
0,77,900,507,101,387,
0,77,909,502,99,383,
0,96,913,496,99,379,
0,104,915,491,115,376,
0,103,918,486,113,371,
0,103,915,481,112,368,
0,103,888,476,111,365,
0,104,871,472,110,361,
0,103,857,467,109,408,
0,103,843,462,108,401,
0,102,830,457,108,398,
0,100,816,452,107,393,
0,99,804,448,105,390,
0,99,792,444,113,386,
0,98,871,440,112,383,
0,97,856,437,111,380,
0,97,840,433,110,376,
0,96,827,429,109,372,
0,95,813,425,108,412,
0,95,799,422,108,408,
0,94,788,418,107,403,
0,93,775,414,106,399,
0,92,765,411,105,395,
0,92,757,408,108,391,
0,91,879,403,108,387,
0,90,863,399,108,384,
0,89,847,397,107,380,
0,89,834,393,106,376,
0,88,820,391,105,397,
0,88,807,387,103,393,
0,87,795,384,103,390,
0,86,782,382,103,386,
0,86,771,378,102,382,
0,85,760,376,104,379,
0,84,893,372,104,375,
0,83,896,369,103,371,
0,83,877,366,103,368,
0,83,866,364,102,364,
0,82,851,359,102,408,
0,81,837,359,100,404,
0,81,824,355,99,399,
0,79,810,353,99,397,
0,79,831,351,98,393,
0,79,898,348,98,389,
0,79,907,345,108,385,
0,79,911,343,107,382,
0,79,915,339,106,378,
0,78,918,337,105,375,
0,77,918,335,103,371,
0,77,905,398,103,391,
0,76,878,393,103,387,
0,76,863,390,102,384,
0,76,849,386,101,380,
0,75,873,383,100,376,
0,74,857,379,103,372,
0,74,846,376,103,369,
0,73,831,371,103,366,
0,73,819,368,102,362,
0,72,807,365,101,359,
0,71,795,361,100,407,
0,71,783,359,99,403,
0,71,771,356,99,399,
0,71,760,353,97,395,
0,71,752,350,97,391,
0,70,741,347,99,388,
0,70,731,344,116,384,
0,69,721,342,115,380,
0,68,711,339,114,377,
0,71,702,335,113,374,
0,70,692,333,112,403,
0,70,684,365,111,399,
0,69,675,361,110,395,
0,68,668,358,110,391,
0,67,660,355,109,387,
0,67,652,352,108,384,
0,67,719,348,109,380,
0,67,707,345,108,376,
0,66,697,342,107,372,
0,65,687,339,106,369,
0,65,678,336,105,366,
0,65,668,334,104,408,
0,64,659,331,103,403,
0,64,650,327,103,399,
0,63,642,326,103,396,
0,63,635,323,102,391,
0,63,627,320,116,388,
0,63,621,319,115,384,
0,62,614,316,115,381,
0,62,607,313,113,377,
0,62,600,312,113,374,
0,61,593,308,112,370,
0,61,587,307,111,367,
0,123,580,304,110,364,
0,121,574,302,109,359,
0,120,568,300,108,357,
0,119,560,297,115,353,
0,118,554,295,113,351,
0,117,548,294,112,348,
0,115,543,291,112,344,
0,115,537,289,111,342,
0,114,531,348,110,382,
0,113,526,343,109,376,
0,112,521,339,108,373,
0,112,515,336,107,369,
0,111,511,333,105,366,
0,110,577,330,108,362,
0,109,568,327,107,359,
0,108,561,324,105,355,
0,107,554,321,105,352,
0,107,547,319,103,368,
0,105,541,340,103,387,
0,104,535,337,103,382,
0,103,527,334,102,378,
0,103,521,331,101,375,
0,102,515,327,100,371,
0,101,555,324,109,368,
0,100,547,322,108,364,
0,99,540,319,107,359,
0,99,536,316,107,357,
0,98,529,313,105,401,
0,97,523,311,104,396,
0,97,516,308,103,391,
0,96,511,305,103,388,
0,95,505,303,102,384,
0,95,500,300,102,380,
0,94,587,299,110,377,
0,94,657,295,108,374,
0,92,647,295,108,371,
0,92,639,291,107,367,
0,92,632,289,105,368,
0,91,622,368,105,409,
0,89,614,364,103,406,
0,89,608,359,103,401,
0,88,600,356,103,397,
0,88,593,353,102,393,
0,88,604,350,109,390,
0,87,647,347,108,385,
0,86,639,344,107,382,
0,86,630,340,106,378,
0,84,622,338,105,376,
0,84,614,391,104,403,
0,83,606,386,103,399,
0,83,598,382,103,396,
0,83,591,378,102,391,
0,81,583,375,101,387,
0,81,577,371,102,384,
0,81,668,368,102,380,
0,79,660,364,100,376,
0,79,652,360,99,373,
0,79,643,358,99,370,
0,78,634,372,98,385,
0,78,625,422,97,381,
0,78,620,417,96,377,
0,77,611,413,96,375,
0,76,627,410,95,371,
0,76,824,406,95,368,
0,76,854,402,112,364,
0,75,839,398,111,359,
0,75,824,395,110,357,
0,73,811,391,110,354,
0,73,798,387,108,377,
0,72,785,404,108,387,
0,71,774,401,107,384,
0,71,762,398,106,381,
0,71,751,393,104,377,
0,71,790,390,103,374,
0,70,835,387,108,369,
0,70,819,384,108,366,
0,69,806,380,107,363,
0,71,793,376,105,359,
0,71,783,372,105,356,
0,70,772,395,103,390,
0,69,760,391,103,385,
0,69,748,387,103,382,
0,68,738,384,102,378,
0,67,728,380,100,375,
0,67,718,376,105,371,
0,67,707,373,103,368,
0,66,697,369,103,365,
0,126,689,366,103,361,
0,154,679,363,102,357,
0,152,671,359,101,353,
0,151,663,356,100,351,
0,150,654,353,99,348,
0,148,646,350,99,344,
0,147,638,348,98,342,
0,145,631,344,110,339,
0,144,689,342,109,335,
0,143,679,339,108,333,
0,142,670,335,107,330,
0,158,659,333,105,327,
0,156,649,331,105,382,
0,154,639,327,103,377,
0,153,632,326,103,374,
0,152,624,323,103,371,
0,150,616,319,102,366,
0,148,609,316,108,363,
0,147,603,314,107,359,
0,147,595,312,105,355,
0,145,589,309,105,352,
