=~=~=~=~=~=~=~=~=~=~=~= PuTTY log 2021.04.22 12:31:57 =~=~=~=~=~=~=~=~=~=~=~=
,
0,492,721,119,396,220,
0,503,710,118,391,217,
0,497,700,129,399,240,
0,468,572,119,396,238,
0,463,566,143,391,241,
0,459,556,141,388,239,
0,454,550,144,384,236,
0,449,543,143,380,235,
0,240,
0,468,376,232,
0,438,
0,463,566,143,391,241,
0,459,556,141,388,239,
0,454,550,144,384,236,
0,449,543,143,380,235,
0,444,536,142,376,232,
0,440,530,140,372,231,
0,434,524,139,369,229,
0,431,558,138,393,227,
0,508,583,136,389,225,
0bbbªbbj
0,496,568,172,382,225,
0,491,559,17StartUp!
123,523,647,134,409,231,
0,519,642,142,407,229,
0,514,636,148,403,227,
0,510,629,147,401,226,
0,505,623,147,398,225,
0,500,616,145,395,224,
0,497,611,145,391,223,
0,492,605,143,391,221,
0,488,600,143,387,220,
0,484,593,142,384,218,
0,481,587,141,381,216,
0,476,580,140,379,215,
0,512,573,139,375,213,
0,505,567,140,371,259,
0,499,560,138,368,255,
0,494,553,137,365,254,
0,488,547,135,361,251,
0,483,540,135,358,249,
0,478,534,134,355,247,
0,473,527,133,352,244,
0,468,521,131,372,243,
0,469,568,131,369,240,
0,483,560,129,366,238,
0,479,553,135,362,270,
0,472,547,133,359,267,
0,467,540,132,355,264,
0,463,534,131,352,262,
0,458,526,130,348,259,
0,454,519,129,345,258,
0,449,514,127,343,255,
0,445,607,127,362,255,
0,516,639,127,358,252,
0,508,630,126,355,250,
0,502,622,150,352,265,
0,496,613,147,348,263,
0,491,606,147,345,260,
0,486,598,145,342,258,
0,480,588,144,338,255,
0,475,581,143,335,254,
0,470,574,142,332,252,
0,465,716,141,396,249,
0,562,745,140,391,248,
0,553,734,138,388,318,
0,546,723,172,384,329,
0,540,712,170,380,326,
0,534,703,174,377,323,
0,527,692,172,374,319,
0,521,681,171,369,317,
1,516,671,169,366,315,
1,510,664,167,363,312,
1,505,655,167,422,309,
1,544,647,166,417,306,
2,536,639,164,413,303,
2,529,631,175,409,300,
3,524,623,174,405,297,
3,518,615,172,401,295,
3,512,608,171,398,293,
3,506,599,169,393,291,
3,500,591,167,390,287,
3,496,585,167,387,286,
3,491,711,166,412,284,
3,555,700,164,408,281,
4,546,690,182,404,279,
3,540,680,179,400,276,
4,534,671,179,397,275,
4,527,662,177,393,271,
4,521,653,176,390,270,
4,515,643,174,385,268,
4,510,635,173,382,265,
4,504,652,171,412,263,
4,531,787,169,412,262,
4,564,774,168,408,259,
4,556,763,167,404,257,
4,548,751,167,400,255,
4,542,740,166,396,254,
4,536,729,164,392,252,
4,529,719,163,390,249,
4,524,707,162,384,248,
4,518,697,160,381,246,
4,512,721,159,415,244,
3,571,831,158,411,242,
3,561,817,157,407,240,
4,554,805,159,403,238,
3,547,792,159,399,236,
3,541,780,157,395,235,
3,535,769,156,391,233,
3,528,758,155,387,231,
3,523,743,153,384,230,
3,517,734,152,380,228,
3,512,723,152,386,227,
3,582,714,150,382,225,
3,572,704,149,379,224,
3,566,695,148,376,223,
3,559,686,147,371,221,
3,551,677,147,368,220,
3,545,668,145,366,217,
3,540,660,144,362,216,
3,534,650,143,359,215,
3,527,642,143,355,214,
3,523,673,142,414,211,
3,585,664,140,409,210,
3,575,654,139,405,209,
3,568,646,140,401,207,
3,562,637,140,398,216,
3,556,629,140,393,214,
3,549,622,139,390,212,
3,543,615,138,387,210,
3,536,606,137,382,208,
3,531,599,135,380,207,
3,525,611,135,435,206,
3,566,604,134,430,204,
3,557,595,133,425,203,
3,551,589,141,422,200,
3,543,582,167,417,201,
3,537,575,166,414,199,
2,531,569,164,409,198,
3,526,563,163,406,196,
2,519,556,161,401,195,
3,514,568,159,423,194,
3,543,702,159,419,192,
3,568,691,158,415,191,
3,560,681,159,412,242,
3,552,671,158,408,239,
3,546,663,158,403,236,
3,540,654,156,399,235,
2,534,645,155,396,231,
3,527,635,154,391,231,
2,521,627,152,388,228,
3,516,620,152,409,227,
3,534,626,151,405,225,
3,526,617,149,400,223,
3,519,610,174,397,221,
2,513,603,172,393,219,
2,508,595,170,390,240,
2,502,588,168,386,238,
2,496,582,167,383,236,
2,492,572,166,380,233,
2,487,566,164,376,231,
2,482,728,163,403,230,
2,551,715,162,399,227,
2,544,704,160,396,244,
2,536,694,174,391,303,
2,531,684,172,387,299,
2,524,675,171,384,295,
2,518,665,169,381,294,
1,512,657,167,377,291,
1,507,647,167,374,287,
1,502,638,165,370,286,
1,496,643,163,420,283,
1,590,633,163,416,281,
1,582,625,161,412,318,
1,573,617,172,408,346,
1,567,610,171,404,342,
1,560,603,172,400,339,
1,553,595,171,396,335,
1,547,588,169,392,332,
1,540,580,167,390,329,
1,535,573,167,385,326,
1,529,656,166,398,323,
1,566,647,164,394,320,
1,559,638,163,391,318,
1,551,630,167,387,315,
1,543,621,166,384,312,
1,537,613,164,380,310,
1,531,605,163,376,307,
1,526,598,161,373,304,
1,519,588,160,369,302,
1,515,582,159,396,300,
1,511,662,158,406,297,
1,532,652,157,401,295,
1,527,644,161,398,313,
1,519,635,166,393,310,
0,513,627,164,390,307,
1,507,619,163,386,304,
1,502,611,162,383,301,
1,496,603,161,380,299,
1,492,593,159,376,295,
0,487,646,158,414,294,
0,570,689,157,408,291,
0,579,679,156,404,288,
0,572,670,163,400,286,
1,563,660,161,397,284,
0,556,652,159,393,281,
0,550,643,159,390,280,
1,543,635,158,386,277,
0,537,627,156,383,275,
0,531,616,155,379,273,
0,526,704,153,399,271,
0,541,692,152,395,268,
0,534,683,152,391,267,
0,528,673,167,387,299,
0,520,664,166,384,295,
0,515,655,165,380,292,
0,509,646,163,376,290,
0,504,638,163,374,287,
0,499,630,161,370,286,
0,493,620,159,366,283,
0,488,737,159,403,280,
0,555,724,158,399,278,
0,547,713,156,396,312,
0,541,704,161,391,366,
0,532,694,159,387,361,
0,527,684,158,384,357,
0,520,675,156,380,353,
0,515,665,156,377,351,
0,510,657,154,374,347,
0,504,647,153,369,344,
0,499,684,152,398,341,
0,533,674,151,393,338,
0,526,664,150,390,335,
0,520,655,159,386,332,
0,513,647,158,383,329,
0,507,639,157,379,326,
0,502,630,156,376,323,
0,496,622,154,372,320,
0,491,615,153,369,318,
0,486,606,152,391,316,
0,508,771,151,407,312,
0,560,759,149,402,310,
0,553,748,150,399,312,
0,547,736,154,395,309,
0,539,726,153,391,306,
0,532,715,153,387,304,
0,527,705,152,384,300,
0,520,696,150,380,298,
0,515,686,149,376,295,
0,510,679,147,396,294,
0,561,745,147,391,291,
0,567,734,145,388,289,
0,560,723,152,385,300,
0,552,712,150,381,297,
0,545,703,150,377,294,
0,539,693,148,374,291,
0,532,684,147,371,288,
0,527,675,145,368,287,
0,520,665,145,364,284,
0,515,655,143,404,282,
0,534,647,143,399,280,
0,527,639,141,396,278,
0,521,632,156,392,275,
0,515,624,154,388,273,
0,508,615,155,385,271,
0,503,608,153,382,269,
0,497,601,152,377,267,
0,492,594,151,375,264,
0,487,588,150,371,263,
0,482,758,148,413,261,
0,582,816,147,408,259,
0,575,803,146,404,257,
0,568,790,163,400,255,
0,560,779,162,396,254,
0,551,768,161,392,251,
0,546,755,159,390,249,
0,540,744,158,385,248,
0,534,734,157,382,246,
0,527,724,156,379,243,
0,521,726,155,387,243,
0,551,714,153,384,240,
0,543,704,152,380,258,
0,537,696,158,376,255,
0,531,686,156,372,252,
0,524,677,154,369,250,
0,518,668,153,366,248,
0,512,659,152,363,246,
0,506,652,151,359,243,
0,501,643,150,357,242,
0,496,667,148,407,240,
0,510,657,147,403,238,
0,504,648,147,399,271,
0,499,639,159,395,268,
0,493,632,157,391,265,
0,487,624,156,387,263,
0,482,616,154,384,260,
0,477,609,153,380,258,
0,472,601,152,376,255,
0,467,595,151,375,254,
0,476,684,150,401,252,
0,476,673,148,398,249,
0,472,664,156,393,248,
0,466,655,155,390,246,
0,460,646,153,386,243,
0,455,637,152,383,241,
0,451,629,151,379,239,
0,448,621,150,376,238,
0,443,613,148,372,236,
0,439,606,147,406,233,
0,497,688,146,406,231,
0,491,678,145,401,231,
0,485,668,157,398,233,
0,480,659,155,393,231,
0,472,650,154,390,230,
0,467,641,152,386,227,
0,463,633,152,384,226,
0,457,625,150,380,224,
0,454,617,148,376,223,
0,448,610,147,408,222,
0,508,608,146,402,220,
0,502,600,145,398,219,
0,496,592,162,395,243,
0,491,585,161,391,240,
0,483,579,159,387,238,
0,479,572,158,384,236,
0,473,566,156,380,233,
0,468,560,155,376,231,
0,463,553,153,372,230,
0,459,625,152,422,227,
0,499,613,152,415,226,
0,493,604,150,412,273,
0,487,597,154,408,284,
0,482,589,153,404,281,
0,476,582,152,399,279,
0,471,575,150,396,275,
0,465,568,149,392,273,
0,460,561,147,390,271,
0,455,555,147,385,268,
0,452,654,145,418,265,
0,513,641,144,412,263,
0,508,632,143,408,266,
0,502,624,159,404,263,
0,496,615,159,400,262,
0,489,608,157,397,259,
0,484,600,156,393,257,
0,479,593,154,390,255,
0,473,585,153,386,252,
0,468,579,152,384,251,
0,473,641,151,403,248,
0,495,633,150,398,247,
0,489,624,167,394,246,
0,483,615,166,391,243,
0,479,608,164,387,241,
0,472,600,163,384,240,
0,467,592,161,380,237,
0,462,585,159,376,235,
0,457,579,159,372,233,
0,452,572,158,402,231,
0,507,704,156,408,230,
0,500,692,155,403,228,
0,495,684,163,399,244,
0,488,673,162,396,242,
0,483,664,161,391,240,
0,477,655,159,387,239,
0,472,647,158,384,236,
0,467,638,156,381,233,
0,462,630,155,377,231,
0,457,637,154,408,230,
0,479,696,152,403,228,
0,473,686,152,399,227,
0,467,676,171,395,278,
0,462,667,169StartUp!
123,525,572,112,337,185,
0,521,691,112,365,184,
0,545,681,111,362,184,
0,540,674,110,359,183,
0,536,667,110,357,188,
0,531,659,109,354,187,
0,526,653,108,352,185,
0,521,647,108,351,185,
0,516,639,108,348,184,
0,512,634,108,344,184,
0,508,625,107,342,182,
0,504,617,105,339,180,
0,496,609,104,335,179,
0,492,676,103,354,177,
0,531,665,103,351,176,
0,524,655,102,348,176,
0,518,647,102,344,174,
0,512,636,100,340,174,
0,506,627,107,337,172,
0,500,620,106,334,172,
0,495,612,105,331,171,
0,489,604,103,327,169,
0,483,597,103,326,167,
0,487,687,103,363,167,
0,536,676,102,359,166,
0,528,667,103,355,241,
0,523,657,115,352,238,
0,516,647,115,348,236,
0,511,638,114,344,234,
0,505,630,113,342,231,
0,499,624,113,340,231,
0,496,616,112,337,229,
0,490,609,111,340,227,
0,553,693,110,380,225,
0,574,682,109,376,223,
0,567,673,144,372,240,
0,560,664,142,368,239,
0,553,652,143,364,255,
0,547,643,142,361,254,
0,540,636,140,358,252,
0,534,627,139,355,249,
0,528,620,138,352,247,
0,521,611,137,394,244,
0,585,696,135,399,243,
0,576,686,135,396,240,
0,570,676,156,391,267,
0,563,667,154,388,263,
0,556,655,155,384,263,
1,550,647,153,380,260,
1,543,638,152,376,258,
1,537,630,151,373,255,
1,531,622,150,369,254,
2,524,632,148,399,251,
2,577,667,147,393,248,
3,569,657,145,390,247,
3,563,648,173,387,248,
3,556,639,171,383,254,
3,550,630,169,378,282,
3,543,621,167,375,280,
3,537,614,167,371,276,
3,531,606,166,368,274,
4,525,599,164,364,271,
4,519,742,163,393,269,
4,579,772,161,390,267,
4,572,760,159,386,321,
4,566,749,167,382,350,
5,559,738,166,379,347,
4,551,725,165,374,343,
4,545,715,163,371,339,
4,539,705,162,367,336,
5,533,696,161,364,333,
4,527,686,159,360,330,
5,524,744,159,401,327,
4,578,732,157,397,323,
4,571,721,158,393,321,
4,563,711,177,390,319,
5,557,701,176,385,319,
5,551,689,175,381,318,
5,543,679,174,377,315,
4,538,671,172,374,312,
4,532,662,171,371,310,
4,525,654,169,368,307,
4,574,749,167,392,304,
4,588,737,166,388,301,
4,581,727,165,385,302,
4,574,716,163,382,299,
4,568,705,163,377,295,
4,560,694,161,373,294,
5,554,684,159,369,291,
4,547,675,159,367,289,
4,542,665,158,363,287,
4,534,657,156,396,285,
4,577,652,155,407,281,
3,569,643,154,402,280,
3,563,636,160,398,291,
3,556,627,159,395,287,
3,550,620,158,391,285,
4,543,611,156,386,283,
3,536,604,155,384,280,
4,531,596,153,379,278,
3,524,590,152,376,275,
3,518,614,152,399,274,
3,608,690,150,395,271,
3,600,679,149,391,269,
3,593,671,149,387,267,
3,585,662,147,384,265,
3,579,652,147,380,277,
3,572,642,146,376,275,
3,565,633,145,371,272,
3,559,625,143,368,270,
3,551,617,143,365,268,
3,545,698,142,410,265,
3,583,695,141,406,263,
3,575,684,140,401,261,
3,568,675,140,398,259,
3,561,665,139,393,258,
3,556,657,147,390,255,
3,548,646,145,385,254,
3,543,638,143,382,252,
3,536,629,143,379,251,
3,531,622,142,375,248,
3,524,761,140,391,247,
3,579,748,139,387,244,
3,571,737,139,384,299,
3,564,726,143,380,295,
3,558,716,142,376,292,
3,551,703,143,372,289,
3,544,694,142,368,287,
3,539,684,140,365,284,
2,532,675,140,361,282,
3,527,665,138,359,280,
3,564,751,137,403,278,
2,586,739,135,399,275,
3,579,728,137,395,272,
3,572,718,135,391,270,
3,564,707,135,387,268,
2,559,695,135,384,265,
2,551,686,134,380,263,
2,545,676,132,376,262,
2,539,667,131,372,259,
2,534,659,130,393,257,
2,584,690,129,395,255,
2,576,679,127,391,252,
2,569,671,137,387,251,
2,563,662,135,384,248,
2,556,653,139,380,247,
2,550,643,137,376,246,
2,543,634,136,372,243,
1,537,627,135,369,241,
1,531,619,134,366,240,
1,525,643,134,396,238,
1,592,745,132,391,236,
1,584,734,131,387,246,
1,577,723,141,384,301,
1,571,712,140,380,298,
1,563,703,139,376,295,
1,557,691,137,373,292,
1,551,681,136,368,289,
1,543,671,135,366,287,
1,539,664,135,362,285,
1,532,717,134,399,283,
1,575,711,131,395,280,
1,568,701,131,391,278,
1,560,691,143,387,275,
1,553,681,142,384,276,
1,547,671,143,380,273,
1,541,661,142,376,271,
1,535,652,141,371,269,
1,528,644,140,368,267,
1,523,636,139,365,264,
1,518,721,137,388,263,
1,585,708,135,384,260,
1,578,699,135,380,258,
1,571,688,137,377,255,
1,564,679,135,374,254,
0,558,670,135,370,252,
0,551,659,135,367,249,
1,545,650,134,362,248,
0,539,641,132,359,246,
1,532,633,131,356,243,
1,527,692,130,371,242,
0,575,681,129,368,240,
0,568,671,152,364,240,
0,561,663,158,360,238,
0,553,654,156,358,236,
0,547,645,155,354,234,
0,541,635,153,351,231,
1,536,627,152,348,231,
0,529,619,151,344,229,
0,523,611,150,364,227,
0,535,694,148,373,225,
0,568,684,147,369,224,
0,561,674,148,366,222,
0,555,664,147,362,220,
0,547,655,145,359,222,
0,542,647,144,355,220,
0,536,636,143,352,219,
0,529,628,142,348,217,
0,524,620,141,345,216,
0,518,615,140,391,214,
0,568,706,139,389,212,
0,575,696,137,385,211,
0,569,686,137,381,275,
0,563,676,136,377,271,
0,556,667,138,374,269,
0,549,657,137,370,267,
0,543,647,135,366,263,
0,536,639,135,363,262,
0,531,631,134,359,259,
0,525,696,133,382,258,
0,590,787,131,377,255,
0,579,775,130,374,254,
0,573,763,146,369,251,
0,566,751,145,366,249,
0,560,739,151,363,247,
0,552,729,150,359,244,
0,547,716,148,355,243,
0,540,707,147,352,241,
0,534,697,145,350,239,
0,529,758,145,381,238,
0,575,745,143,376,235,
0,566,734,142,373,233,
0,559,723,154,369,231,
0,551,713,152,366,230,
0,545,704,152,363,227,
0,540,694,150,359,226,
0,534,682,148,355,224,
0,527,673,147,352,223,
0,521,664,146,349,221,
0,516,723,145,376,219,
0,590,711,143,372,217,
0,580,702,143,369,217,
0,574,691,143,366,216,
0,567,681,142,362,214,
0,560,672,140,359,212,
0,553,664,140,355,210,
0,547,653,139,352,209,
0,541,644,137,348,207,
0,535,636,135,359,206,
0,536,719,135,387,204,
0,590,707,134,384,203,
0,580,697,135,380,242,
0,573,688,134,376,240,
0,567,679,135,371,238,
0,560,669,135,368,236,
0,553,660,134,365,233,
0,547,649,132,361,231,
0,540,639,131,358,230,
0,535,691,131,380,227,
0,566,806,129,376,226,
0,573,792,128,372,224,
0,564,780,131,368,269,
0,557,768,130,366,266,
0,551,757,135,362,263,
0,544,745,135,359,261,
0,539,736,133,355,259,
0,532,722,132,352,257,
0,527,712,131,348,255,
0,520,740,130,400,252,
0,569,752,129,396,251,
0,562,740,127,391,248,
0,553,729,127,387,246,
0,547,719,126,384,257,
0,540,708,140,380,259,
0,534,699,139,376,257,
0,527,689,137,374,255,
0,522,678,135,369,252,
0,516,670,135,366,250,
0,511,813,135,384,248,
0,583,798,134,379,246,
0,575,785,132,376,271,
0,566,774,132,371,323,
0,559,761,131,368,319,
0,552,750,131,365,316,
0,546,739,129,361,313,
0,540,729,128,359,311,
0,534,716,127,355,307,
0,527,707,127,352,305,
0,523,708,126,388,302,
0,570,697,124,384,300,
0,561,688,124,381,297,
0,555,679,132,377,294,
0,547,671,132,374,292,
0,542,662,131,371,289,
0,536,654,130,367,287,
0,529,646,129,364,284,
0,524,636,127,359,283,
0,518,627,127,356,280,
0,512,620,126,374,278,
0,541,613,125,370,275,
0,534,606,134,367,317,
0,527,599,179,364,312,
0,521,591,177,359,310,
0,515,585,176,356,307,
0,510,579,174,353,304,
0,504,572,172,351,302,
0,499,564,171,347,299,
0,494,558,169,373,295,
0,539,678,167,369,294,
0,556,668,167,366,291,
0,547,659,167,362,364,
0,541,649,164,359,358,
0,535,641,163,355,355,
0,529,632,162,352,351,
0,523,624,161,349,348,
0,517,615,159,345,344,
0,511,607,158,342,342,
0,505,659,158,367,339,
0,559,697,156,363,335,
0,551,688,155,359,333,
0,542,678,169,356,350,
0,536,668,167,352,346,
0,529,659,166,350,343,
0,524,651,164,347,339,
0,518,642,163,344,336,
0,512,633,161,340,334,
0,506,624,160,336,331,
0,501,655,159,396,327,
0,527,646,158,391,325,
0,521,636,156,387,322,
0,513,627,161,384,319,
0,508,620,159,380,316,
0,502,611,159,376,313,
0,496,604,157,373,312,
0,492,596,156,369,308,
0,486,588,155,367,306,
0,481,582,153,362,304,
0,477,699,152,380,301,
0,560,687,152,376,299,
0,552,677,150,372,301,
0,543,668,158,368,299,
0,537,659,156,365,295,
0,531,649,155,361,293,
0,526,641,153,359,291,
0,519,632,152,355,288,
0,514,623,152,352,286,
0,508,615,150,348,284,
0,504,609,149,374,281,
0,574,601,148,369,280,
0,566,595,147,367,278,
0,558,588,147,363,275,
0,551,580,147,359,273,
0,544,574,147,356,271,
0,539,568,145,353,269,
0,532,561,144,350,267,
0,527,553,143,347,264,
0,520,547,142,379,263,
0,542,600,141,378,261,
0,547,592,140,375,259,
0,541,584,140,371,287,
0,533,577,139,367,284,
0,527,570,137,364,280,
0,520,563,136,359,278,
0,515,556,135,357,275,
0,510,550,135,353,273,
0,504,542,134,351,271,
0,499,583,133,379,269,
0,568,668,131,374,267,
0,560,657,131,370,263,
0,553,648,140,367,263,
0,545,639,138,363,259,
0,539,632,143,359,281,
0,532,623,142,356,280,
0,527,615,140,353,276,
0,521,608,140,350,274,
0,515,598,138,347,271,
0,509,655,137,396,270,
0,551,646,135,391,267,
0,543,636,135,387,264,
0,537,628,149,384,263,
0,529,620,147,380,260,
0,524,611,146,376,277,
0,518,604,145,373,275,
0,512,596,143,369,271,
0,506,589,142,367,270,
0,500,579,141,363,268,
0,496,665,140,376,265,
0,547,655,139,372,263,
0,540,646,137,369,281,
0,534,637,142,365,304,
0,526,628,140,361,301,
0,519,620,140,359,297,
0,515,612,139,355,295,
0,508,604,137,352,292,
0,504,597,135,349,290,
0,497,588,135,347,287,
0,493,679,134,355,285,
0,538,668,133,352,283,
0,531,659,131,349,280,
0,525,649,159,345,278,
0,518,641,158,343,275,
0,512,632,157,339,273,
0,505,624,156,336,271,
0,500,616,154,334,268,
0,495,608,153,331,266,
0,489,600,152,363,263,
0,516,694,151,379,262,
0,556,683,150,375,260,
0,550,674,150,371,258,
0,543,664,148,367,255,
0,536,655,147,364,261,
0,529,647,146,360,258,
0,523,638,145,357,255,
0,517,630,143,353,254,
0,512,622,143,351,252,
0,506,612,142,383,250,
0,543,644,140,379,248,
0,537,636,139,375,246,
0,531,627,156,371,267,
0,526,619,153,368,263,
0,518,611,152,364,263,
0,512,603,151,360,259,
0,506,595,150,358,257,
0,500,588,149,354,255,
0,495,582,147,352,253,
0,490,647,146,368,251,
0,557,684,145,364,248,
0,550,675,143,361,247,
0,543,665,158,358,251,
0,536,655,156,355,248,
0,528,647,155,352,247,
0,523,639,153,348,244,
0,516,631,152,345,242,
0,511,622,151,342,240,
0,505,615,150,339,239,
0,500,670,148,363,237,
0,543,659,147,359,236,
0,537,651,146,356,252,
0,531,641,147,352,284,
0,524,632,146,349,281,
0,516,624,145,346,279,
0,511,616,143,343,276,
0,505,609,143,339,273,
0,500,601,142,337,271,
0,495,594,140,334,269,
0,489,723,140,365,267,
0,543,711,138,361,263,
0,537,701,137,358,268,
0,531,691,142,354,266,
0,525,681,140,352,263,
0,518,671,139,348,261,
0,512,663,137,344,259,
0,506,654,136,342,257,
0,500,646,135,339,255,
0,495,638,135,335,253,
0,497,694,134,384,251,
0,522,684,132,380,248,
0,515,675,139,376,247,
0,510,664,142,372,244,
0,504,655,141,369,243,
0,497,647,140,366,240,
0,492,639,139,363,239,
0,487,631,137,359,236,
0,481,623,135,356,235,
0,477,615,135,366,233,
0,516,668,134,384,231,
0,520,658,133,379,230,
0,515,649,170,376,230,
0,508,639,167,371,227,
0,503,632,167,368,226,
0,496,624,165,365,224,
0,491,615,163,361,222,
0,485,608,162,359,221,
0,480,600,161,355,220,
0,475,620,159,384,217,
0,535,752,159,380,216,
0,527,740,157,376,215,
0,521,729,158,372,255,
0,515,719,156,368,253,
0,509,708,155,365,251,
0,503,699,153,361,248,
0,496,689,152,359,246,
0,492,679,152,355,243,
0,486,671,150,352,241,
0,481,706,149,375,240,
0,551,776,147,369,238,
0,545,764,147,366,236,
0,539,753,148,363,233,
0,532,742,147,359,251,
0,524,731,146,355,271,
0,519,721,144,352,268,
0,512,711,143,350,266,
0,507,701,142,347,263,
0,502,691,141,344,262,
0,496,710,140,385,259,
0,542,696,139,380,257,
0,536,686,138,376,303,
0,529,677,143,372,304,
0,523,668,143,369,301,
0,515,659,142,365,299,
0,510,651,140,362,295,
0,504,643,139,359,292,
0,499,635,137,355,290,
0,493,627,136,352,287,
0,490,678,135,384,285,
0,521,665,135,380,283,
0,515,655,135,376,312,
0,509,647,143,372,307,
0,504,639,142,369,305,
0,496,630,141,366,302,
0,491,622,140,362,299,
0,486,615,139,359,295,
0,480,608,137,355,294,
0,476,600,135,356,291,
0,512,675,135,399,288,
0,518,664,134,394,286,
0,511,654,135,391,284,
0,505,646,134,387,281,
0,499,637,133,384,280,
0,493,628,132,380,277,
0,487,620,131,376,274,
0,482,612,130,372,271,
0,477,604,129,369,270,
0,472,598,127,382,268,
0,532,651,127,384,265,
0,526,639,126,380,263,
0,519,631,125,376,262,
0,513,622,125,372,259,
0,508,614,124,369,257,
0,500,606,123,366,255,
0,495,599,121,362,252,
0,489,591,121,359,251,
0,484,584,120,355,249,
0,480,583,120,391,247,
0,524,585,118,387,244,
0,518,577,118,382,243,
0,512,571,120,377,241,
0,506,564,120,375,240,
0,500,559,120,371,238,
0,494,551,120,368,236,
0,487,546,119,364,234,
0,483,540,118,360,231,
0,478,535,116,358,231,
0,473,637,115,384,229,
0,566,719,115,380,227,
0,558,708,114,376,225,
0,551,697,114,371,224,
0,544,688,113,368,222,
0,539,679,115,365,221,
0,531,669,114,361,219,
0,525,660,113,359,217,
0,519,652,112,355,216,
0,513,643,112,352,215,
0,508,766,111,390,212,
0,554,750,110,385,211,
0,547,739,109,381,209,
0,541,728,108,377,207,
0,535,718,115,374,207,
0,528,707,124,371,206,
0,520,697,123,367,204,
0,515,688,121,363,202,
0,510,679,120,359,200,
0,504,670,120,358,199,
0,543,875,119,379,198,
0,555,855,117,375,196,
0,548,840,120,370,195,
0,542,826,120,367,194,
0,536,814,120,364,195,
0,529,801,118,359,193,
0,521,789,117,356,192,
0,515,777,116,353,190,
0,510,766,115,350,189,
0,504,755,114,393,188,
0,519,777,113,403,187,
0,513,763,112,399,185,
0,508,751,112,394,184,
0,502,740,111,391,183,
0,496,730,111,387,192,
0,491,719,109,384,190,
0,484,711,108,380,188,
0,480,701,108,376,185,
0,475,692,107,372,184,
0,471,686,106,401,184,
0,537,704,105,396,182,
0,530,691,104,391,188,
0,524,681,124,387,240,
0,518,672,122,384,238,
0,512,664,126,380,236,
0,506,655,124,377,233,
0,499,647,123,374,231,
0,494,639,122,370,228,
0,488,632,121,367,227,
0,483,627,120,391,225,
0,543,619,119,387,223,
0,536,610,118,384,223,
0,529,603,119,379,220,
0,524,596,118,376,219,
0,517,589,118,371,216,
0,511,583,116,368,215,
0,504,575,115,365,214,
0,499,569,114,361,211,
0,493,563,113,359,209,
0,488,708,112,391,207,
0,543,771,112,387,206,
0,537,755,111,382,227,
0,531,743,112,379,224,
0,524,733,111,375,223,
0,519,723,111,371,221,
0,512,711,110,368,219,
0,505,702,109,364,217,
0,499,692,108,361,215,
0,495,684,108,359,213,
0,529,745,107,399,211,
0,555,733,106,395,209,
0,547,720,127,390,246,
0,542,710,125,386,243,
0,535,699,125,383,241,
0,528,689,124,379,239,
0,523,679,123,376,237,
0,515,671,121,371,235,
0,510,663,120,368,231,
0,504,654,120,379,231,
0,539,728,119,381,228,
0,531,718,118,377,227,
0,525,704,121,372,225,
0,519,695,120,369,223,
0,513,685,122,366,221,
0,507,675,121,362,220,
0,502,666,120,359,217,
0,495,657,119,356,216,
0,489,649,118,353,214,
0,484,655,117,384,212,
0,543,738,115,380,211,
0,536,727,115,376,209,
0,530,713,122,371,236,
0,524,704,121,368,234,
0,518,694,121,364,231,
0,512,684,120,360,230,
0,507,675,120,358,227,
0,499,665,118,355,225,
0,494,657,117,352,224,
0,489,708,116,408,222,
0,532,696,115,402,220,
0,526,687,115,398,218,
0,519,675,119,393,216,
0,513,664,118,390,215,
0,508,655,119,385,212,
0,503,647,117,382,211,
0,496,639,116,379,209,
0,490,632,115,376,207,
0,485,624,114,371,206,
0,480,704,113,413,204,
0,527,694,112,408,203,
0,521,684,113,404,287,
0,515,671,131,399,286,
0,509,663,129,396,284,
0,504,653,129,391,280,
0,497,644,127,388,278,
0,492,636,127,384,275,
0,486,628,126,381,272,
0,480,620,124,377,271,
0,504,689,124,403,268,
0,532,679,123,399,265,
0,526,669,132,396,263,
0,519,657,131,391,262,
0,514,648,129,387,259,
0,508,639,128,384,257,
0,503,632,127,380,255,
0,497,624,127,376,253,
0,491,615,125,372,250,
0,485,608,124,395,248,
0,543,679,123,419,247,
0,536,670,122,415,244,
0,529,660,125,410,250,
0,523,649,124,405,248,
0,517,639,123,401,246,
0,511,632,122,398,243,
0,505,624,121,393,241,
0,499,615,120,391,240,
0,493,608,119,387,237,
0,487,606,118,401,236,
0,527,688,117,397,233,
0,521,678,116,392,231,
0,515,668,120,389,236,
0,509,656,120,384,233,
0,504,647,123,381,231,
0,498,639,122,377,230,
0,492,631,121,375,227,
0,486,623,120,371,226,
0,481,615,119,368,224,
0,476,671,118,408,223,
0,524,672,116,403,220,
0,516,663,115,399,243,
0,511,654,137,396,252,
0,505,643,135,391,249,
0,499,634,135,387,247,
0,494,626,134,384,245,
0,487,618,132,380,243,
0,481,610,131,377,240,
0,476,603,130,374,238,
0,472,694,129,388,236,
0,524,683,127,384,234,
0,518,672,127,381,263,
0,512,664,127,377,262,
0,505,652,126,373,259,
0,499,643,124,369,256,
0,494,635,124,366,255,
0,489,627,123,363,252,
0,482,619,121,359,250,
0,478,611,120,357,248,
0,499,701,120,360,246,
0,529,689,119,358,243,
0,523,679,118,354,241,
0,516,670,118,352,240,
0,511,659,118,348,238,
0,504,649,116,344,236,
0,499,641,115,342,233,
0,494,633,115,339,231,
0,487,624,113,335,230,
0,482,617,113,355,227,
0,529,679,112,381,226,
0,523,669,111,377,224,
0,517,659,118,374,222,
0,511,651,116,369,220,
0,505,639,123,366,241,
0,499,632,121,363,239,
0,494,623,121,359,237,
0,488,615,120,355,235,
0,482,608,119,352,232,
0,477,600,118,395,231,
0,536,593,116,395,228,
0,529,586,115,391,227,
0,524,579,119,387,243,
0,517,571,117,383,240,
0,511,564,118,378,239,
0,505,559,117,375,237,
0,499,551,116,371,235,
0,494,547,115,368,232,
0,487,540,115,364,231,
0,483,566,113,390,228,
0,515,583,112,386,226,
0,509,575,112,382,227,
0,504,568,135,379,229,
0,497,559,135,375,227,
0,492,551,133,371,225,
0,487,545,132,367,223,
0,481,539,131,364,221,
0,476,532,129,359,220,
0,470,527,128,358,217,
0,466,636,127,396,216,
0,530,631,127,391,214,
0,524,622,125,388,247,
0,518,614,125,384,243,
0,511,604,124,381,241,
0,505,596,124,376,239,
0,499,588,123,373,237,
0,495,581,121,369,235,
0,489,574,120,366,233,
0,483,568,120,363,231,
0,495,671,119,376,228,
0,547,661,118,372,227,
0,542,652,119,369,225,
0,535,643,119,366,223,
0,528,632,121,362,222,
0,523,624,120,358,220,
0,516,615,119,355,218,
0,511,608,118,352,216,
0,505,600,117,349,215,
0,499,615,115,348,214,
0,539,798,115,373,211,
0,540,784,113,369,209,
0,534,772,113,366,213,
0,527,760,113,363,211,
0,521,747,120,359,209,
0,515,736,119,355,207,
0,510,725,118,352,206,
0,504,715,117,348,204,
0,499,705,116,345,203,
0,492,696,115,391,201,
0,545,728,113,395,199,
0,537,716,113,391,198,
0,531,706,119,387,197,
0,525,696,118,384,195,
0,519,684,121,380,211,
0,513,675,120,376,209,
0,508,667,119,372,207,
0,502,657,118,368,206,
0,496,649,117,365,204,
0,490,684,115,393,203,
0,566,719,115,388,199,
0,559,709,114,384,215,
0,551,699,123,381,236,
0,545,689,121,377,234,
0,539,677,121,374,231,
0,533,668,120,369,230,
0,527,659,120,366,227,
0,520,651,119,363,226,
0,515,642,118,359,224,
0,508,706,116,405,223,
0,572,695,115,400,220,
0,566,684,114,396,280,
0,559,675,127,392,276,
0,551,665,126,389,273,
0,545,654,126,384,271,
0,540,646,124,381,268,
0,532,638,124,377,266,
0,527,630,123,374,263,
0,521,622,121,371,262,
0,519,694,120,391,259,
0,563,683,119,387,256,
0,556,673,127,384,322,
0,550,664,134,380,318,
0,543,655,132,376,315,
0,537,643,131,371,312,
0,531,636,131,368,308,
0,524,627,129,365,305,
0,519,620,128,361,303,
0,513,611,127,359,301,
0,580,664,126,387,297,
0,583,653,125,383,295,
0,575,644,155,379,292,
0,568,636,154,376,290,
0,561,627,152,371,287,
0,555,617,151,368,285,
0,548,609,150,364,283,
0,542,602,148,361,280,
0,536,595,147,358,279,
0,530,588,146,384,276,
0,615,636,145,381,273,
0,607,627,143,377,271,
0,600,620,152,374,269,
0,591,611,150,370,267,
0,585,604,148,367,265,
0,578,593,147,363,263,
0,571,587,146,359,261,
0,564,580,144,356,259,
0,558,573,143,353,257,
0,551,621,143,390,255,
0,639,747,141,385,252,
0,630,736,140,381,251,
0,622,724,147,377,260,
0,614,714,146,374,258,
0,607,704,147,370,255,
0,600,691,145,366,254,
0,591,682,143,363,252,
0,584,673,143,359,250,
0,578,664,142,356,248,
0,572,713,140,405,246,
0,584,702,139,400,243,
0,577,691,138,396,242,
0,570,681,148,392,240,
0,563,671,147,389,249,
0,557,664,146,385,248,
0,551,652,144,380,245,
0,545,643,143,377,243,
0,539,636,142,374,240,
0,533,628,141,370,239,
0,527,679,140,393,237,
0,565,668,139,390,235,
0,558,659,137,386,239,
0,551,649,139,382,236,
0,545,639,137,379,234,
0,539,632,135,375,231,
0,532,622,135,371,231,
0,527,615,134,367,228,
0,520,607,133,364,227,
0,515,600,132,359,225,
0,511,667,131,396,224,
0,574,657,129,391,222,
0,567,647,139,387,234,
0,560,639,137,384,231,
0,553,631,136,380,230,
0,547,622,135,376,228,
0,540,612,134,372,226,
0,534,604,134,369,224,
0,528,597,132,366,223,
0,522,590,131,376,221,
0,548,675,130,382,219,
0,566,665,129,378,216,
0,560,656,127,375,216,
0,552,647,127,371,214,
0,546,639,127,368,212,
0,540,631,126,364,211,
0,534,620,124,359,209,
0,527,612,124,356,207,
0,521,604,123,353,206,
0,515,604,121,407,205,
0,583,657,120,401,203,
0,575,647,120,398,201,
0,569,639,124,393,199,
0,562,631,123,390,199,
0,556,622,124,386,199,
0,549,614,123,383,197,
0,543,604,122,378,195,
0,536,596,121,375,195,
0,531,590,120,371,193,
0,524,632,120,395,192,
0,568,623,119,391,190,
0,561,614,117,387,188,
0,555,606,118,384,188,
0,548,598,116,380,216,
0,542,591,126,376,228,
0,536,583,125,372,226,
0,529,575,124,368,224,
0,524,568,123,365,222,
0,518,562,121,361,220,
0,513,659,121,393,219,
0,614,649,120,390,216,
0,606,639,122,386,215,
0,598,632,145,382,212,
0,591,623,143,379,254,
0,583,615,142,376,250,
0,577,607,141,371,248,
0,571,598,140,368,246,
0,563,590,138,364,243,
0,557,583,137,360,241,
0,551,575,135,375,239,
0,588,569,135,371,237,
0,580,563,134,367,235,
0,574,556,133,364,233,
0,567,550,132,359,231,
0,560,543,131,357,229,
0,553,538,129,354,227,
0,547,531,128,350,225,
0,541,526,127,347,224,
0,536,519,127,371,222,
0,550,589,126,380,220,
0,560,580,125,376,218,
0,553,574,147,372,216,
0,547,566,145,368,215,
0,540,560,144,365,212,
0,534,551,143,361,211,
0,527,543,142,359,209,
0,522,537,141,354,207,
0,516,531,140,352,207,
0,511,532,139,384,204,
0,565,612,137,382,203,
0,560,604,135,377,201,
0,553,596,143,374,199,
0,546,588,142,371,198,
0,540,582,141,367,196,
0,534,574,140,364,195,
0,527,565,138,359,193,
0,521,559,137,356,192,
0,516,551,135,353,191,
0,511,604,135,376,190,
0,560,609,134,372,188,
0,551,601,133,368,187,
0,544,593,135,366,241,
0,537,585,134,361,240,
0,531,579,135,359,237,
0,526,572,134,355,235,
0,519,563,132,352,233,
0,513,556,131,348,231,
0,508,550,130,345,230,
0,504,619,129,355,227,
0,516,609,127,351,225,
0,508,601,127,348,236,
0,503,593,127,344,250,
0,497,586,126,341,248,
0,492,579,126,338,246,
0,487,572,125,335,243,
0,483,563,124,332,241,
0,478,556,123,329,239,
0,473,550,121,327,237,
0,469,591,121,374,236,
0,560,583,120,370,233,
0,551,575,131,367,263,
0,545,569,135,363,259,
0,539,561,135,359,255,
0,532,555,134,356,254,
0,526,548,132,353,252,
0,519,540,131,350,249,
0,515,534,130,345,248,
0,509,527,129,357,246,
0,529,595,127,372,243,
0,577,586,127,368,241,
0,568,579,131,365,250,
0,561,572,129,361,248,
0,555,564,129,358,246,
0,548,557,127,355,243,
0,542,551,127,352,241,
0,536,542,126,348,239,
0,529,536,124,344,237,
0,524,549,124,368,236,
0,579,652,123,363,233,
0,583,643,121,359,231,
0,574,633,124,356,230,
0,567,625,123,353,227,
0,560,617,124,350,243,
0,553,609,123,347,241,
0,547,601,121,344,239,
0,540,591,120,340,237,
0,535,585,120,336,235,
0,529,676,119,374,233,
0,571,724,118,369,231,
0,563,713,117,366,230,
0,555,704,125,363,291,
0,548,694,124,359,287,
0,542,684,127,355,284,
0,536,674,127,352,281,
0,529,665,125,349,280,
0,524,654,124,345,277,
0,518,646,123,343,275,
0,512,691,123,371,271,
0,561,679,121,367,270,
0,555,671,120,363,268,
0,546,661,120,359,265,
0,540,652,120,356,263,
0,534,643,119,353,260,
0,527,636,118,350,259,
0,521,627,117,347,255,
0,515,617,116,343,255,
0,510,610,115,339,252,
0,505,651,115,383,251,
0,581,641,113,379,248,
0,574,632,113,375,248,
0,564,624,126,371,246,
0,558,615,132,368,243,
0,551,608,131,364,241,
0,545,600,129,361,240,
0,539,593,128,358,238,
0,533,584,127,353,236,
0,527,578,127,355,234,
0,532,689,125,377,231,
0,580,679,124,373,231,
0,573,670,127,369,273,
0,564,660,137,366,270,
0,558,652,138,363,267,
0,551,643,137,359,263,
0,545,633,135,356,262,
0,539,625,135,353,259,
0,532,615,133,348,257,
0,527,608,132,385,255,
0,608,689,131,381,254,
0,615,679,130,377,251,
0,608,670,156,374,262,
0,599,660,158,370,259,
0,591,652,156,367,287,
0,584,643,155,363,284,
0,577,635,153,359,281,
0,571,627,152,356,279,
0,564,616,151,353,276,
0,558,675,150,384,274,
0,612,791,148,380,271,
0,604,777,147,376,270,
0,596,766,149,372,271,
0,587,754,147,368,268,
0,580,743,146,365,265,
0,573,732,145,361,263,
0,567,722,143,359,261,
0,560,711,143,355,259,
0,553,700,142,352,257,
0,547,814,140,390,255,
0,613,810,140,386,252,
0,605,797,138,382,251,
0,598,785,139,379,249,
0,588,773,137,375,248,
0,580,761,135,371,245,
0,574,750,135,368,243,
0,568,739,134,364,241,
0,561,729,134,361,239,
0,555,716,132,357,238,
0,549,800,131,384,236,
0,596,787,130,380,233,
0,589,775,129,376,232,
0,582,763,131,372,231,
0,573,752,131,369,228,
0,566,740,132,366,227,
0,560,729,131,362,225,
0,553,719,130,359,224,
0,547,710,129,355,222,
0,540,698,128,352,220,
0,540,755,127,387,219,
0,596,743,126,384,217,
0,589,732,125,380,241,
0,582,721,125,376,239,
0,572,711,124,371,236,
0,566,700,123,368,234,
0,559,691,122,365,231,
0,552,681,121,361,230,
0,547,673,120,359,228,
0,540,663,120,363,227,
0,591,807,119,359,224,
0,591,793,118,356,223,
0,583,781,118,353,221,
0,575,769,117,350,219,
0,568,758,128,347,217,
0,561,747,127,344,216,
0,555,736,126,341,214,
0,548,725,125,338,212,
0,542,715,124,335,210,
0,536,716,124,377,209,
0,609,767,122,374,207,
0,600,755,121,369,206,
0,593,743,125,366,204,
0,583,732,124,363,203,
0,575,722,124,359,201,
0,569,711,124,355,199,
0,563,702,123,352,199,
0,556,692,121,350,197,
0,551,684,120,347,195,
0,543,749,120,380,194,
0,597,737,119,376,193,
0,589,726,118,372,192,
0,583,716,121,369,212,
0,573,705,120,366,211,
0,567,696,123,362,220,
0,560,686,121,359,218,
0,553,676,120,355,216,
0,547,668,120,352,214,
0,540,657,119,349,212,
0,536,687,118,376,211,
0,588,676,117,373,209,
0,582,667,115,369,218,
0,574,658,120,366,217,
0,566,649,119,363,216,
0,559,641,127,359,214,
0,551,633,126,355,211,
0,546,625,125,352,210,
0,540,618,124,350,207,
0,534,611,123,347,207,
0,528,659,122,380,204,
0,584,648,120,376,203,
0,577,639,120,373,280,
0,571,632,120,369,276,
0,562,623,121,366,273,
0,555,615,139,362,271,
0,548,607,137,359,268,
0,543,600,135,355,265,
0,536,593,135,352,263,
0,531,584,134,350,262,
0,568,665,133,364,259,
0,581,655,131,360,257,
0,574,647,135,358,255,
0,567,639,135,354,253,
0,559,630,135,351,252,
0,551,622,135,348,249,
0,545,614,133,344,248,
0,540,606,132,342,246,
0,533,598,131,339,243,
0,527,591,130,352,242,
0,574,620,129,364,240,
0,566,611,127,361,238,
0,560,603,131,358,241,
0,552,595,129,354,239,
0,543,588,140,351,238,
0,538,580,138,348,236,
0,532,574,136,344,233,
0,526,568,135,342,231,
0,519,561,135,339,230,
0,515,610,134,353,228,
0,593,624,132,350,227,
0,585,615,131,347,225,
0,579,607,134,344,310,
0,572,600,132,340,307,
0,563,591,133,337,304,
0,556,583,132,334,300,
0,550,577,131,332,297,
0,543,569,130,328,295,
0,537,563,129,326,292,
0,531,593,127,365,290,
0,574,585,127,359,287,
0,567,577,126,356,285,
0,560,570,140,353,283,
0,553,563,140,350,307,
0,545,556,138,347,319,
0,539,550,137,344,315,
0,532,543,135,340,312,
0,527,538,135,337,310,
0,521,532,134,335,307,
0,515,575,132,369,304,
0,583,568,131,364,301,
0,576,560,130,360,299,
0,569,553,132,357,295,
0,563,547,131,354,294,
0,555,540,134,351,291,
0,547,534,132,348,287,
0,542,527,131,344,286,
0,536,521,130,342,284,
0,529,516,129,338,281,
0,558,591,127,350,279,
0,575,583,127,345,276,
0,568,575,128,342,275,
0,561,569,127,339,271,
0,555,562,135,335,289,
0,547,555,134,333,287,
0,540,548,132,329,284,
0,534,542,131,327,280,
0,527,536,130,324,279,
0,522,529,129,325,275,
0,564,579,127,327,273,
0,567,572,127,324,271,
0,560,565,127,322,273,
0,552,558,127,319,270,
0,547,551,131,316,268,
0,539,543,130,314,265,
0,532,537,129,312,263,
0,526,531,127,309,261,
0,520,525,127,307,259,
0,515,519,126,344,257,
0,565,590,125,342,255,
0,558,582,124,339,253,
0,551,575,123,335,289,
0,543,568,122,332,287,
0,538,560,131,329,323,
0,529,553,129,327,319,
0,524,547,127,323,316,
0,518,540,127,321,313,
0,512,534,126,318,311,
0,508,585,125,358,307,
0,551,639,124,352,305,
0,543,632,123,350,302,
0,537,623,122,347,300,
0,531,615,121,344,297,
0,524,607,121,339,295,
0,518,599,120,337,292,
0,511,591,120,334,289,
0,505,583,119,331,287,
0,500,577,118,327,284,
0,496,591,117,363,282,
0,559,580,116,358,280,
0,551,574,115,355,279,
0,545,567,124,352,275,
0,539,560,123,348,273,
0,532,553,123,344,271,
0,524,547,121,342,270,
0,519,540,120,339,267,
0,513,535,120,335,263,
0,508,528,119,332,263,
0,519,621,118,350,260,
0,552,609,116,345,259,
0,545,601,124,342,255,
0,539,593,129,339,255,
0,532,587,136,335,318,
0,527,579,135,333,314,
0,519,572,134,329,310,
0,513,564,132,327,307,
0,508,558,131,324,304,
0,502,551,130,332,302,
0,551,615,129,376,300,
0,551,604,127,371,296,
0,544,595,131,368,295,
0,537,588,130,364,291,
0,531,580,129,359,289,
0,526,573,128,358,287,
0,518,566,127,353,284,
0,512,560,126,351,281,
0,507,552,125,348,280,
0,502,546,124,366,277,
0,551,595,123,363,275,
0,543,585,122,359,273,
0,537,577,143,355,271,
0,531,571,142,352,268,
0,525,563,141,348,279,
0,519,556,140,345,275,
0,511,550,138,343,272,
0,506,543,137,339,270,
0,500,537,135,336,268,
0,496,532,135,351,265,
0,560,540,134,348,263,
0,552,531,132,344,281,
0,547,525,132,340,329,
0,540,519,131,337,326,
0,534,513,132,334,323,
0,527,508,131,331,319,
0,519,504,129,327,316,
0,514,498,128,326,313,
0,508,493,127,323,311,
0,504,590,127,363,307,
0,561,599,126,359,305,
0,555,588,125,355,303,
0,547,581,125,352,300,
0,542,574,124,348,297,
0,535,567,127,344,295,
0,529,560,126,342,292,
0,521,553,125,339,290,
0,515,546,124,335,287,
0,510,540,123,333,286,
0,523,611,121,387,283,
0,572,603,120,383,280,
0,564,593,121,378,281,
0,558,585,127,375,279,
0,551,578,127,371,276,
0,545,571,127,368,275,
0,537,563,126,364,272,
0,531,557,125,360,270,
0,525,550,124,358,268,
0,519,543,123,355,265,
0,550,615,121,366,263,
0,549,608,120,363,262,
0,543,598,122,359,284,
0,536,590,121,355,283,
0,530,583,126,352,280,
0,524,575,125,349,277,
0,516,568,124,345,275,
0,511,561,122,343,271,
0,505,555,121,339,270,
0,500,548,120,369,268,
0,560,639,120,368,265,
0,553,631,119,364,263,
0,547,620,126,359,260,
0,540,611,124,356,259,
0,534,604,125,353,256,
0,527,595,124,350,255,
0,519,588,123,347,252,
0,514,582,121,344,251,
0,508,574,120,340,248,
0,503,575,120,368,247,
0,568,604,119,364,244,
0,561,595,118,359,243,
0,554,586,119,356,241,
0,547,579,118,352,240,
0,541,572,118,350,243,
0,535,564,116,346,240,
0,527,558,115,343,239,
0,521,551,115,339,236,
0,515,544,113,337,235,
0,511,621,113,386,232,
0,591,611,112,382,231,
0,583,603,111,377,230,
0,575,593,116,374,227,
0,568,585,115,369,239,
0,563,578,120,366,236,
0,556,571,119,363,234,
0,547,564,118,359,231,
0,542,557,116,356,230,
0,536,551,115,353,228,
0,529,644,115,382,226,
0,569,635,113,377,224,
0,562,624,114,374,223,
0,556,615,115,369,222,
0,548,608,119,366,257,
0,542,600,126,363,254,
0,536,592,125,359,252,
0,528,585,124,356,249,
0,523,578,123,353,247,
0,517,571,121,350,244,
0,568,628,120,367,243,
0,575,620,120,363,240,
0,568,609,130,359,251,
0,561,601,130,355,248,
0,555,593,149,352,267,
0,547,585,147,349,264,
0,542,579,146,345,263,
0,534,572,144,343,259,
0,527,564,143,339,257,
0,522,558,142,355,255,
0,578,581,140,352,252,
0,570,574,139,349,251,
0,563,564,150,345,262,
0,556,558,148,342,259,
0,550,551,147,339,293,
0,543,544,145,335,290,
0,537,538,144,333,287,
0,529,532,143,330,284,
0,524,526,142,327,281,
0,518,585,141,372,280,
0,578,684,140,368,276,
0,571,674,139,364,274,
0,564,663,155,361,319,
0,557,653,153,357,317,
0,551,644,152,353,313,
0,543,636,151,350,312,
0,538,627,150,347,308,
0,531,620,148,344,305,
0,524,612,147,340,302,
0,519,679,146,369,300,
0,580,709,144,365,297,
0,573,699,143,361,295,
0,566,686,147,358,292,
0,560,676,146,353,290,
0,552,668,147,351,287,
0,546,658,145,348,285,
0,540,649,144,344,283,
0,532,641,143,341,280,
0,527,633,142,338,278,
0,520,675,141,368,275,
0,567,664,140,364,273,
0,560,655,139,359,271,
0,553,644,147,357,269,
0,547,636,145,353,267,
0,540,627,143,350,264,
0,534,620,143,347,263,
0,527,611,142,344,260,
0,520,604,140,340,259,
0,515,598,139,337,255,
0,550,639,138,369,254,
0,566,630,137,366,252,
0,558,621,135,363,250,
0,551,611,135,359,248,
0,545,604,145,355,269,
0,539,595,143,352,267,
0,532,588,142,348,263,
0,527,582,141,345,262,
0,519,575,139,342,259,
0,513,568,139,359,257,
0,578,623,137,368,255,
0,569,614,135,364,252,
0,563,606,135,361,251,
0,556,596,134,357,248,
0,550,588,134,354,247,
0,543,581,133,351,244,
0,537,574,131,348,243,
0,531,568,131,344,241,
0,524,560,129,341,239,
0,518,582,129,372,237,
0,600,659,127,369,235,
0,591,649,127,366,233,
0,583,641,127,361,231,
0,576,631,126,358,230,
0,569,622,127,354,228,
0,563,614,126,352,227,
0,556,606,125,348,225,
0,551,599,124,344,224,
0,543,591,123,342,222,
0,536,609,122,369,220,
0,591,600,121,365,218,
0,583,591,120,361,217,
0,575,584,121,358,216,
0,569,575,120,355,240,
0,562,569,120,351,243,
0,556,562,119,348,241,
0,549,556,118,344,239,
0,543,550,117,342,237,
0,536,543,116,339,235,
0,530,644,115,376,231,
0,568,633,115,371,231,
0,561,625,113,368,228,
0,555,616,115,364,227,
0,548,607,115,359,244,
0,542,600,127,356,242,
0,536,591,125,353,240,
0,529,583,124,350,238,
0,524,577,123,347,236,
0,516,570,122,344,233,
0,548,622,121,366,231,
0,575,613,120,361,230,
0,568,605,127,359,249,
0,561,597,127,355,248,
0,555,588,129,351,246,
0,548,579,128,348,243,
0,542,573,127,344,241,
0,536,566,126,342,239,
0,529,559,125,338,237,
0,523,552,124,353,235,
0,591,644,123,376,231,
0,583,636,122,372,231,
0,575,627,139,368,230,
0,568,619,137,365,228,
0,561,608,137,360,226,
0,555,600,135,358,224,
0,548,593,135,354,223,
0,542,585,134,351,221,
0,536,579,132,348,220,
0,528,572,131,381,217,
0,566,642,130,377,216,
0,559,633,129,374,214,
0,552,624,159,370,212,
0,545,616,157,367,211,
0,540,606,156,362,255,
0,533,599,154,359,254,
0,527,591,152,355,252,
0,521,583,152,352,249,
0,515,576,151,349,248,
0,509,614,148,388,244,
0,573,632,147,384,243,
0,566,624,146,380,246,
0,559,615,161,377,275,
0,551,608,159,373,271,
0,545,598,159,369,269,
0,540,591,158,366,267,
0,533,583,156,362,263,
0,527,575,155,359,262,
0,521,569,153,355,260,
0,515,670,152,364,257,
0,580,658,151,359,255,
0,573,648,150,356,271,
0,566,639,158,353,268,
0,559,632,156,350,267,
0,552,621,155,346,263,
0,546,614,153,344,262,
0,540,606,152,340,259,
0,534,598,152,337,257,
0,526,591,151,335,255,
0,551,723,148,354,252,
0,574,711,147,351,250,
0,568,700,147,348,310,
0,560,691,145,344,306,
0,553,680,144,341,303,
0,547,669,143,337,300,
0,540,660,142,334,297,
0,535,652,141,331,295,
0,528,643,140,327,292,
0,521,635,139,337,290,
0,563,682,137,356,287,
0,562,671,136,352,284,
0,556,664,137,349,282,
0,549,654,135,346,280,
0,543,645,139,343,278,
0,536,635,137,339,275,
0,530,627,136,335,273,
0,524,618,135,333,271,
0,518,611,135,330,268,
0,511,604,134,370,267,
0,576,664,132,370,263,
0,569,654,131,367,262,
0,562,645,131,363,261,
0,556,636,129,359,259,
0,549,628,146,356,257,
0,542,617,144,352,255,
0,536,609,143,348,252,
0,530,602,142,345,251,
0,524,595,141,343,248,
0,518,602,140,376,248,
0,572,597,138,371,244,
0,564,590,137,367,243,
0,558,583,136,364,243,
0,551,575,135,359,241,
0,544,569,135,357,240,
0,538,560,134,353,238,
0,532,555,133,350,236,
0,526,548,131,347,234,
0,519,542,131,344,231,
0,514,632,130,399,231,
0,582,633,128,395,228,
0,575,624,127,391,292,
0,568,615,135,387,291,
0,561,608,135,384,287,
0,554,598,135,380,286,
0,547,591,134,375,283,
0,541,583,132,371,280,
0,536,575,131,368,278,
0,529,569,130,365,275,
0,524,675,129,384,273,
0,562,664,127,380,271,
0,555,655,127,376,268,
0,548,646,127,373,266,
0,542,636,129,369,263,
0,536,626,130,366,262,
0,529,618,129,362,259,
0,524,611,127,359,257,
0,518,603,127,355,255,
0,512,595,126,353,254,
0,572,784,125,374,252,
0,575,771,124,371,248,
0,568,759,132,367,259,
0,562,748,131,363,257,
0,555,736,132,359,255,
0,548,723,131,356,252,
0,542,713,130,352,250,
0,536,704,129,350,248,
0,530,694,127,347,246,
0,524,684,127,382,244,
0,575,675,126,380,242,
0,568,667,125,376,240,
0,561,659,135,372,238,
0,554,650,135,369,236,
0,547,642,137,366,234,
0,541,632,135,361,232,
0,535,624,135,358,231,
0,529,616,134,355,229,
0,523,609,132,352,227,
0,518,628,131,365,225,
0,567,669,129,361,224,
0,559,659,128,358,233,
0,552,651,135,354,291,
0,545,642,134,351,288,
0,540,633,145,348,286,
0,533,623,143,344,283,
0,527,615,143,341,280,
0,521,608,141,338,278,
0,515,600,140,335,275,
0,510,713,139,372,273,
0,556,716,137,368,271,
0,548,704,136,364,270,
0,542,695,139,361,268,
0,536,685,137,358,265,
0,529,675,137,355,263,
0,524,664,135,351,261,
0,518,655,135,348,259,
0,512,647,134,344,257,
0,506,639,132,341,255,
0,502,688,131,372,253,
0,584,678,130,368,251,
0,577,668,129,364,248,
0,570,659,129,361,246,
0,563,649,132,358,244,
0,557,641,135,355,243,
0,551,632,134,352,240,
0,543,623,132,348,239,
0,537,615,131,344,237,
0,531,608,131,342,235,
0,526,652,129,363,233,
0,569,643,127,359,231,
0,562,634,147,355,230,
0,556,625,147,352,227,
0,548,617,147,350,241,
0,543,609,145,346,239,
0,536,600,143,342,237,
0,530,592,143,339,236,
0,524,585,142,336,233,
0,519,579,140,370,231,
0,555,643,140,379,230,
0,562,633,137,376,227,
0,556,625,146,371,235,
0,548,616,144,368,231,
0,542,608,144,364,231,
0,536,601,143,361,228,
0,529,591,142,357,227,
0,524,584,140,353,225,
0,518,577,140,351,223,
0,512,592,139,371,222,
0,575,659,137,367,220,
0,566,649,135,363,218,
0,560,641,137,359,225,
0,552,632,135,356,224,
0,546,624,135,353,232,
0,540,615,134,350,231,
0,534,606,133,345,228,
0,527,598,131,343,227,
0,521,591,131,339,224,
0,516,659,129,385,223,
0,578,654,128,381,221,
0,569,645,127,377,227,
0,562,636,132,374,225,
0,555,627,131,370,224,
0,548,620,145,367,222,
0,542,611,143,364,220,
0,536,602,143,359,218,
0,530,595,142,355,216,
0,524,587,140,352,216,
0,519,664,140,381,214,
0,572,654,138,376,211,
0,563,644,137,374,247,
0,556,636,140,369,243,
0,549,627,138,366,241,
0,543,620,137,363,239,
0,536,611,136,359,237,
0,530,601,135,355,235,
0,524,593,135,352,233,
0,518,587,134,349,231,
0,513,589,132,359,229,
0,561,581,131,355,227,
0,551,574,136,352,248,
0,545,568,135,349,246,
0,540,561,139,345,246,
0,533,555,138,343,243,
0,527,548,136,339,241,
0,520,542,135,335,240,
0,515,536,135,333,238,
0,510,529,134,358,236,
0,537,639,132,373,233,
0,558,631,131,369,231,
0,550,622,131,366,231,
0,543,614,130,363,228,
0,536,606,139,359,231,
0,531,598,137,355,231,
0,524,590,135,352,228,
0,519,581,135,348,227,
0,513,574,134,345,224,
0,508,593,132,371,223,
0,580,676,131,367,221,
0,574,667,130,364,219,
0,566,657,144,359,271,
0,559,647,143,356,269,
0,551,639,142,353,267,
0,545,632,140,350,263,
0,540,623,140,347,262,
0,533,613,139,343,259,
0,527,606,137,339,257,
0,521,655,135,361,255,
0,571,653,135,357,253,
0,563,643,134,353,251,
0,555,635,140,351,278,
0,547,627,138,348,275,
0,542,619,139,344,272,
0,536,610,138,341,270,
0,529,603,136,338,268,
0,523,593,135,334,265,
0,517,586,135,332,263,
0,512,636,134,375,260,
0,583,627,132,371,259,
0,575,617,131,368,255,
0,568,610,137,364,254,
0,561,601,135,359,252,
0,555,594,136,356,249,
0,547,587,135,353,248,
0,542,579,135,351,246,
0,536,571,133,347,243,
0,529,564,132,344,242,
0,524,632,131,377,240,
0,560,624,130,374,238,
0,551,615,129,370,254,
0,545,607,135,366,254,
0,539,600,135,363,273,
0,532,591,133,359,271,
0,527,583,132,356,268,
0,520,576,131,353,265,
0,515,568,130,349,263,
0,509,561,129,358,262,
0,529,605,127,376,259,
0,551,596,127,372,255,
0,543,589,126,368,284,
0,537,582,125,365,280,
0,531,574,126,361,277,
0,524,567,125,359,275,
0,519,560,124,355,272,
0,513,553,123,352,270,
0,508,545,122,348,268,
0,502,540,121,369,265,
0,550,633,120,366,263,
0,547,624,120,361,261,
0,540,616,140,359,259,
0,533,608,137,355,255,
0,527,600,140,352,305,
0,521,592,139,348,302,
0,515,585,137,345,300,
0,510,577,135,343,295,
0,504,569,135,339,294,
0,499,588,134,371,291,
0,577,579,132,368,289,
0,569,572,131,364,287,
0,560,565,134,359,284,
0,553,558,132,357,281,
0,547,551,131,353,279,
0,541,545,130,351,276,
0,535,539,129,347,274,
0,528,531,127,344,271,
0,523,526,127,340,270,
0,518,598,126,365,268,
0,563,589,125,361,265,
0,556,582,124,358,263,
0,548,574,125,355,262,
0,542,567,124,352,274,
0,536,560,123,348,271,
0,529,552,122,344,269,
0,524,546,121,342,267,
0,518,538,120,339,263,
0,512,531,120,335,262,
0,507,608,119,366,259,
0,563,599,118,361,257,
0,556,591,117,359,255,
0,547,583,116,355,254,
0,541,575,124,352,251,
0,535,568,123,348,249,
0,528,562,121,345,248,
0,523,555,120,343,246,
0,516,547,120,339,243,
0,511,540,119,339,242,
0,517,608,118,362,240,
0,560,600,116,359,238,
0,552,591,117,355,236,
0,544,583,118,352,235,
0,538,576,145,348,232,
0,531,569,143,345,231,
0,526,562,142,343,229,
0,519,556,141,339,227,
0,514,547,140,335,225,
0,508,541,139,357,224,
0,571,638,137,353,223,
0,569,628,136,350,221,
0,563,620,135,347,233,
0,554,611,135,344,231,
0,547,604,135,339,228,
0,541,596,134,337,227,
0,535,588,133,334,225,
0,528,581,132,331,223,
0,523,572,131,327,221,
0,517,611,130,369,220,
0,592,659,128,365,217,
0,583,651,127,361,216,
0,577,642,127,358,215,
0,568,633,126,355,213,
0,561,624,135,352,217,
0,555,616,134,348,216,
0,548,608,133,345,214,
0,542,601,131,342,212,
0,536,591,131,339,211,
0,530,679,129,367,209,
0,581,668,128,363,207,
0,574,659,127,359,225,
0,567,649,127,355,267,
0,558,641,127,353,263,
0,551,632,128,350,261,
0,545,624,127,346,259,
0,539,615,127,343,255,
0,532,608,125,339,254,
0,527,600,124,337,252,
0,521,654,124,368,249,
0,551,644,123,364,248,
0,543,636,121,360,247,
0,537,627,129,358,245,
0,529,619,127,354,243,
0,523,611,127,351,240,
0,518,603,126,348,239,
0,512,595,125,344,236,
0,506,588,124,342,235,
0,500,579,123,343,233,
0,499,619,122,383,231,
0,543,610,121,379,229,
0,537,602,120,375,228,
0,531,594,129,371,226,
0,523,587,141,368,257,
0,517,579,140,364,253,
0,511,572,139,361,251,
0,505,566,137,358,249,
0,499,560,135,354,247,
0,495,551,135,367,245,
0,542,643,134,368,243,
0,547,635,132,365,240,
0,541,627,150,361,265,
0,535,617,148,358,263,
0,527,609,147,355,260,
0,520,601,145,352,257,
0,515,594,143,348,255,
0,510,587,143,345,252,
0,504,579,142,343,251,
0,499,639,141,382,248,
0,568,700,140,377,246,
0,560,691,138,374,244,
0,553,680,150,369,308,
0,547,671,149,366,305,
0,539,662,147,363,302,
0,532,653,146,359,299,
0,527,644,145,356,295,
0,519,636,143,353,293,
0,515,628,143,350,291,
0,509,664,142,376,288,
0,551,653,140,371,286,
0,543,644,139,368,284,
0,537,636,162,364,283,
0,531,627,160,361,280,
0,523,619,161,358,284,
0,517,611,160,355,281,
0,511,604,159,352,279,
0,505,596,158,348,276,
0,500,589,156,345,275,
0,496,641,155,374,271,
0,559,632,153,369,270,
0,551,623,152,366,285,
0,545,615,152,363,295,
0,538,607,151,359,292,
0,531,599,150,355,289,
0,524,591,148,352,287,
0,519,583,147,349,284,
0,513,577,146,346,281,
0,507,570,144,344,280,
0,502,613,143,378,277,
0,552,604,142,375,275,
0,545,596,142,371,295,
0,539,588,146,367,292,
0,532,582,145,364,290,
0,525,574,145,359,287,
0,519,567,144,357,284,
0,513,560,143,354,281,
0,508,554,142,351,279,
0,502,547,141,348,277,
0,551,627,140,375,275,
0,568,619,139,371,271,
0,561,611,145,368,284,
0,555,602,147,364,281,
0,548,595,145,360,279,
0,540,587,143,358,275,
0,534,579,143,354,273,
0,527,572,142,351,271,
0,522,566,140,348,268,
0,516,559,140,367,266,
0,551,558,138,380,263,
0,543,551,137,376,262,
0,538,545,173,373,259,
0,531,539,171,369,258,
0,526,533,169,366,259,
0,518,527,167,363,255,
0,512,521,166,359,254,
0,507,516,164,355,252,
0,501,511,163,352,250,
0,496,543,162,368,248,
0,551,654,161,363,246,
0,543,644,159,359,244,
0,537,636,167,355,263,
0,531,627,166,352,260,
0,523,619,164,350,258,
0,517,611,163,346,255,
0,511,603,161,344,253,
0,505,595,159,340,251,
0,500,588,159,337,248,
0,496,639,157,369,247,
0,568,641,156,364,244,
0,560,633,155,360,262,
0,553,624,161,358,304,
0,547,616,159,354,300,
0,539,608,159,351,297,
0,532,600,157,348,295,
0,527,593,156,344,291,
0,520,585,155,341,289,
0,515,579,153,338,287,
0,509,636,152,372,284,
0,575,624,151,368,282,
0,568,615,150,364,350,
0,561,608,167,359,363,
0,555,600,166,358,359,
0,547,591,164,353,355,
0,540,584,163,351,352,
0,535,577,161,348,348,
0,527,571,160,344,345,
0,522,563,159,342,342,
0,556,691,158,369,339,
0,570,677,156,364,335,
0,563,668,156,361,333,
0,556,659,154,358,330,
0,550,649,152,354,327,
0,542,639,152,351,324,
0,536,632,150,348,321,
0,529,624,149,344,319,
0,524,616,148,341,316,
0,518,614,147,355,313,
0,598,785,145,369,311,
0,591,768,144,364,308,
0,583,757,157,360,332,
0,575,745,156,358,329,
0,569,735,154,353,326,
0,561,723,152,351,323,
0,555,714,152,348,319,
0,548,704,150,344,316,
0,542,695,148,342,313,
0,536,686,147,369,312,
0,569,732,146,366,308,
0,562,720,145,360,305,
0,556,710,146,358,304,
0,548,700,145,354,301,
0,542,690,143,351,299,
0,534,680,143,348,295,
0,527,671,141,344,293,
0,523,664,140,342,291,
0,516,655,139,339,289,
0,512,704,138,372,287,
0,602,817,137,368,284,
0,594,803,135,364,282,
0,587,792,137,359,280,
0,579,779,136,357,278,
0,572,767,135,353,275,
0,564,755,135,351,273,
0,558,745,133,348,271,
0,551,735,132,344,269,
0,545,724,131,341,267,
0,540,723,130,364,265,
0,545,710,129,359,263,
0,539,700,127,355,262,
0,533,691,131,352,259,
0,527,681,131,350,258,
0,521,672,134,346,255,
0,514,664,131,343,254,
0,508,655,131,339,252,
0,504,647,129,337,249,
0,498,639,128,334,248,
0,517,647,127,358,246,
0,540,636,127,355,244,
0,534,628,127,351,247,
0,527,620,134,348,244,
0,521,613,139,344,255,
0,515,606,137,341,252,
0,508,599,135,338,250,
0,504,591,135,335,248,
0,497,585,134,332,246,
0,492,579,133,340,243,
0,560,662,131,372,241,
0,560,649,131,368,240,
0,553,639,142,364,238,
0,547,632,141,360,236,
0,540,624,143,358,254,
0,534,615,141,354,251,
0,526,608,140,351,249,
0,519,600,139,348,246,
0,514,592,137,344,244,
0,508,585,136,368,242,
0,563,650,135,364,240,
0,556,639,134,360,238,
0,549,630,139,356,278,
0,542,622,137,353,275,
0,536,614,137,350,275,
0,529,606,135,347,272,
0,522,598,135,344,270,
0,516,590,134,340,268,
0,511,583,132,337,264,
0,505,636,131,376,263,
0,577,775,131,371,260,
0,569,760,129,367,259,
0,563,748,132,363,255,
0,556,737,131,359,254,
0,549,726,133,355,252,
0,543,716,131,352,249,
0,535,706,130,350,248,
0,529,696,129,347,246,
0,523,687,127,344,243,
0,518,756,127,368,241,
0,577,743,126,364,240,
0,569,729,126,359,246,
0,563,719,128,357,244,
0,556,708,127,353,242,
0,550,699,135,350,240,
0,543,689,133,347,238,
0,536,679,131,344,236,
0,529,671,131,341,234,
0,523,663,129,338,231,
0,536,675,128,377,231,
0,566,664,127,373,229,
0,559,653,127,368,227,
0,551,645,126,365,225,
0,545,637,127,361,224,
0,539,629,127,358,223,
0,532,622,126,355,221,
0,525,614,124,352,220,
0,519,607,124,348,217,
0,513,600,123,345,216,
0,557,645,121,379,215,
0,556,636,120,375,213,
0,548,625,120,370,211,
0,542,615,120,367,210,
0,536,608,129,364,255,
0,529,600,127,359,253,
0,524,593,127,356,251,
0,515,586,126,353,248,
0,511,579,124,350,246,
0,504,573,124,366,243,
0,568,648,123,365,241,
0,560,639,121,361,240,
0,553,628,121,357,238,
0,546,620,120,353,236,
0,540,611,120,351,260,
0,534,604,120,347,257,
0,527,596,119,344,255,
0,519,589,118,341,252,
0,514,582,117,338,251,
0,509,602,116,371,248,
0,573,648,115,368,246,
0,566,639,114,364,243,
0,559,628,115,359,246,
0,551,620,115,355,243,
0,545,612,132,352,246,
0,540,604,131,350,244,
0,533,596,130,347,242,
0,526,589,129,344,240,
0,519,582,127,340,238,
0,515,622,127,380,236,
0,559,611,126,376,233,
0,551,604,125,372,231,
0,545,594,124,368,230,
0,539,586,123,364,271,
0,532,579,123,361,275,
0,526,572,121,358,271,
0,520,566,120,354,270,
0,513,560,120,351,267,
0,508,553,118,348,263,
0,511,547,118,376,262,
0,547,541,116,371,259,
0,541,536,115,368,259,
0,535,528,115,363,255,
0,528,523,116,359,254,
0,523,518,125,356,252,
0,516,512,124,353,250,
0,511,507,123,350,248,
0,504,502,121,347,246,
0,499,497,120,344,243,
0,561,543,120,384,241,
0,578,536,118,380,240,
0,571,530,131,376,238,
0,563,521,131,372,236,
0,557,515,132,368,233,
0,551,510,131,366,231,
0,543,504,130,361,230,
0,537,498,128,359,228,
0,530,494,127,355,226,
0,524,487,126,372,225,
0,594,603,125,375,223,
0,585,594,124,371,221,
0,579,587,127,367,262,
0,572,576,127,363,259,
0,564,569,127,359,257,
0,558,563,126,355,255,
0,551,556,125,353,252,
0,543,549,124,350,251,
0,537,543,123,347,248,
0,531,575,121,367,246,
0,580,685,120,362,243,
0,574,675,120,359,241,
0,567,665,127,355,240,
0,560,654,126,352,238,
0,553,645,131,348,236,
0,547,636,130,345,233,
0,540,628,129,342,231,
0,532,620,127,339,230,
0,526,612,127,335,227,
0,521,667,126,363,226,
0,564,662,124,359,224,
0,558,652,124,355,230,
0,551,643,131,352,227,
0,543,632,131,348,233,
0,537,624,129,344,231,
0,531,615,129,342,228,
0,525,608,127,339,227,
0,519,600,127,335,225,
0,513,593,125,333,223,
0,508,714,124,379,220,
0,568,702,124,375,219,
0,561,691,122,371,267,
0,554,681,127,367,263,
0,547,670,126,363,260,
0,541,661,134,359,259,
0,535,652,132,356,255,
0,529,643,131,352,254,
0,521,635,130,350,252,
0,515,627,129,347,249,
0,553,642,127,372,247,
0,559,632,127,368,245,
0,551,624,126,365,243,
0,545,616,125,361,241,
0,539,607,126,357,239,
0,532,600,125,354,237,
0,527,591,124,351,235,
0,520,585,123,348,233,
0,513,578,122,344,231,
0,508,572,121,357,229,
0,558,607,120,368,227,
0,551,599,119,364,225,
0,545,591,127,360,224,
0,539,582,126,358,222,
0,532,574,131,353,220,
0,526,568,129,350,219,
0,519,561,128,347,216,
0,514,555,127,344,216,
0,507,548,126,340,214,
0,502,543,125,371,211,
0,564,536,124,368,210,
0,557,531,123,364,208,
0,551,525,126,359,243,
0,543,518,124,356,240,
0,537,512,125,353,238,
0,531,508,124,350,236,
0,525,502,123,347,234,
0,519,496,122,344,231,
0,512,492,120,340,230,
0,507,551,120,368,227,
0,575,579,119,364,225,
0,568,572,118,359,230,
0,561,564,120,357,228,
0,554,556,119,353,227,
0,547,549,134,350,224,
0,542,543,132,347,223,
0,535,536,131,344,221,
0,529,529,130,340,219,
0,521,524,129,337,217,
0,515,600,127,361,216,
0,539,591,127,358,214,
0,532,583,126,354,211,
0,526,575,124,351,210,
0,519,567,124,348,209,
0,514,560,123,344,207,
0,508,553,121,340,206,
0,504,546,121,337,204,
0,497,540,120,334,204,
0,492,534,119,332,202,
0,523,608,118,368,199,
0,548,600,117,364,199,
0,542,591,120,361,198,
0,536,583,120,358,196,
0,529,575,123,355,199,
0,523,568,121,350,196,
0,517,560,120,347,195,
0,511,553,120,344,193,
0,505,547,119,340,192,
0,499,541,118,350,192,
0,561,615,116,361,190,
0,556,606,115,358,188,
0,550,599,116,355,187,
0,543,591,115,351,185,
0,537,581,124,348,225,
0,531,574,123,344,224,
0,524,568,122,340,222,
0,519,560,120,337,220,
0,513,553,120,335,217,
0,506,547,119,365,216,
0,568,609,118,361,214,
0,560,601,116,358,211,
0,554,594,123,355,275,
0,547,585,121,352,271,
0,540,575,140,348,287,
0,535,569,139,344,284,
0,527,563,137,341,281,
0,522,556,135,338,279,
0,516,550,135,335,276,
0,510,593,134,385,274,
0,572,624,132,380,271,
0,563,615,131,376,268,
0,557,607,131,372,267,
0,551,600,130,369,280,
0,543,590,133,365,284,
0,537,582,131,361,281,
0,531,575,131,359,279,
0,526,568,129,355,275,
0,519,561,128,352,273,
0,513,739,127,376,271,
0,553,727,126,372,268,
0,547,716,125,368,266,
0,540,705,124,365,263,
0,534,696,124,361,262,
0,527,684,129,358,259,
0,521,674,128,354,257,
0,515,665,127,351,255,
0,510,656,126,348,254,
0,504,648,125,344,252,
0,530,726,124,366,249,
0,566,713,123,363,247,
0,559,703,122,359,264,
0,551,693,121,355,263,
0,545,684,121,352,259,
0,540,671,120,348,257,
0,533,663,120,345,255,
0,527,654,118,343,253,
0,521,646,117,339,251,
0,515,664,116,339,249,
0,639,745,115,366,247,
0,644,733,114,362,244,
0,636,723,123,359,279,
0,628,711,121,355,275,
0,620,702,120,352,273,
0,612,690,120,348,271,
0,605,679,119,345,269,
0,598,671,118,342,266,
0,591,663,116,339,263,
0,583,654,115,366,262,
0,577,713,115,366,259,
0,571,702,113,363,257,
0,564,692,127,359,280,
0,558,683,126,355,278,
0,551,673,127,352,275,
0,546,662,127,348,272,
0,540,653,126,345,271,
0,534,645,124,343,268,
0,528,636,124,339,265,
0,523,630,123,368,263,
0,534,621,121,364,261,
0,527,614,120,360,259,
0,521,606,137,358,256,
0,515,600,135,354,255,
0,510,591,140,351,252,
0,504,583,137,347,250,
0,499,576,136,344,248,
0,495,570,135,340,247,
0,489,563,135,337,244,
0,485,558,134,383,243,
0,537,551,132,379,240,
0,531,545,131,375,238,
0,524,540,130,371,236,
0,519,534,129,368,235,
0,512,527,140,364,232,
0,507,520,139,359,231,
0,501,515,137,356,229,
0,496,510,135,353,227,
0,491,504,135,351,226,
0,486,655,135,368,224,
0,553,705,132,364,222,
0,547,695,131,359,224,
0,540,685,131,358,222,
0,534,675,147,355,263,
0,527,666,156,351,261,
0,521,655,155,347,259,
0,515,647,153,344,255,
0,510,638,152,340,254,
0,504,630,151,340,252,
0,500,801,149,395,249,
0,552,787,147,391,247,
0,545,775,147,387,251,
0,539,764,145,384,248,
0,532,752,145,380,295,
0,527,741,143,376,292,
0,520,728,143,371,289,
0,515,718,141,368,287,
0,509,708,140,365,284,
0,504,699,139,385,281,
0,584,790,138,383,280,
0,575,777,136,379,276,
0,569,766,147,376,274,
0,563,754,145,371,271,
0,556,743,143,368,270,
0,549,732,143,364,268,
0,543,719,142,360,265,
0,536,710,140,358,263,
0,531,700,140,354,261,
0,524,726,138,374,259,
0,567,875,137,369,257,
0,560,859,135,366,254,
0,552,845,135,363,252,
0,546,831,134,359,250,
0,540,818,133,356,248,
0,534,806,131,352,246,
0,527,790,131,349,244,
0,521,779,129,345,243,
0,515,768,129,343,240,
0,510,760,127,361,239,
0,507,750,127,358,237,
0,502,739,126,355,236,
0,496,729,130,352,233,
0,491,719,129,348,231,
0,486,710,156,345,230,
0,481,700,155,342,228,
0,476,688,153,338,227,
0,472,679,152,335,224,
0,467,671,151,332,223,
0,463,664,150,379,221,
0,457,655,148,376,220,
0,454,647,166,371,225,
0,449,639,180,368,223,
0,445,632,179,364,221,
0,441,624,177,361,220,
0,437,616,176,358,217,
0,433,608,174,353,216,
0,429,600,173,351,214,
0,425,593,172,348,213,
0,437,588,169,366,211,
0,535,580,168,362,209,
0,527,574,167,359,216,
0,521,568,166,355,215,
0,515,562,164,352,222,
0,510,556,163,349,220,
0,504,548,162,345,219,
0,499,768,160,342,216,
0,493,754,159,339,215,
0,487,743,158,364,213,
0,518,732,157,365,211,
0,520,720,156,361,209,
0,515,711,155,359,224,
0,508,700,153,355,222,
0,503,691,152,352,222,
0,497,681,151,348,220,
0,492,670,150,345,217,
0,487,662,148,342,216,
0,481,653,147,338,214,
0,476,645,147,351,212,
0,481,637,145,347,211,
0,476,628,144,344,208,
0,472,622,232,340,207,
0,466,614,259,337,220,
0,462,606,257,335,268,
0,456,599,255,332,266,
0,452,590,252,329,263,
0,448,583,250,326,262,
0,444,576,248,323,259,
0,440,660,246,384,257,
0,512,668,243,380,255,
0,504,659,241,376,252,
0,498,649,239,371,262,
0,492,641,237,368,259,
0,487,632,236,364,257,
0,481,624,233,361,255,
0,476,615,231,358,252,
0,472,607,230,354,251,
0,467,600,228,351,248,
0,462,596,227,372,247,
0,481,589,225,369,244,
0,474,582,223,365,243,
0,468,575,221,361,245,
0,463,568,219,359,248,
0,459,561,217,355,246,
0,454,556,216,352,243,
0,449,547,214,348,241,
0,445,542,212,344,240,
0,441,636,211,342,238,
0,483,729,209,359,236,
0,613,717,207,355,233,
0,603,707,206,352,231,
0,595,696,207,348,230,
0,588,687,281,345,228,
0,580,678,278,342,227,
0,574,668,275,339,225,
0,568,657,272,335,223,
0,561,648,270,332,221,
0,555,639,268,368,220,
0,583,756,265,391,217,
0,600,743,263,387,216,
0,591,733,260,384,278,
0,583,722,258,380,274,
0,577,711,255,376,271,
0,569,702,254,373,269,
0,563,691,252,369,267,
0,557,680,249,366,263,
0,551,671,248,361,262,
0,543,663,246,371,259,
0,540,654,244,368,257,
0,534,646,242,364,255,
0,527,638,240,361,270,
0,521,630,238,358,267,
0,516,622,236,354,263,
0,511,614,235,352,262,
0,505,607,233,348,259,
0,500,758,231,344,257,
0,495,862,229,342,255,
0,489,847,227,381,253,
0,588,832,226,376,251,
0,580,819,224,373,249,
0,572,807,297,369,273,
0,564,794,294,366,271,
0,558,783,291,363,268,
0,551,771,287,359,267,
0,544,760,286,355,263,
0,538,747,283,352,262,
0,532,736,280,349,259,
0,527,854,279,380,257,
0,676,903,276,376,255,
0,665,910,273,372,263,
0,655,910,271,368,312,
0,647,888,269,365,331,
0,639,871,267,361,327,
0,631,857,264,359,323,
0,623,844,263,355,320,
0,615,827,260,351,318,
0,608,815,258,348,315,
0,601,850,255,381,312,
0,594,835,255,377,310,
0,588,822,252,374,307,
0,579,809,250,370,304,
0,572,796,248,367,301,
0,566,785,246,363,299,
0,560,774,244,359,295,
0,553,763,243,356,294,
0,548,750,240,352,291,
0,542,739,239,365,289,
0,537,730,237,374,287,
0,577,719,236,370,284,
0,569,711,233,367,281,
0,561,702,255,363,280,
0,555,692,252,359,303,
0,548,684,249,356,300,
0,542,675,248,353,297,
0,536,667,246,350,295,
0,530,656,243,346,292,
0,524,648,241,371,289,
0,519,687,240,368,287,
0,513,839,238,364,284,
0,508,826,236,359,282,
0,502,812,233,358,280,
0,497,799,235,353,302,
0,492,787,231,351,299,
0,487,775,231,348,295,
0,483,764,229,344,294,
0,478,751,227,340,291,
0,473,740,225,376,289,
0,508,844,224,372,286,
0,502,829,222,369,284,
0,496,816,223,366,281,
0,489,803,235,361,278,
0,483,791,232,359,275,
0,479,779,231,355,273,
0,473,768,228,352,271,
0,468,849,227,349,270,
0,463,830,225,345,268,
0,460,816,224,384,265,
0,457,803,222,380,263,
0,453,791,220,376,261,
0,448,779,218,373,259,
0,444,768,216,369,257,
0,440,756,215,366,255,
0,435,745,213,363,253,
0,432,735,211,359,251,
0,428,725,210,356,249,
0,423,712,208,352,248,
0,420,704,207,361,246,
0,418,694,206,358,243,
0,415,684,204,355,242,
0,411,676,203,352,240,
0,407,668,201,348,240,
0,403,659,199,344,238,
0,399,651,199,342,236,
0,396,643,197,339,234,
0,393,636,195,335,231,
0,390,626,195,345,231,
0,391,697,193,371,229,
0,471,688,192,368,227,
0,465,679,190,364,297,
0,459,668,189,360,294,
0,454,659,188,358,290,
0,448,651,186,354,287,
0,444,642,184,351,285,
0,440,633,184,348,283,
0,435,625,182,344,280,
0,431,667,182,348,278,
0,488,830,179,345,275,
0,540,815,179,343,273,
0,534,802,177,339,271,
0,525,790,176,336,268,
0,519,777,175,334,265,
0,513,766,174,331,263,
0,508,755,172,327,262,
0,502,743,172,325,259,
0,496,733,170,323,257,
0,491,721,169,363,255,
0,486,711,167,359,253,
0,481,701,167,355,251,
0,476,691,166,352,249,
0,470,683,164,348,248,
0,465,674,255,345,245,
0,460,665,252,342,243,
0,455,657,249,339,241,
0,451,648,248,335,239,
0,448,639,244,334,238,
0,443,883,243,371,236,
0,439,883,240,367,233,
0,434,866,239,364,231,
0,430,852,236,359,231,
0,425,839,235,356,228,
0,422,825,231,353,227,
0,417,812,231,350,225,
0,414,799,229,347,223,
0,410,787,227,344,222,
0,407,776,225,341,220,
0,419,899,224,355,219,
0,600,908,222,352,216,
0,591,912,220,348,243,
0,583,913,223,345,246,
0,575,902,278,342,243,
0,568,878,274,339,240,
0,561,864,271,335,238,
0,555,849,270,333,236,
0,547,836,267,330,233,
0,542,820,264,327,231,
0,536,835,263,356,230,
0,534,903,260,353,228,
0,527,911,259,350,230,
0,522,914,255,345,227,
0,515,915,254,343,237,
0,510,904,252,339,233,
0,504,880,249,336,231,
0,499,865,248,334,230,
0,494,851,246,331,227,
0,488,888,243,327,226,
0,484,906,241,345,224,
0,480,911,240,342,223,
0,475,913,286,339,220,
0,470,899,364,335,219,
0,463,877,359,332,235,
0,460,863,355,329,231,
0,455,848,352,327,230,
0,451,838,348,323,227,
0,447,903,345,321,226,
0,443,912,343,347,224,
0,539,915,339,353,222,
0,531,911,335,350,220,
0,524,886,334,347,222,
0,518,871,331,344,220,
0,511,856,327,340,272,
0,504,843,324,337,269,
0,499,830,322,334,267,
0,494,817,319,331,263,
0,488,805,317,327,263,
0,483,792,315,370,259,
0,479,824,312,365,258,
0,473,826,310,361,255,
0,469,813,307,358,254,
0,464,799,304,355,252,
0,459,787,302,352,257,
0,454,775,300,348,254,
0,449,765,297,345,252,
0,446,872,295,342,249,
0,440,905,292,339,248,
0,437,909,290,359,246,
0,434,891,287,355,243,
0,430,873,286,352,241,
0,427,860,284,349,240,
0,423,846,281,345,238,
0,417,831,280,343,236,
0,414,819,277,339,234,
0,410,807,275,336,231,
0,407,795,273,334,231,
0,403,783,271,331,228,
0,423,891,270,356,227,
0,544,906,267,352,225,
0,537,911,276,348,231,
0,531,915,302,345,230,
0,524,916,299,342,229,
0,518,910,295,339,227,
0,512,883,293,335,224,
0,505,867,291,332,223,
0,500,854,287,329,221,
0,495,903,286,327,220,
0,490,911,284,371,217,
0,484,903,281,366,216,
0,480,880,279,363,215,
0,475,865,276,359,213,
0,470,852,275,356,261,
0,463,838,271,353,258,
0,460,824,270,350,255,
0,455,836,268,346,253,
0,451,903,265,344,251,
0,446,910,263,350,248,
0,441,909,262,355,246,
0,438,886,259,352,244,
0,433,871,257,349,242,
0,429,856,255,345,240,
0,425,843,254,343,238,
0,420,829,252,339,236,
0,416,816,249,336,233,
0,413,804,248,333,231,
0,409,792,247,331,230,
0,406,781,244,373,228,
0,543,901,243,368,227,
0,543,906,241,364,224,
0,536,890,240,361,250,
0,529,872,238,358,248,
0,524,859,236,354,247,
0,515,844,234,351,244,
0,510,831,233,348,242,
0,504,818,231,344,240,
0,499,806,230,342,238,
0,494,839,228,365,236,
0,488,905,227,359,233,
0,483,908,225,357,236,
0,479,890,224,353,237,
0,473,872,222,351,235,
0,468,859,258,347,232,
0,463,844,255,344,231,
0,459,831,253,340,228,
0,454,818,251,337,227,
0,449,806,248,335,225,
0,446,830,247,370,223,
0,596,820,244,365,221,
0,588,807,248,361,222,
0,580,795,246,359,220,
0,574,783,244,355,218,
0,567,771,263,352,216,
0,559,760,260,348,215,
0,551,750,259,345,212,
0,545,739,255,342,211,
0,540,730,254,339,209,
0,534,852,252,368,207,
0,527,873,249,363,207,
0,522,859,248,359,252,
0,516,844,246,355,248,
0,511,831,243,352,259,
0,505,817,242,349,257,
0,499,804,239,345,254,
0,494,802,238,343,252,
0,488,903,236,340,249,
0,484,909,233,342,248,
0,480,905,231,356,246,
0,475,878,230,352,243,
0,470,864,233,348,241,
0,465,849,231,345,240,
0,460,836,230,342,238,
0,455,823,227,339,236,
0,451,810,225,335,233,
0,446,798,224,333,231,
0,442,787,223,330,230,
0,438,900,220,368,227,
0,518,909,219,366,225,
0,511,914,217,361,224,
0,504,916,216,358,267,
0,499,918,215,355,263,
0,494,909,213,352,262,
0,487,881,211,348,259,
0,481,867,210,344,255,
0,476,852,208,342,254,
0,472,839,207,339,252,
0,467,896,206,367,249,
0,470,884,204,363,248,
0,464,903,203,359,246,
0,460,910,202,355,244,
0,455,903,241,352,242,
0,450,880,239,348,240,
0,446,865,236,345,238,
0,440,852,235,342,236,
0,436,839,231,339,233,
0,432,902,231,335,231,
0,428,910,228,359,230,
0,425,914,227,355,228,
0,422,915,252,352,227,
0,417,904,313,348,225,
0,414,879,310,344,259,
0,410,864,307,342,255,
0,406,850,304,339,254,
0,402,836,300,335,251,
0,399,824,297,332,248,
0,395,811,295,329,247,
0,398,819,293,359,244,
0,470,806,291,355,243,
0,464,791,287,352,246,
0,460,780,286,348,243,
0,454,768,284,345,246,
0,449,758,281,342,244,
0,444,747,279,339,241,
0,439,736,275,335,239,
0,435,727,273,332,237,
0,430,717,271,332,235,
0,426,708,270,352,233,
0,422,699,268,349,231,
0,417,688,265,345,230,
0,414,679,263,342,227,
0,409,671,262,339,238,
0,406,663,259,335,236,
0,401,654,257,332,233,
0,398,647,255,329,231,
0,394,888,253,327,229,
0,391,903,252,359,227,
0,500,889,249,359,225,
0,493,872,248,356,224,
0,487,855,246,352,222,
0,481,840,243,348,220,
0,476,828,241,345,243,
0,472,814,240,343,241,
0,465,801,238,339,240,
0,460,790,236,336,237,
0,455,897,235,334,235,
0,451,903,233,366,233,
0,558,884,231,361,231,
0,551,868,230,358,229,
0,543,850,227,354,230,
0,537,836,226,351,231,
0,531,824,280,348,243,
0,526,811,276,344,240,
0,518,798,273,341,238,
0,512,787,271,338,236,
0,507,775,268,335,233,
0,502,768,266,364,231,
0,496,756,263,359,230,
0,491,743,262,356,239,
0,486,733,259,352,238,
0,481,723,257,349,279,
0,476,713,265,345,275,
0,472,704,263,343,271,
0,465,696,261,339,270,
0,460,866,259,336,267,
0,455,851,255,334,264,
0,451,894,255,376,262,
0,463,896,252,371,259,
0,457,872,250,368,257,
0,452,857,248,364,255,
0,448,844,339,359,262,
0,444,831,335,357,259,
0,440,817,332,353,257,
0,434,804,328,350,255,
0,430,792,324,347,252,
0,425,781,322,344,250,
0,493,883,319,358,248,
0,537,903,316,353,246,
0,531,888,313,351,244,
0,524,871,312,347,243,
0,519,857,308,344,244,
0,513,843,306,340,242,
0,507,829,303,337,240,
0,500,816,301,334,238,
0,495,804,298,332,236,
0,489,792,295,352,235,
0,529,780,293,351,231,
0,523,769,291,347,231,
0,516,755,305,344,271,
0,511,745,359,339,268,
0,504,735,355,336,266,
0,499,724,352,334,263,
0,494,715,349,331,262,
0,487,705,345,327,259,
0,482,851,342,325,255,
0,477,836,339,347,254,
0,472,822,335,344,252,
0,467,808,332,339,250,
0,463,792,330,336,263,
0,457,780,327,332,260,
0,454,800,411,329,259,
0,449,787,406,327,255,
0,444,775,401,323,254,
0,440,763,396,321,252,
0,435,752,393,319,249,
0,432,864,390,345,248,
0,606,904,385,342,244,
0,596,911,383,338,243,
0,589,915,379,335,241,
0,582,911,376,332,243,
0,575,888,371,327,240,
0,568,871,369,326,238,
0,561,862,366,323,236,
0,553,847,361,319,235,
0,547,835,359,317,231,
0,541,822,355,359,231,
0,536,809,352,355,228,
0,529,798,350,352,227,
0,524,783,347,348,225,
0,518,772,368,344,224,
0,512,761,377,341,222,
0,507,750,374,338,220,
0,502,739,370,335,218,
0,495,729,366,332,216,
0,491,818,363,329,215,
0,519,903,359,365,212,
0,512,910,356,361,211,
0,507,913,353,358,209,
0,501,911,350,353,207,
0,496,888,347,351,248,
0,489,871,344,348,244,
0,485,856,341,344,243,
0,480,843,339,341,240,
0,473,900,335,337,238,
0,470,909,332,350,236,
0,630,913,329,350,233,
0,648,915,327,347,231,
0,639,916,324,344,240,
0,632,899,322,339,238,
0,624,876,319,337,274,
0,615,862,317,334,271,
0,608,847,315,331,269,
0,601,835,312,327,267,
0,592,822,310,325,263,
0,585,901,307,354,262,
0,579,909,305,350,259,
0,572,913,303,347,257,
0,567,916,340,344,255,
0,560,910,337,339,253,
0,553,883,334,336,263,
0,547,868,331,333,260,
0,542,854,327,330,258,
0,536,884,325,327,255,
0,529,905,321,324,254,
0,524,911,319,352,251,
0,518,915,316,348,248,
0,512,915,313,345,247,
0,508,903,311,342,244,
0,502,875,307,337,252,
0,497,861,305,335,250,
0,492,847,303,332,248,
0,487,876,300,328,246,
0,483,860,299,326,243,
0,476,847,295,323,241,
0,472,867,294,372,239,
0,468,903,291,369,238,
0,463,898,289,365,236,
0,460,878,318,361,233,
0,455,860,344,358,236,
0,451,846,384,354,233,
0,448,886,380,351,231,
0,443,905,376,348,230,
0,439,903,374,344,228,
0,433,881,369,342,225,
0,430,866,366,346,224,
0,427,852,362,343,223,
0,423,838,359,339,258,
0,419,825,355,336,255,
0,415,809,353,333,254,
0,412,798,350,330,251,
0,408,785,347,327,248,
0,404,775,344,324,247,
0,401,764,341,321,244,
0,397,753,337,348,242,
0,476,876,335,365,240,
0,490,859,332,361,238,
0,484,845,329,358,255,
0,479,831,327,355,253,
0,473,814,324,351,251,
0,468,802,321,348,248,
0,463,790,319,344,247,
0,458,777,316,341,244,
0,454,802,314,338,243,
0,448,903,311,363,240,
0,563,909,308,359,238,
0,555,905,306,355,236,
0,548,884,304,352,300,
0,542,867,302,348,295,
0,536,850,299,344,294,
0,529,836,297,342,291,
0,524,824,295,339,287,
0,518,811,292,335,286,
0,512,799,290,332,283,
0,504,805,287,362,280,
0,499,851,286,358,278,
0,494,836,284,355,275,
0,489,823,281,352,273,
0,483,809,280,348,271,
0,479,793,287,344,269,
0,474,782,284,340,267,
0,470,770,281,337,263,
0,464,760,280,335,263,
0,459,870,277,332,260,
0,455,855,275,369,257,
0,499,840,272,364,255,
0,494,827,271,361,259,
0,487,814,270,358,257,
0,483,801,268,354,255,
0,478,786,266,351,253,
0,472,894,263,347,252,
0,467,883,263,344,249,
0,462,867,260,340,248,
0,455,852,259,337,246,
0,451,839,255,368,243,
0,448,825,255,364,241,
0,443,812,253,359,301,
0,440,799,251,356,297,
0,435,788,249,353,295,
0,431,773,248,349,291,
0,427,762,246,345,289,
0,423,752,244,343,287,
0,419,741,243,339,284,
0,414,731,241,347,281,
0,411,721,239,352,280,
0,408,711,238,348,276,
0,403,703,368,344,280,
0,399,694,363,342,277,
0,396,683,359,339,275,
0,392,673,355,335,272,
0,390,665,352,332,270,
0,387,657,350,329,268,
0,384,649,347,326,265,
0,380,641,344,359,263,
0,387,635,339,355,261,
0,384,627,336,352,259,
0,380,620,334,348,257,
0,376,612,331,345,255,
0,373,606,327,342,283,
0,370,597,326,338,280,
0,367,590,323,335,278,
0,364,583,319,332,275,
0,361,632,318,329,273,
0,358,624,315,371,271,
0,406,763,312,367,268,
0,401,898,309,363,265,
0,396,887,307,359,286,
0,392,871,304,355,284,
0,389,852,302,352,281,
0,385,886,300,348,279,
0,382,906,297,345,275,
0,377,911,295,342,273,
0,374,913,292,339,271,
0,391,916,291,368,269,
0,387,919,287,364,266,
0,384,920,286,361,263,
0,380,918,327,358,262,
0,376,893,324,355,300,
0,371,870,344,352,297,
0,368,856,340,348,294,
0,364,842,337,344,291,
0,361,829,334,341,289,
0,358,816,331,338,287,
0,444,894,327,352,284,
0,572,907,324,348,280,
0,564,911,324,345,289,
0,557,914,361,342,286,
0,551,907,358,338,284,
0,543,877,354,335,281,
0,537,894,351,332,279,
0,531,882,348,327,276,
0,526,900,344,326,274,
0,519,908,342,336,271,
0,513,899,338,352,270,
0,508,877,335,348,267,
0,502,862,332,345,264,
0,496,848,329,342,263,
0,492,835,327,339,260,
0,487,819,324,335,259,
0,481,807,322,332,255,
0,476,795,319,329,255,
0,472,807,316,326,252,
0,467,903,314,379,251,
0,710,910,311,382,248,
0,699,913,308,378,246,
0,689,912,423,375,258,
0,679,889,417,371,255,
0,671,872,412,368,277,
0,662,855,408,364,274,
0,654,841,404,359,271,
0,646,828,400,356,269,
0,638,889,397,353,267,
0,631,906,393,359,264,
0,622,911,389,355,263,
0,614,915,385,352,259,
0,607,918,382,348,257,
0,600,919,379,345,255,
0,593,912,376,342,254,
0,586,880,372,339,252,
0,579,865,369,335,249,
0,574,851,366,332,248,
0,568,838,363,329,245,
0,561,863,359,344,243,
0,553,904,355,340,241,
0,547,911,353,337,239,
0,542,914,350,334,237,
0,536,914,348,331,236,
0,531,895,344,327,233,
0,525,871,342,325,231,
0,519,857,339,321,231,
0,515,844,336,319,228,
0,509,830,334,316,227,
0,504,817,331,359,225,
0,498,806,327,356,224,
0,494,793,326,352,222,
0,488,782,323,349,220,
0,483,771,320,346,267,
0,480,760,318,343,263,
0,475,747,316,339,262,
0,471,736,313,335,259,
0,465,728,311,332,257,
0,462,717,308,330,255,
0,457,707,306,341,252,
0,452,699,303,337,251,
0,448,690,300,335,271,
0,444,681,310,332,268,
0,440,673,307,328,305,
0,435,664,304,326,303,
0,432,655,301,323,300,
0,428,647,299,319,296,
0,423,639,295,317,294,
0,420,852,295,352,292,
0,420,903,292,350,289,
0,415,910,289,346,287,
0,412,906,287,343,284,
0,408,883,285,339,281,
0,405,868,312,336,279,
0,401,854,309,334,276,
0,398,836,306,329,274,
0,395,824,304,327,271,
0,391,811,301,324,270,
0,388,799,299,374,268,
0,551,787,295,369,265,
0,540,775,292,366,263,
0,534,764,290,362,261,
0,527,754,357,359,259,
0,520,743,376,355,255,
0,515,733,372,352,255,
0,510,721,369,348,252,
0,504,711,366,345,251,
0,499,702,362,342,248,
0,493,694,359,371,247,
0,529,684,355,368,244,
0,520,675,352,364,243,
0,515,668,349,360,240,
0,509,659,347,358,261,
0,504,651,344,354,258,
0,497,643,341,351,255,
0,492,633,338,347,254,
0,487,626,335,344,252,
0,482,619,332,340,249,
0,477,612,330,354,248,
0,482,605,327,350,245,
0,476,599,463,347,243,
0,470,591,457,344,240,
0,465,585,452,340,281,
0,461,579,448,337,279,
0,455,572,443,335,275,
0,451,565,439,331,273,
0,448,559,434,327,271,
0,443,553,431,326,268,
0,480,573,427,360,267,
0,583,719,422,356,263,
0,574,707,417,353,271,
0,568,697,414,350,268,
0,560,687,410,347,291,
0,553,678,406,344,288,
0,547,668,403,340,286,
0,541,662,399,336,284,
0,535,890,396,334,280,
0,529,907,391,350,279,
0,568,911,389,347,275,
0,560,909,385,344,273,
0,551,886,382,340,271,
0,545,870,379,337,268,
0,539,856,376,334,267,
0,532,842,372,332,263,
0,527,829,369,327,262,
0,520,813,366,324,260,
0,515,800,364,322,257,
0,510,790,359,359,255,
0,504,777,358,355,254,
0,499,766,355,352,252,
0,492,755,351,348,249,
0,487,745,348,345,248,
0,483,735,345,342,246,
0,478,725,343,339,243,
0,473,716,340,335,241,
0,468,704,337,332,240,
0,463,695,335,329,238,
0,460,686,332,363,236,
0,531,677,329,359,234,
0,524,668,327,355,231,
0,518,660,324,352,231,
0,511,652,322,349,228,
0,505,644,319,345,227,
0,499,636,317,343,225,
0,494,629,315,339,224,
0,489,620,312,335,222,
0,483,612,310,332,220,
0,480,740,308,367,219,
0,575,728,305,363,217,
0,568,716,304,359,216,
0,560,706,300,355,225,
0,553,696,336,353,223,
0,547,686,382,349,220,
0,541,677,378,346,219,
0,535,795,375,343,217,
0,529,779,371,339,216,
0,523,766,368,336,214,
0,518,787,364,338,212,
0,552,775,360,335,211,
0,544,763,358,332,265,
0,538,752,403,329,262,
0,531,740,441,327,259,
0,526,729,436,323,257,
0,519,719,432,321,255,
0,513,710,428,318,252,
0,508,697,423,315,250,
0,503,688,419,348,248,
0,497,679,415,356,246,
0,492,670,412,353,243,
0,487,662,408,350,241,
0,481,654,403,347,239,
0,476,646,399,344,238,
0,472,637,396,339,236,
0,467,630,391,337,233,
0,463,622,389,334,231,
0,457,612,385,331,230,
0,454,605,384,378,228,
0,449,598,379,374,226,
0,445,591,376,370,225,
0,440,585,499,366,231,
0,436,579,491,363,228,
0,432,572,486,359,226,
0,428,566,481,356,224,
0,423,560,476,353,223,
0,420,552,471,350,221,
0,416,547,466,345,219,
0,413,542,462,393,217,
0,502,536,457,388,216,
0,496,531,452,385,214,
0,487,525,448,381,231,
0,483,519,444,377,228,
0,478,515,440,374,227,
0,472,510,435,371,225,
0,467,519,432,367,223,
0,462,512,428,364,221,
0,457,505,423,359,219,
0,454,590,420,369,217,
0,487,679,415,366,216,
0,481,669,412,363,224,
0,475,659,446,359,247,
0,470,651,440,355,243,
0,464,641,435,352,242,
0,460,633,431,349,240,
0,455,625,427,346,238,
0,450,847,423,344,236,
0,446,836,419,339,233,
0,441,824,415,359,231,
0,504,809,412,356,230,
0,497,796,408,353,231,
0,491,784,404,350,228,
0,485,772,399,346,227,
0,480,761,396,344,225,
0,475,751,393,340,224,
0,470,740,390,337,222,
0,464,727,387,334,220,
0,460,717,384,350,219,
0,456,889,380,359,216,
0,467,882,377,356,215,
0,462,867,374,353,213,
0,455,851,370,350,211,
0,451,838,368,347,209,
0,447,824,364,344,207,
0,442,812,361,340,206,
0,438,799,359,337,205,
0,433,783,356,335,204,
0,430,773,353,351,202,
0,425,762,351,348,200,
0,421,751,348,344,199,
0,417,740,345,340,224,
0,412,730,342,337,222,
0,408,720,339,335,222,
0,405,711,337,332,220,
0,401,831,334,328,218,
0,398,817,332,326,216,
0,395,800,329,323,215,
0,391,871,327,363,213,
0,555,904,324,359,211,
0,546,907,322,355,209,
0,540,889,319,352,249,
0,531,903,437,349,247,
0,525,910,546,345,244,
0,519,914,539,342,242,
0,513,916,532,339,240,
0,508,915,527,335,238,
0,503,889,521,333,236,
0,497,883,515,354,234,
0,556,905,510,350,231,
0,548,911,505,347,240,
0,542,913,499,344,270,
0,534,907,494,340,267,
0,527,881,488,337,263,
0,521,867,484,334,262,
0,515,852,480,332,259,
0,510,870,475,327,257,
0,504,851,471,324,255,
0,499,886,467,356,253,
0,598,905,462,352,251,
0,590,911,457,349,249,
0,583,909,453,346,248,
0,573,886,448,343,245,
0,567,871,444,339,243,
0,560,856,440,336,240,
0,553,843,436,333,239,
0,547,896,432,331,236,
0,541,909,428,335,235,
0,535,914,425,358,233,
0,560,916,422,354,231,
0,552,916,418,352,230,
0,547,900,415,348,227,
0,539,877,410,344,279,
0,532,862,407,342,275,
0,527,847,403,338,271,
0,521,835,399,335,270,
0,515,836,397,332,268,
0,510,905,393,363,265,
0,643,911,391,359,263,
0,638,914,387,355,260,
0,630,915,384,352,259,
0,622,907,381,348,255,
0,612,880,377,345,299,
0,604,865,375,343,295,
0,598,851,371,339,292,
0,590,839,368,336,289,
0,583,825,366,334,287,
0,577,810,363,364,284,
0,571,798,359,359,283,
0,564,787,358,356,280,
0,558,775,355,353,280,
0,551,764,359,350,278,
0,543,753,356,347,275,
0,538,743,353,344,272,
0,532,733,351,340,271,
0,527,723,348,337,268,
0,521,713,345,334,266,
0,515,797,343,374,263,
0,639,902,340,369,262,
0,631,909,337,366,259,
0,623,910,335,363,257,
0,615,890,332,359,255,
0,606,873,329,355,253,
0,598,859,327,352,251,
0,591,845,324,350,249,
0,584,896,323,346,247,
0,577,908,319,344,245,
0,571,914,318,368,243,
0,564,915,316,364,241,
0,558,913,313,359,240,
0,551,888,311,356,238,
0,546,871,308,353,236,
0,539,857,306,350,233,
0,532,844,304,347,231,
0,527,878,302,344,230,
0,521,904,300,340,228,
0,515,900,297,337,227,
0,511,876,295,344,225,
0,505,860,294,339,223,
0,500,896,321,336,222,
0,496,897,318,334,220,
0,490,879,316,331,275,
0,484,864,312,327,271,
0,480,849,309,324,269,
0,475,891,306,322,267,
0,471,907,304,319,264,
0,466,911,301,318,263,
0,471,904,299,364,259,
0,465,880,295,360,258,
0,461,865,294,358,255,
0,456,851,291,353,254,
0,451,838,289,351,289,
0,447,824,287,348,286,
0,443,812,285,344,283,
0,439,799,283,341,280,
0,434,788,281,338,278,
0,431,888,280,368,275,
0,428,884,277,365,273,
0,423,869,275,361,271,
0,420,854,273,358,268,
0,416,840,271,355,267,
0,412,827,270,352,263,
0,408,814,268,348,262,
0,404,801,265,344,259,
0,401,790,263,342,257,
0,398,844,263,339,255,
0,395,831,260,384,253,
0,391,815,259,379,251,
0,388,849,257,376,249,
0,385,883,255,371,248,
0,382,867,254,368,245,
0,377,852,369,364,243,
0,375,838,364,361,241,
0,371,825,360,358,239,
0,369,812,358,355,237,
0,366,887,353,352,236,
0,477,888,352,393,233,
0,588,867,348,387,231,
0,579,852,344,384,230,
0,572,839,342,380,228,
0,566,825,339,377,263,
0,557,812,335,373,259,
0,551,799,332,369,255,
0,543,787,329,367,254,
0,538,882,327,363,252,
0,531,905,323,359,249,
0,527,909,321,378,248,
0,608,888,319,373,246,
0,600,871,316,369,254,
0,592,857,313,366,252,
0,585,843,311,363,273,
0,575,829,308,359,271,
0,569,893,305,355,268,
0,563,907,303,353,265,
0,556,911,300,350,263,
0,551,915,298,347,260,
0,569,918,295,368,258,
0,562,919,294,364,255,
0,556,913,292,361,290,
0,549,883,380,357,287,
0,543,868,376,353,284,
0,536,854,372,351,281,
0,529,840,368,348,279,
0,524,828,364,344,276,
0,518,894,361,342,274,
0,512,880,358,359,271,
0,550,861,355,361,269,
0,543,847,352,356,267,
0,536,833,349,353,279,
0,530,819,345,350,276,
0,524,807,343,347,274,
0,516,796,339,344,271,
0,511,783,335,340,268,
0,505,773,333,337,267,
0,500,762,331,335,263,
0,496,891,327,371,262,
0,491,908,325,368,259,
0,486,912,322,363,257,
0,481,911,319,359,275,
0,476,888,318,356,272,
0,472,871,315,353,271,
0,465,857,312,350,268,
0,461,844,309,347,265,
0,457,831,307,344,263,
0,452,818,304,340,260,
0,448,806,302,358,259,
0,455,791,300,353,255,
0,451,779,297,350,259,
0,447,768,295,346,259,
0,442,757,293,344,257,
0,438,747,307,339,254,
0,432,736,304,336,252,
0,429,727,300,334,249,
0,425,717,298,331,248,
0,422,810,295,327,246,
0,486,798,294,349,243,
0,599,781,291,345,242,
0,591,769,288,342,257,
0,583,758,286,338,254,
0,575,747,284,335,253,
0,569,736,281,332,251,
0,561,771,280,329,248,
0,554,770,277,326,246,
0,548,759,275,323,243,
0,542,747,273,321,241,
0,536,736,271,351,240,
0,529,722,269,348,238,
0,524,711,268,344,236,
0,519,754,265,339,234,
0,513,846,287,337,283,
0,508,831,327,334,280,
0,501,817,323,331,277,
0,496,804,319,327,273,
0,491,792,318,325,271,
0,486,780,315,340,269,
0,605,879,312,352,267,
0,625,859,308,348,264,
0,617,844,306,344,278,
0,609,831,304,342,275,
0,602,817,301,339,279,
0,595,804,299,335,276,
0,586,792,295,332,274,
0,579,814,293,329,271,
0,572,903,291,327,269,
0,566,910,288,365,267,
0,560,911,286,360,263,
0,553,894,284,358,262,
0,547,875,281,353,271,
0,541,860,280,350,268,
0,536,846,280,346,266,
0,529,832,278,344,263,
0,523,819,275,340,262,
0,517,807,272,337,259,
0,512,847,271,334,256,
0,507,892,268,368,255,
0,501,875,267,364,252,
0,496,856,264,359,276,
0,491,841,263,356,304,
0,486,828,260,353,300,
0,481,815,259,350,297,
0,476,802,257,346,295,
0,471,791,255,343,292,
0,466,779,253,340,289,
0,462,768,252,337,287,
0,457,756,249,366,284,
0,455,747,268,361,281,
0,451,842,265,358,280,
0,447,827,263,354,278,
0,443,813,260,351,275,
0,439,799,258,348,273,
0,434,787,255,344,271,
0,430,775,254,342,268,
0,425,764,252,339,265,
0,422,753,249,335,263,
0,433,743,248,352,262,
0,473,777,246,348,259,
0,467,763,244,344,275,
0,463,751,243,341,272,
0,457,739,241,337,270,
0,452,729,240,335,268,
0,448,719,238,332,265,
0,442,710,236,328,263,
0,438,700,235,326,260,
0,433,691,233,336,258,
0,497,892,231,352,255,
0,529,899,231,348,254,
0,523,876,228,344,257,
0,516,862,227,340,255,
0,511,847,226,337,255,
0,504,833,224,334,253,
0,499,821,224,332,252,
0,492,807,222,327,248,
0,487,796,220,326,247,
0,482,783,219,352,245,
0,477,772,217,348,243,
0,472,841,216,345,241,
0,467,824,265,341,267,
0,463,809,263,337,263,
0,457,797,260,335,288,
0,454,784,257,332,286,
0,448,772,255,328,283,
0,444,761,253,326,280,
0,440,751,251,323,278,
0,435,848,248,344,275,
0,611,903,247,340,273,
0,601,910,244,337,271,
0,594,903,242,333,295,
0,587,880,240,330,292,
0,579,865,239,327,290,
0,573,851,237,324,287,
0,566,838,235,321,285,
0,558,824,231,319,281,
0,551,812,231,316,280,
0,545,871,229,367,277,
0,540,873,227,363,275,
0,534,899,231,359,273,
0,527,880,319,355,271,
0,521,864,313,352,268,
0,516,849,311,348,267,
0,511,836,307,345,263,
0,505,823,304,343,262,
0,499,809,301,339,259,
0,494,798,299,336,257,
0,489,786,295,353,255,
0,484,774,294,350,253,
0,480,763,291,347,289,
0,475,750,288,342,286,
0,470,739,287,339,284,
0,465,729,284,335,280,
0,460,752,281,333,279,
0,456,740,280,330,275,
0,451,728,276,327,273,
0,447,719,275,333,271,
0,532,710,271,359,268,
0,553,700,270,355,266,
0,547,691,268,352,265,
0,540,707,282,347,263,
0,534,696,280,344,260,
0,527,687,277,340,258,
0,521,678,275,337,255,
0,515,718,271,335,254,
0,509,864,270,332,252,
0,504,847,268,366,249,
0,498,834,265,364,248,
0,493,820,263,359,246,
0,487,807,261,356,246,
0,483,792,259,352,243,
0,478,780,257,349,242,
0,473,768,255,345,240,
0,468,758,253,343,239,
0,462,747,251,339,236,
0,457,898,248,336,235,
0,454,909,248,364,232,
0,676,912,246,359,231,
0,665,913,243,356,229,
0,656,902,241,353,227,
0,647,874,240,349,230,
0,639,860,238,345,267,
0,632,846,236,343,263,
0,624,831,234,339,262,
0,615,819,232,335,259,
0,607,807,231,333,255,
0,600,796,229,355,255,
0,593,783,279,351,252,
0,587,772,275,348,250,
0,579,761,273,344,248,
0,574,748,271,340,246,
0,567,737,268,337,243,
0,560,728,266,334,242,
0,555,718,263,331,240,
0,547,708,262,327,238,
0,541,699,259,326,236,
0,546,691,257,359,233,
0,679,681,255,356,231,
0,671,672,253,353,230,
0,662,664,251,350,228,
0,653,654,248,345,227,
0,644,646,247,343,225,
0,636,639,244,339,224,
0,629,632,243,336,222,
0,620,624,241,334,220,
0,611,616,239,332,219,
0,605,609,236,355,217,
0,598,603,235,352,216,
0,591,595,233,348,214,
0,584,637,289,344,212,
0,577,683,306,340,243,
0,572,671,303,337,241,
0,566,664,300,334,239,
0,559,654,297,332,237,
0,551,646,295,327,235,
0,545,636,291,367,231,
0,568,628,289,364,230,
0,560,620,287,359,228,
0,553,612,284,356,255,
0,547,603,282,353,254,
0,540,595,280,349,252,
0,535,588,278,346,249,
0,529,582,275,343,248,
0,524,575,273,339,245,
0,516,569,271,337,243,
0,511,563,268,345,240,
0,689,557,265,342,238,
0,679,551,263,339,236,
0,670,546,322,335,283,
0,660,539,318,332,280,
0,652,533,315,329,278,
0,643,527,312,327,275,
0,636,684,310,323,273,
0,627,671,307,319,271,
0,619,670,304,318,268,
0,611,680,301,359,265,
0,604,671,299,356,263,
0,597,662,295,353,261,
0,590,653,294,350,259,
0,583,641,291,347,287,
0,577,633,343,343,284,
0,571,624,339,339,280,
0,564,616,335,335,278,
0,558,609,332,333,275,
0,551,601,329,330,273,
0,545,732,327,355,271,
0,574,719,323,352,268,
0,567,708,355,349,268,
0,560,698,417,345,266,
0,553,686,412,342,263,
0,547,676,408,338,262,
0,540,667,403,335,259,
0,535,771,400,332,257,
0,529,868,396,329,255,
0,522,853,391,328,253,
0,517,839,388,368,251,
0,512,825,385,364,248,
0,506,812,381,360,247,
0,502,799,378,358,244,
0,496,785,375,354,243,
0,492,774,371,350,240,
0,487,761,368,347,239,
0,482,751,365,344,236,
0,478,740,361,340,235,
0,472,730,358,353,233,
0,467,719,355,356,231,
0,463,850,352,352,230,
0,459,895,350,350,233,
0,455,876,347,345,231,
0,450,857,344,343,230,
0,446,844,340,339,228,
0,442,830,338,335,227,
0,438,817,335,333,225,
0,434,804,333,329,223,
0,429,792,329,364,222,
0,625,899,327,359,219,
0,615,908,324,356,217,
0,608,913,321,353,248,
0,600,911,319,350,245,
0,593,883,317,345,243,
0,585,868,315,343,240,
0,579,854,312,339,239,
0,572,840,310,335,236,
0,566,902,307,333,235,
0,558,889,304,368,233,
0,551,872,302,364,230,
0,545,857,300,359,228,
0,539,844,297,356,227,
0,533,830,295,353,243,
0,527,814,294,349,241,
0,521,802,291,345,239,
0,516,791,289,344,238,
0,511,864,287,339,235,
0,505,848,284,336,233,
0,574,835,283,371,231,
0,632,820,280,367,228,
0,623,807,278,363,230,
0,615,796,280,359,227,
0,608,783,278,356,225,
0,600,768,275,352,224,
0,593,758,274,349,222,
0,586,747,271,345,220,
0,579,737,271,343,219,
0,572,728,268,339,217,
0,565,871,265,351,215,
0,559,857,263,348,214,
0,552,903,303,344,211,
0,546,899,300,340,210,
0,540,878,296,338,255,
0,534,860,294,334,254,
0,529,846,291,331,251,
0,523,831,289,327,249,
0,518,862,287,326,247,
0,512,904,284,352,245,
0,704,911,281,353,241,
0,691,913,279,350,240,
0,682,915,276,347,238,
0,673,903,274,344,236,
0,664,880,271,340,289,
0,655,860,270,337,287,
0,647,847,268,334,284,
0,639,833,265,331,281,
0,632,902,263,327,279,
0,624,910,262,367,276,
0,615,914,259,363,273,
0,608,915,257,359,271,
0,601,914,327,356,269,
0,594,888,342,352,267,
0,588,871,339,349,263,
0,581,855,335,345,262,
0,575,840,332,342,259,
0,568,828,329,339,257,
0,562,824,326,335,255,
0,556,812,323,365,254,
0,548,799,319,361,251,
0,543,787,318,358,249,
0,537,776,368,355,247,
0,531,765,363,351,277,
0,526,755,359,348,281,
0,519,742,356,344,279,
0,515,732,353,340,276,
0,510,721,350,338,273,
0,504,711,347,335,271,
0,500,885,344,363,269,
0,507,905,339,359,265,
0,500,908,337,355,263,
0,496,891,382,352,262,
0,491,873,377,349,259,
0,486,859,374,345,257,
0,481,841,371,342,255,
0,476,828,368,339,253,
0,472,815,364,335,252,
0,467,803,359,333,249,
0,463,792,358,372,248,
0,510,780,353,368,244,
0,504,768,350,364,259,
0,499,867,423,361,255,
0,492,851,417,358,254,
0,487,837,413,354,252,
0,482,820,409,351,249,
0,477,807,405,347,248,
0,472,795,401,344,245,
0,467,783,398,359,243,
0,462,771,394,368,241,
0,457,760,389,364,239,
0,452,749,395,359,237,
0,448,739,391,356,235,
0,444,729,387,353,263,
0,440,719,384,351,259,
0,436,707,380,347,257,
0,432,697,376,344,255,
0,429,689,374,340,253,
0,425,680,370,364,251,
0,420,671,367,364,248,
0,417,664,363,359,246,
0,414,655,359,356,244,
0,410,647,358,353,242,
0,407,639,354,351,240,
0,403,632,351,347,238,
0,399,623,348,344,236,
0,396,615,345,340,235,
0,393,671,343,337,232,
0,390,664,340,359,231,
0,546,654,337,355,230,
0,539,645,334,352,227,
0,532,636,332,349,225,
0,526,628,328,345,231,
0,519,620,327,343,229,
0,513,612,323,339,227,
0,508,604,321,335,225,
0,503,596,319,332,224,
0,497,590,316,330,222,
0,492,802,314,363,220,
0,659,889,312,359,218,
0,649,871,308,355,243,
0,641,857,306,352,241,
0,633,843,304,348,239,
0,625,829,302,345,237,
0,617,816,300,343,235,
0,610,800,297,339,233,
0,603,888,295,335,231,
0,595,905,292,332,230,
0,589,911,291,379,227,
0,580,915,288,375,225,
0,574,915,286,371,223,
0,568,900,300,368,222,
0,561,877,356,364,234,
0,555,862,353,359,231,
0,548,845,350,358,230,
0,543,831,346,353,227,
0,537,819,344,350,226,
0,531,807,340,355,224,
0,588,796,337,365,222,
0,669,783,334,361,220,
0,660,772,331,359,263,
0,652,761,327,355,260,
0,643,751,325,352,257,
0,635,740,322,348,255,
0,627,728,319,345,253,
0,620,718,317,342,251,
0,612,790,314,339,249,
0,605,890,312,371,247,
0,599,872,309,368,244,
0,590,857,307,364,243,
0,583,844,352,361,240,
0,575,829,393,358,238,
0,570,817,389,355,236,
0,563,804,385,352,235,
0,557,788,382,348,231,
0,551,777,378,344,231,
0,545,766,375,340,228,
0,540,755,371,374,227,
0,617,744,368,369,225,
0,622,734,364,366,224,
0,614,723,359,363,239,
0,606,714,358,359,260,
0,599,704,355,355,275,
0,591,696,352,352,271,
0,583,684,348,349,270,
0,577,675,345,345,268,
0,571,862,343,342,265,
0,627,904,339,379,263,
0,728,910,337,376,260,
0,715,912,334,371,259,
0,704,902,331,368,255,
0,696,879,327,364,303,
0,686,864,325,361,299,
0,677,850,323,358,295,
0,668,833,319,355,293,
0,660,820,318,350,291,
0,652,807,315,347,287,
0,644,796,312,365,286,
0,636,783,310,361,283,
0,627,772,307,358,280,
0,620,761,305,355,278,
0,612,751,303,352,275,
0,606,880,300,348,273,
0,599,867,297,345,271,
0,591,848,295,342,268,
0,585,835,294,338,267,
0,579,903,291,342,263,
0,573,910,289,359,262,
0,567,913,287,355,259,
0,560,915,284,352,262,
0,553,904,284,348,259,
0,547,880,355,345,259,
0,542,864,352,342,257,
0,536,899,348,339,255,
0,531,879,345,335,252,
0,525,864,342,332,251,
0,519,850,339,359,248,
0,515,836,335,355,247,
0,510,824,332,352,244,
0,504,811,329,348,243,
0,498,799,327,345,241,
0,494,787,323,342,252,
0,488,775,321,339,250,
0,483,764,318,335,248,
0,480,751,316,332,246,
0,475,740,313,329,243,
0,471,731,311,371,241,
0,518,806,307,367,240,
0,513,792,305,364,238,
0,505,780,302,359,236,
0,500,768,300,356,233,
0,495,756,297,353,233,
0,488,745,295,350,231,
0,483,734,292,347,230,
0,479,721,291,343,228,
0,473,711,287,339,227,
0,468,705,286,348,225,
0,463,805,284,344,223,
0,460,792,281,342,222,
0,455,780,280,339,220,
0,450,768,277,335,239,
0,446,756,275,332,236,
0,442,745,273,329,235,
0,438,734,271,327,231,
0,435,721,269,323,230,
0,431,711,268,320,228,
0,427,701,265,356,227,
0,473,692,263,352,225,
0,467,683,262,350,231,
0,461,675,259,345,232,
0,455,666,257,343,232,
0,451,658,255,339,231,
0,446,723,254,336,228,
0,441,711,252,334,227,
0,437,699,251,329,224,
0,432,689,249,332,223,
0,428,679,248,359,220,
0,441,699,246,356,219,
0,436,776,244,353,217,
0,430,764,241,350,216,
0,426,753,240,347,265,
0,422,742,239,344,263,
0,419,731,237,340,259,
0,415,719,236,337,257,
0,412,707,233,334,255,
0,408,697,231,374,254,
0,482,719,231,369,251,
0,560,707,229,366,248,
0,551,697,227,362,255,
0,543,688,225,359,253,
0,537,679,224,355,251,
0,531,669,223,352,248,
0,525,660,221,349,246,
0,519,652,220,346,244,
0,513,643,219,342,242,
0,508,701,217,366,240,
0,648,690,216,361,238,
0,638,860,215,358,236,
0,630,844,213,355,259,
0,620,831,307,352,257,
0,611,817,304,348,255,
0,604,804,300,344,252,
0,597,792,297,342,250,
0,590,780,295,339,248,
0,583,765,292,335,246,
0,575,755,290,371,243,
0,619,787,287,367,241,
0,611,887,286,364,240,
0,603,870,283,359,238,
0,593,856,280,357,259,
0,587,841,278,353,255,
0,579,828,275,350,254,
0,573,815,273,347,251,
0,567,802,271,344,249,
0,560,811,269,340,247,
0,554,903,267,359,244,
0,627,910,264,356,243,
0,620,913,263,353,241,
0,611,915,260,350,239,
0,601,908,258,347,249,
0,594,881,255,344,247,
0,588,867,254,340,244,
0,580,853,252,337,243,
0,574,839,250,334,240,
0,568,824,248,331,239,
0,561,897,247,361,236,
0,569,906,244,358,235,
0,563,894,243,355,241,
0,555,875,241,351,239,
0,548,860,255,348,237,
0,542,847,252,344,235,
0,536,833,251,342,233,
0,531,819,248,338,231,
0,525,807,246,335,230,
0,519,792,244,364,227,
0,514,781,242,361,225,
0,509,769,240,358,224,
0,504,759,239,354,223,
0,497,748,236,351,221,
0,492,738,234,348,231,
0,487,728,233,344,228,
0,483,718,231,341,227,
0,478,709,230,338,225,
0,473,700,227,335,223,
0,468,688,226,371,221,
0,464,772,224,367,219,
0,462,760,223,363,217,
0,457,748,221,359,216,
0,451,737,332,356,214,
0,448,727,327,353,271,
0,444,716,323,350,268,
0,440,706,321,347,265,
0,435,696,318,344,263,
0,432,687,315,340,260,
0,428,676,312,344,259,
0,504,668,310,340,255,
0,497,659,307,337,254,
0,492,652,305,334,255,
0,484,643,303,332,254,
0,480,636,300,327,272,
0,474,628,297,326,270,
0,469,621,295,323,268,
0,463,614,292,319,265,
0,460,615,290,318,263,
0,455,694,287,357,260,
0,488,684,286,353,259,
0,483,834,368,350,255,
0,478,819,364,347,254,
0,472,807,359,344,263,
0,466,793,355,340,259,
0,461,782,352,337,257,
0,455,770,350,334,255,
0,451,759,346,331,253,
0,447,745,344,327,251,
0,443,892,340,352,249,
0,508,907,339,348,248,
0,502,911,399,344,286,
0,496,915,396,342,283,
0,488,916,391,338,280,
0,483,911,387,335,277,
0,479,883,384,332,275,
0,473,868,380,329,271,
0,468,855,376,326,270,
0,463,896,373,323,268,
0,459,891,369,349,265,
0,454,883,367,345,263,
0,449,905,364,343,260,
0,444,911,360,339,259,
0,440,915,358,336,257,
0,435,915,353,333,254,
0,431,907,351,330,252,
0,427,880,348,327,249,
0,423,865,344,324,248,
0,419,848,342,345,246,
0,542,835,339,369,243,
0,534,822,336,366,242,
0,527,810,385,363,319,
0,521,798,381,359,315,
0,514,786,377,355,312,
0,508,888,372,352,308,
0,503,903,369,350,305,
0,497,887,366,346,303,
0,492,870,363,344,300,
0,487,882,359,369,297,
0,483,905,356,364,295,
0,478,911,353,361,292,
0,472,915,350,358,290,
0,467,912,348,354,287,
0,462,889,344,351,285,
0,457,872,340,348,283,
0,452,859,337,344,280,
0,448,844,335,342,278,
0,444,831,332,339,275,
0,440,816,329,361,273,
0,435,803,327,358,271,
0,432,792,324,354,269,
0,428,780,411,351,267,
0,423,768,406,347,265,
0,419,758,401,344,263,
0,415,747,397,340,260,
0,411,737,393,338,258,
0,408,728,390,335,255,
0,404,717,386,332,254,
0,430,888,384,355,252,
0,670,871,380,351,251,
0,668,857,376,348,249,
0,659,843,372,344,247,
0,649,829,369,341,246,
0,639,816,365,338,243,
0,632,803,362,335,241,
0,624,792,359,332,239,
0,615,780,356,328,238,
0,609,768,353,326,236,
0,603,755,351,367,233,
0,636,743,347,361,231,
0,627,733,344,358,250,
0,620,723,342,355,248,
0,611,713,339,352,263,
0,602,704,335,348,261,
0,595,695,333,345,259,
0,588,686,329,342,255,
0,582,678,327,339,254,
0,575,669,325,347,252,
0,569,659,323,358,249,
0,563,651,319,354,248,
0,556,643,407,351,278,
0,551,636,399,348,275,
0,544,627,396,344,284,
0,537,620,391,341,280,
0,531,614,387,338,278,
0,526,606,384,335,275,
0,520,600,380,332,273,
0,515,739,377,368,270,
0,510,792,374,364,268,
0,504,780,370,359,265,
0,499,768,367,357,263,
0,495,755,364,353,262,
0,490,810,359,350,259,
0,483,797,356,347,257,
0,480,783,353,344,255,
0,475,772,351,340,252,
0,470,760,348,337,251,
0,466,801,345,363,248,
0,614,904,342,358,246,
0,604,907,339,355,244,
0,597,889,336,351,242,
0,590,872,334,348,246,
0,583,858,331,344,246,
0,574,844,327,342,243,
0,568,831,325,338,241,
0,560,817,323,335,239,
0,554,805,319,332,237,
0,604,896,318,356,236,
0,790,909,315,352,233,
0,775,913,312,348,231,
0,764,915,310,345,230,
0,753,911,307,342,228,
0,743,885,305,339,226,
0,730,870,302,335,224,
0,720,856,300,333,223,
0,711,841,297,329,221,
0,702,828,295,327,219,
0,705,903,294,352,217,
0,785,911,291,347,216,
0,774,915,289,344,225,
0,761,918,287,340,224,
0,751,919,285,337,222,
0,740,916,283,334,220,
0,728,890,280,332,217,
0,719,873,279,327,216,
0,709,859,276,326,214,
0,700,867,275,324,212,
0,716,904,273,341,211,
0,817,911,271,336,209,
0,804,915,278,334,268,
0,792,918,289,331,265,
0,780,917,286,327,263,
0,769,903,284,324,260,
0,755,878,280,322,258,
0,745,864,278,319,255,
0,736,849,275,316,254,
0,726,891,273,348,252,
0,739,907,271,344,249,
0,729,912,269,340,248,
0,719,916,267,336,245,
0,709,918,265,334,243,
0,700,920,263,331,241,
0,691,918,262,327,239,
0,681,895,259,324,237,
0,672,874,257,321,235,
0,664,860,255,319,233,
0,657,847,254,369,231,
0,649,896,252,365,230,
0,641,904,250,359,227,
0,634,911,248,356,226,
0,627,915,247,353,231,
0,620,917,245,350,247,
0,613,917,243,347,244,
0,604,905,241,344,241,
0,598,879,240,340,240,
0,591,864,238,337,238,
0,622,899,237,358,236,
0,736,908,235,354,233,
0,726,913,233,350,231,
0,716,915,231,347,230,
0,705,904,231,344,227,
0,696,880,228,340,226,
0,684,864,227,337,224,
0,675,851,225,334,222,
0,667,838,224,331,220,
0,659,824,223,327,219,
0,651,812,221,371,217,
0,643,799,219,367,216,
0,635,786,218,363,255,
0,627,774,216,359,254,
0,620,764,274,356,271,
0,614,753,304,353,268,
0,604,743,302,350,265,
0,598,732,297,347,263,
0,591,723,295,344,260,
0,583,713,292,341,259,
0,578,704,290,367,255,
0,572,695,287,364,254,
0,566,684,285,359,286,
0,560,675,283,355,283,
0,554,667,280,352,280,
0,548,659,279,349,278,
0,542,651,275,345,275,
0,536,643,273,343,272,
0,531,636,271,339,270,
0,526,628,269,372,268,
0,520,621,267,375,265,
0,515,687,264,371,263,
0,511,794,263,366,289,
0,505,781,260,363,286,
0,500,769,258,359,284,
0,496,758,255,355,280,
0,489,746,254,352,279,
0,486,735,252,350,275,
0,481,724,250,347,273,
0,476,897,248,390,271,
0,478,908,246,385,268,
0,473,911,244,381,266,
0,468,905,261,376,263,
0,464,880,304,373,262,
0,460,865,302,369,263,
0,455,851,299,366,260,
0,451,838,295,363,258,
0,447,824,292,359,255,
0,443,812,290,356,253,
0,441,800,287,381,252,
0,572,788,286,376,249,
0,563,774,283,373,248,
0,557,763,280,368,246,
0,550,752,279,365,243,
0,543,742,316,361,241,
0,537,732,312,359,240,
0,529,721,309,355,238,
0,524,768,305,352,236,
0,518,795,303,349,233,
0,515,783,300,379,231,
0,551,771,297,375,230,
0,544,756,295,371,228,
0,538,745,293,367,227,
0,531,734,291,364,225,
0,526,723,287,359,223,
0,519,713,286,356,222,
0,512,704,284,353,220,
0,507,695,280,350,217,
0,502,686,278,347,216,
0,548,678,275,364,215,
0,546,668,273,359,212,
0,540,658,271,357,219,
0,533,651,270,352,216,
0,527,643,268,349,255,
0,520,635,265,346,252,
0,515,627,263,344,249,
0,508,620,261,340,248,
0,502,612,259,337,245,
0,497,608,257,368,243,
0,492,728,255,369,241,
0,487,760,253,366,239,
0,482,760,362,361,237,
0,477,748,358,358,235,
0,472,737,353,355,243,
0,467,727,351,352,241,
0,463,716,347,348,239,
0,457,706,344,344,237,
0,452,696,340,342,235,
0,448,687,337,367,232,
0,572,678,335,363,231,
0,563,668,332,359,228,
0,556,658,327,355,231,
0,550,649,326,352,231,
0,543,641,323,348,228,
0,536,710,320,345,227,
0,531,892,318,342,224,
0,523,878,315,339,223,
0,518,863,312,335,220,
0,512,848,310,358,219,
0,506,835,307,354,217,
0,500,821,304,351,216,
0,496,805,302,348,214,
0,490,793,300,344,259,
0,485,782,317,340,265,
0,480,769,315,337,263,
0,475,760,312,335,260,
0,469,748,307,332,257,
0,464,737,305,328,255,
0,460,728,303,354,253,
0,480,718,300,351,251,
0,475,707,297,347,249,
0,469,696,295,344,247,
0,463,688,293,339,287,
0,459,678,291,336,284,
0,455,670,288,334,281,
0,450,661,287,331,279,
0,444,653,284,327,276,
0,440,645,281,325,273,
0,511,638,280,346,271,
0,508,630,277,343,268,
0,502,622,275,339,267,
0,496,613,273,335,263,
0,490,606,271,332,262,
0,484,600,269,329,260,
0,480,592,267,327,258,
0,474,586,265,323,255,
0,467,579,263,321,254,
0,463,574,260,345,251,
0,458,568,259,345,249,
0,454,561,257,343,248,
0,449,556,255,339,245,
0,444,548,253,335,243,
0,440,542,252,332,248,
0,435,536,249,329,246,
0,432,552,248,327,244,
0,428,545,246,323,242,
0,423,539,243,320,240,
0,419,601,242,364,238,
0,416,593,240,359,236,
0,413,585,239,356,234,
0,409,578,324,353,231,
0,406,568,321,349,231,
0,402,561,318,346,231,
0,399,555,315,343,228,
0,396,547,312,339,227,
0,392,542,309,336,225,
0,389,636,306,334,223,
0,386,812,303,356,222,
0,438,798,300,353,220,
0,432,785,297,350,218,
0,428,774,295,346,216,
0,423,760,293,342,245,
0,419,748,291,339,243,
0,415,737,287,335,240,
0,411,727,286,332,238,
0,407,716,284,329,236,
0,401,823,281,327,233,
0,491,903,279,359,231,
0,668,909,276,355,230,
0,657,909,274,352,227,
0,649,889,271,349,226,
0,639,869,270,344,224,
0,632,855,268,342,223,
0,624,841,265,339,220,
0,616,828,263,335,219,
0,609,815,262,332,217,
0,600,803,259,329,216,
0,593,791,257,348,214,
0,587,780,255,344,211,
0,579,768,295,341,211,
0,573,757,292,337,209,
0,567,743,289,334,207,
0,560,734,287,331,206,
0,555,723,284,327,204,
0,548,714,281,325,203,
0,543,705,280,322,201,
0,536,696,277,335,199,
0,675,894,275,337,199,
0,734,907,271,334,197,
0,724,913,337,331,247,
0,713,915,332,327,244,
0,704,915,329,324,258,
0,695,896,326,321,255,
0,685,876,323,319,253,
0,676,861,319,316,251,
0,668,899,318,313,248,
0,657,908,313,351,246,
0,710,912,312,347,243,
0,700,913,308,344,241,
0,690,899,306,340,240,
0,681,876,304,337,239,
0,671,891,301,333,237,
0,664,907,299,329,235,
0,655,911,295,327,233,
0,647,907,294,324,231,
0,639,882,291,321,230,
0,630,867,288,359,227,
0,623,854,286,355,225,
0,615,839,284,352,224,
0,608,827,281,349,222,
0,601,814,280,345,235,
0,594,799,277,342,234,
0,588,787,275,339,231,
0,582,775,273,335,230,
0,575,765,271,332,227,
0,568,754,269,329,226,
0,561,744,266,377,224,
0,559,734,263,373,222,
0,553,724,262,369,244,
0,547,715,260,366,241,
0,542,705,283,363,239,
0,536,694,302,358,237,
0,530,684,299,355,235,
0,524,676,295,352,233,
0,519,668,294,348,231,
0,513,659,291,345,230,
0,536,652,287,371,227,
0,530,643,286,368,224,
0,524,636,283,364,223,
0,518,629,280,360,221,
0,512,622,279,358,243,
0,507,612,276,353,241,
0,501,606,273,350,239,
0,496,599,271,347,238,
0,492,591,270,344,235,
0,486,585,267,355,233,
0,532,662,263,368,231,
0,586,651,263,364,229,
0,579,642,307,361,248,
0,572,633,304,358,246,
0,564,625,305,354,243,
0,558,615,303,350,242,
0,551,607,300,347,240,
0,545,600,297,344,238,
0,539,796,295,341,236,
0,531,811,292,364,233,
0,600,798,289,360,231,
0,591,785,287,358,230,
0,585,774,284,354,255,
0,577,762,281,351,252,
0,571,751,280,348,250,
0,564,737,278,344,248,
0,558,727,275,340,246,
0,551,716,273,337,243,
0,545,707,271,334,241,
0,537,697,268,369,240,
0,542,688,265,366,237,
0,535,679,263,362,235,
0,529,670,262,359,233,
0,523,662,259,355,231,
0,518,651,257,352,230,
0,512,787,255,348,227,
0,507,774,254,345,226,
0,501,761,252,342,224,
0,496,750,250,339,222,
0,489,739,248,352,220,
0,484,728,246,349,218,
0,480,718,244,345,227,
0,476,707,242,343,225,
0,471,698,240,339,224,
0,466,686,239,336,222,
0,462,678,237,332,220,
0,457,668,236,329,218,
0,454,659,233,327,216,
0,449,651,231,324,215,
0,444,643,231,359,213,
0,440,635,228,355,211,
0,436,627,227,352,235,
0,432,620,225,348,232,
0,429,817,355,345,243,
0,424,823,348,342,240,
0,422,809,345,337,238,
0,417,796,342,335,236,
0,414,783,338,332,233,
0,411,772,335,336,231,
0,406,760,332,352,230,
0,403,750,328,349,227,
0,399,739,326,346,263,
0,396,728,339,343,262,
0,392,719,336,339,259,
0,390,706,334,336,257,
0,387,696,331,332,255,
0,384,687,327,329,252,
0,380,678,324,327,250,
0,377,670,322,364,248,
0,511,661,319,359,246,
0,504,825,316,355,243,
0,497,813,344,352,246,
0,492,799,340,349,243,
0,487,787,337,346,241,
0,481,772,334,343,239,
0,476,761,331,339,237,
0,472,750,327,335,236,
0,466,739,325,333,233,
0,461,728,323,352,231,
0,479,718,319,348,230,
0,472,708,316,344,227,
0,467,699,313,340,225,
0,463,689,312,337,248,
0,457,679,308,335,279,
0,452,669,306,332,275,
0,448,660,304,327,273,
0,444,707,301,325,271,
0,440,721,299,322,268,
0,435,711,295,366,265,
0,430,700,293,361,263,
0,425,691,291,358,261,
0,422,681,288,355,259,
0,417,671,287,352,256,
0,414,663,284,348,255,
0,410,652,282,344,252,
0,407,643,280,341,251,
0,403,636,278,337,248,
0,399,628,275,335,246,
0,396,747,274,352,244,
0,470,819,271,349,242,
0,463,805,302,346,269,
0,459,792,380,343,266,
0,454,780,376,339,263,
0,449,768,371,335,262,
0,444,754,368,332,259,
0,440,743,364,329,257,
0,435,732,361,327,255,
0,431,722,358,329,252,
0,427,712,355,359,251,
0,491,702,351,355,248,
0,484,693,348,352,254,
0,480,684,344,348,252,
0,473,675,342,344,249,
0,468,666,339,342,248,
0,463,655,335,337,245,
0,459,647,333,335,243,
0,454,639,331,332,241,
0,449,632,327,363,239,
0,444,624,325,367,237,
0,440,615,321,364,236,
0,435,609,319,359,246,
0,431,602,316,356,243,
0,427,595,313,353,242,
0,422,588,312,350,240,
0,418,579,309,346,238,
0,414,574,307,344,236,
0,411,824,304,339,233,
0,407,843,302,356,231,
0,403,828,300,352,230,
0,398,814,296,349,242,
0,395,801,294,345,287,
0,391,847,406,343,284,
0,387,902,399,339,281,
0,384,894,396,336,280,
0,381,871,391,332,276,
0,377,857,387,329,275,
0,375,843,384,327,271,
0,371,830,381,355,270,
0,369,817,377,352,268,
0,365,804,373,349,296,
0,363,792,487,345,293,
0,359,780,480,343,290,
0,356,769,475,339,287,
0,354,758,470,335,285,
0,352,745,464,332,283,
0,349,735,460,329,280,
0,346,724,455,327,278,
0,344,719,451,350,275,
0,488,864,447,345,273,
0,480,848,441,343,270,
0,475,834,438,339,268,
0,470,821,433,335,265,
0,465,807,430,333,263,
0,460,796,425,329,262,
0,455,900,422,326,259,
0,450,885,417,323,257,
0,445,889,415,321,255,
0,502,907,411,358,253,
0,608,909,407,355,251,
0,599,896,403,352,248,
0,591,876,399,348,247,
0,583,861,396,344,245,
0,576,847,391,342,243,
0,569,833,389,338,241,
0,563,852,386,335,240,
0,556,838,383,332,238,
0,551,824,380,367,236,
0,543,811,376,366,233,
0,538,798,374,363,231,
0,531,787,369,359,230,
0,525,775,367,355,228,
0,519,764,364,352,239,
0,514,753,361,349,236,
0,508,743,358,346,235,
0,504,729,355,342,232,
0,498,719,352,339,231,
0,493,711,350,368,229,
0,487,702,348,365,227,
0,483,692,344,361,225,
0,478,684,341,358,223,
0,472,675,339,355,227,
0,468,667,335,352,274,
0,463,658,334,348,271,
0,459,650,331,344,269,
0,455,758,327,341,267,
0,451,743,326,338,263,
0,446,732,323,359,262,
0,441,721,321,355,259,
0,436,842,319,352,257,
0,433,828,316,348,255,
0,429,814,313,345,252,
0,425,800,312,342,251,
0,422,788,308,339,248,
0,417,776,307,335,246,
0,414,762,304,332,244,
0,410,751,302,329,243,
0,407,834,300,367,240,
0,484,892,297,363,238,
0,476,875,295,359,238,
0,472,860,294,355,239,
0,466,846,291,352,239,
0,461,831,289,349,237,
0,455,819,287,346,235,
0,451,806,285,343,233,
0,447,791,283,339,231,
0,442,779,281,335,230,
0,438,811,280,366,227,
0,622,902,278,361,225,
0,611,910,275,359,249,
0,603,914,284,355,247,
0,595,915,281,352,281,
0,588,910,279,348,279,
0,582,883,276,345,275,
0,574,868,274,342,273,
0,568,851,272,338,271,
0,561,838,271,354,268,
0,582,867,268,352,266,
0,670,851,267,348,263,
0,658,838,264,345,297,
0,649,824,263,342,294,
0,641,812,286,339,291,
0,632,799,283,335,287,
0,625,787,280,332,286,
0,617,775,278,329,284,
0,610,851,275,326,280,
0,603,837,273,355,279,
0,595,824,271,351,276,
0,589,810,268,348,273,
0,580,797,266,344,271,
0,574,785,263,342,269,
0,568,787,262,338,267,
0,561,775,259,335,265,
0,556,764,258,332,263,
0,550,751,255,329,260,
0,543,740,254,326,259,
0,537,731,252,366,256,
0,531,721,251,361,255,
0,526,711,249,359,252,
0,519,817,248,355,252,
0,514,841,425,352,271,
0,508,827,420,348,269,
0,504,814,415,345,267,
0,499,800,412,342,263,
0,494,824,408,339,262,
0,488,894,403,335,259,
0,484,876,399,362,257,
0,549,861,396,359,255,
0,542,847,391,355,253,
0,534,833,388,352,251,
0,527,820,384,348,248,
0,521,807,381,345,247,
0,515,795,377,342,244,
0,510,783,375,339,242,
0,504,807,371,335,240,
0,499,903,368,332,239,
0,494,906,365,363,237,
0,624,887,361,359,235,
0,615,871,359,356,233,
0,606,856,355,353,231,
0,598,843,352,350,230,
0,591,829,349,347,228,
0,583,816,346,343,226,
0,577,803,344,339,224,
0,570,788,341,337,223,
0,563,777,338,351,221,
0,582,897,335,358,220,
0,681,908,333,354,217,
0,671,913,330,351,271,
0,662,914,327,348,268,
0,652,907,324,344,265,
0,644,881,321,341,263,
0,636,866,319,338,260,
0,628,852,317,335,258,
0,621,835,315,332,255,
0,614,824,312,374,254,
0,607,809,310,369,252,
0,600,798,307,366,249,
0,592,786,305,363,248,
0,583,775,302,359,246,
0,577,764,300,355,243,
0,571,752,297,352,241,
0,564,743,295,349,239,
0,559,732,294,346,237,
0,552,719,291,343,235,
0,547,711,289,364,233,
0,541,702,287,361,231,
0,535,792,285,358,230,
0,529,779,283,354,227,
0,523,766,280,351,226,
0,518,755,279,348,250,
0,512,743,276,344,248,
0,507,732,274,341,246,
0,502,722,271,338,243,
0,497,780,271,335,241,
0,492,901,268,359,239,
0,639,909,267,356,237,
0,632,913,264,352,243,
0,623,915,263,350,277,
0,612,913,260,346,283,
0,606,889,259,343,281,
0,598,872,257,339,279,
0,591,859,255,337,276,
0,583,844,253,334,273,
0,577,873,252,330,271,
0,571,905,250,359,269,
0,667,910,248,356,267,
0,657,909,247,353,265,
0,648,887,245,350,263,
0,638,871,243,347,265,
0,631,856,241,343,262,
0,623,843,240,339,259,
0,615,882,238,337,257,
0,608,905,236,334,255,
0,600,911,235,350,254,
0,593,903,233,363,251,
0,587,880,231,359,249,
0,579,865,231,355,258,
0,574,851,297,352,255,
0,566,838,320,349,273,
0,559,824,318,345,270,
0,552,812,315,343,267,
0,547,799,312,339,264,
0,541,787,309,336,263,
0,536,890,307,386,260,
0,556,882,304,382,258,
0,550,867,301,378,255,
0,543,852,376,375,275,
0,536,838,401,371,273,
0,529,825,396,368,289,
0,524,812,391,364,286,
0,518,799,387,360,284,
0,512,787,384,358,281,
0,508,882,380,354,279,
0,503,903,377,359,276,
0,564,886,374,355,273,
0,557,870,370,352,271,
0,551,856,367,349,269,
0,543,841,364,345,267,
0,536,828,359,343,263,
0,529,816,356,339,263,
0,524,803,353,337,260,
0,518,881,351,334,257,
0,512,865,348,331,255,
0,507,847,345,355,254,
0,502,833,342,352,252,
0,496,820,339,348,249,
0,491,807,336,345,248,
0,487,795,343,342,246,
0,480,783,338,339,243,
0,476,771,335,335,241,
0,472,760,332,332,240,
0,467,750,330,329,238,
0,463,739,327,327,236,
0,459,894,324,371,234,
0,610,907,321,367,231,
0,601,911,319,363,231,
0,593,914,317,359,228,
0,586,908,314,356,263,
0,577,883,312,353,259,
0,571,867,309,350,255,
0,563,854,307,347,254,
0,557,839,304,344,252,
0,551,871,302,340,250,
0,547,907,300,359,248,
0,553,911,297,356,246,
0,547,915,295,352,243,
0,541,915,295,350,241,
0,535,896,292,346,240,
0,527,875,289,343,237,
0,521,860,287,339,235,
0,516,847,285,337,233,
0,511,833,283,334,231,
0,505,820,280,332,230,
0,529,903,279,364,227,
0,523,910,276,360,226,
0,517,908,275,358,268,
0,511,907,272,354,265,
0,505,911,271,351,263,
0,498,911,268,348,260,
0,493,888,266,344,258,
0,487,871,264,342,255,
0,483,857,263,338,253,
0,479,844,261,364,252,
0,473,827,259,359,249,
0,469,815,257,356,247,
0,464,803,255,353,245,
0,460,790,254,350,243,
0,455,779,252,347,274,
0,450,768,249,344,271,
0,446,757,248,340,268,
0,442,747,246,337,265,
0,438,736,244,334,263,
0,435,872,243,366,262,
0,600,907,241,361,259,
0,591,909,239,358,257,
0,584,894,238,354,255,
0,577,875,236,351,252,
0,568,860,235,348,251,
0,562,847,232,344,248,
0,556,832,231,341,246,
0,549,820,230,338,243,
0,543,807,227,335,242,
0,536,796,226,359,240,
0,531,780,225,355,238,
0,525,901,297,352,236,
0,519,908,368,348,234,
0,513,913,364,345,232,
0,507,913,360,342,231,
0,502,894,356,339,228,
0,496,875,353,335,227,
0,492,860,350,332,225,
0,487,847,347,330,224,
0,487,897,344,348,222,
0,611,909,340,344,220,
0,603,913,337,339,218,
0,595,916,335,336,216,
0,588,919,332,334,252,
0,579,920,329,331,249,
0,572,913,326,327,247,
0,565,883,323,324,244,
0,559,868,321,322,243,
0,551,855,318,319,240,
0,546,841,316,347,239,
0,540,824,312,342,236,
0,534,812,311,339,236,
0,527,799,307,335,233,
0,523,788,305,333,231,
0,515,898,303,329,230,
0,510,908,300,327,227,
0,504,912,297,323,225,
0,499,910,295,321,224,
0,495,887,294,354,222,
0,489,867,291,363,220,
0,484,853,288,359,219,
0,480,900,286,355,222,
0,475,909,284,352,220,
0,471,913,282,348,220,
0,464,915,280,345,217,
0,460,912,278,342,216,
0,455,887,275,339,214,
0,451,871,273,335,212,
0,448,856,271,339,210,
0,443,894,269,335,209,
0,439,899,267,332,207,
0,435,880,265,328,207,
0,431,864,263,326,204,
0,427,851,262,323,233,
0,423,836,259,319,231,
0,419,824,257,318,229,
0,415,811,255,315,227,
0,412,799,254,312,225,
0,408,787,252,359,223,
0,467,773,249,355,222,
0,462,783,248,350,220,
0,457,771,247,347,217,
0,452,760,244,344,242,
0,448,749,243,340,239,
0,441,810,240,337,236,
0,437,866,239,334,235,
0,432,872,238,331,231,
0,428,857,236,327,231,
0,472,844,234,336,228,
0,572,825,231,333,227,
0,563,813,231,329,225,
0,557,800,230,327,223,
0,551,788,228,323,224,
0,543,776,231,320,222,
0,536,765,228,318,220,
0,529,754,227,316,218,
0,524,856,225,312,216,
0,518,839,224,310,215,
0,644,900,222,348,213,
0,694,903,220,344,211,
0,684,885,261,340,291,
0,675,868,257,337,287,
0,665,855,255,334,284,
0,657,840,253,331,281,
0,647,827,251,327,280,
0,639,814,248,324,275,
0,632,801,247,322,273,
0,624,790,244,348,271,
0,616,777,242,359,269,
0,609,764,240,356,267,
0,602,753,307,352,275,
0,595,743,312,349,272,
0,588,732,308,345,270,
0,582,723,306,343,268,
0,574,713,302,339,265,
0,568,704,300,336,263,
0,561,695,297,334,260,
0,555,686,295,359,259,
0,550,678,291,355,255,
0,543,667,289,352,254,
0,537,659,287,348,269,
0,531,651,285,344,267,
0,527,643,283,342,265,
0,520,635,280,338,263,
0,514,627,278,335,260,
0,509,620,275,332,257,
0,504,614,273,329,255,
0,499,607,271,369,253,
0,494,600,268,366,251,
0,489,716,267,361,263,
0,484,705,263,358,279,
0,480,695,263,354,276,
0,476,684,260,351,274,
0,471,675,259,348,271,
0,465,666,255,344,270,
0,460,890,254,342,267,
0,455,892,252,339,263,
0,502,875,251,371,262,
0,566,859,248,367,259,
0,560,841,247,363,318,
0,551,828,244,359,331,
0,545,816,243,355,327,
0,539,803,241,352,324,
0,533,791,239,349,321,
0,526,779,237,345,318,
0,519,768,235,343,315,
0,514,756,233,339,312,
0,508,746,231,367,310,
0,504,736,230,363,307,
0,499,723,263,359,304,
0,494,713,300,355,301,
0,488,704,303,352,299,
0,483,695,300,349,295,
0,478,686,296,345,294,
0,472,676,294,342,291,
0,467,668,291,339,288,
0,463,659,288,353,287,
0,575,652,286,359,284,
0,604,643,284,356,281,
0,596,634,281,352,280,
0,588,627,279,349,278,
0,582,620,276,345,275,
0,574,611,274,343,273,
0,568,604,271,339,271,
0,559,598,269,336,268,
0,553,591,267,334,266,
0,547,584,265,351,263,
0,540,579,263,348,262,
0,535,572,260,344,260,
0,528,564,259,339,268,
0,523,559,257,337,265,
0,518,552,255,334,305,
0,512,547,252,331,303,
0,506,541,251,327,300,
0,499,536,248,325,295,
0,495,530,247,322,294,
0,489,525,244,356,291,
0,485,519,243,352,288,
0,480,515,241,349,300,
0,476,508,239,344,319,
0,471,504,237,342,316,
0,465,498,236,339,313,
0,461,494,233,335,311,
0,457,488,231,332,307,
0,451,484,230,329,304,
0,448,480,228,327,302,
0,443,476,227,359,299,
0,440,471,225,355,295,
0,435,467,224,352,294,
0,432,462,222,348,291,
0,428,457,224,345,289,
0,423,453,262,342,287,
0,420,449,259,339,284,
0,416,445,257,335,282,
0,412,441,254,332,280,
0,408,438,252,329,277,
0,406,636,249,355,275,
0,401,760,248,352,272,
0,399,748,246,348,291,
0,395,734,243,344,288,
