=~=~=~=~=~=~=~=~=~=~=~= PuTTY log 2021.04.22 11:38:59 =~=~=~=~=~=~=~=~=~=~=~=
6,148,12131,192,
0,431,
0,456,907,176,140,376,
0,450,883,174,140,407,
0,446,867,174,138,402,
0,440,852,172,137,398,
0,435,839,171,135,392,
0,431,825,169,135,388,
0,427,812,167,134,174,140,407,
0,446,867,174,138,402,
0,440,852,172,137,398,
0,435,839,171,135,392,
0,431,825,169,135,388,
0,427,812,167,134,385,
0,423,896,167,140,382,
0,419,900,440,852,172,137,398,
0,435,839,171,135,392,
0,431,825,169,135,388,
0,427,812,167,134,385,
0,423,896,167,140,382,
0,419,908,166,139,377,
0,415,911,165,138,375,
0,486,903,163,37,371,
0,480,880,173,135,384,
0,473,864,172,135,379,
0StartUp!
124,396,878,188,125,395,
0,392,867,190,124,399,
0,390,856,188,124,396,
0,387,846,188,123,392,
0,384,835,186,122,390,
0,381,824,185,121,387,
0,379,815,184,121,384,
0,376,806,184,120,381,
0,374,896,182,120,379,
0,371,906,181,120,376,
0,368,910,179,119,371,
0,387,897,178,118,368,
0,404,876,176,117,365,
0,399,861,184,116,361,
0,396,847,183,115,358,
0,391,833,180,115,355,
0,388,819,179,113,352,
0,384,803,178,112,348,
0,381,894,176,119,345,
0,377,908,175,117,342,
0,374,911,174,116,339,
0,434,903,172,115,336,
0,428,880,171,115,361,
0,423,864,176,113,384,
0,419,850,175,113,380,
0,414,835,173,112,376,
0,410,823,172,111,372,
0,406,806,171,110,369,
0,402,899,169,113,366,
0,399,909,167,112,362,
0,395,915,167,112,361,
0,449,907,167,111,358,
0,442,879,188,110,415,
0,438,864,185,109,411,
0,433,849,184,108,407,
0,428,835,182,108,402,
0,423,822,180,107,398,
0,420,807,179,147,395,
0,415,903,177,145,391,
0,412,910,176,144,387,
0,408,913,175,143,384,
0,480,910,174,142,379,
0,472,887,200,141,417,
0,467,870,199,140,413,
1,462,855,197,139,408,
1,457,841,195,137,404,
2,452,827,193,135,400,
3,448,846,192,159,396,
3,444,903,190,158,391,
3,440,911,188,156,388,
4,435,911,188,155,385,
5,494,890,185,153,382,
6,487,873,207,152,427,
6,481,857,205,152,422,
6,476,844,204,150,418,
6,471,830,201,149,414,
7,465,816,199,148,409,
7,462,884,199,163,406,
7,456,906,196,160,401,
7,451,911,195,159,397,
7,448,913,193,158,393,
7,444,906,192,157,390,
7,439,880,212,156,427,
7,435,865,210,154,423,
7,430,851,208,153,418,
7,426,837,207,152,414,
7,423,824,205,151,409,
7,419,895,204,163,406,
7,415,908,201,163,401,
7,411,911,199,161,398,
7,444,911,199,159,393,
7,440,889,196,159,399,
7,433,872,220,157,430,
7,428,858,218,156,425,
6,424,844,216,155,422,
6,420,830,215,153,417,
7,415,817,213,152,413,
6,412,900,211,167,408,
7,408,909,209,166,404,
6,404,913,207,164,400,
6,409,913,206,163,397,
6,403,894,204,162,448,
6,399,874,212,160,441,
6,396,860,211,159,436,
6,393,845,208,158,432,
6,390,831,207,157,427,
6,387,818,205,156,423,
6,384,903,204,161,419,
6,380,910,201,159,414,
5,376,913,200,159,411,
5,400,911,199,157,407,
5,396,887,199,156,456,
5,391,871,198,155,449,
4,387,856,195,153,444,
5,384,841,194,152,440,
4,380,828,193,152,435,
4,376,816,192,155,431,
4,374,903,190,157,427,
4,370,911,188,156,423,
4,367,912,187,155,419,
4,364,899,185,153,414,
4,360,878,217,152,466,
4,390,862,214,151,459,
4,386,847,212,150,454,
4,382,833,210,148,449,
4,378,820,208,147,444,
3,375,856,207,147,440,
3,371,907,205,145,435,
4,368,911,204,144,431,
3,365,903,201,143,427,
3,362,880,199,142,423,
3,359,865,225,142,475,
3,355,851,223,140,468,
3,352,836,221,139,463,
3,350,823,219,138,458,
3,347,809,217,137,454,
3,344,887,216,143,448,
3,342,908,214,142,444,
3,338,911,211,141,440,
3,335,906,210,140,435,
3,333,882,208,139,438,
3,331,866,250,137,468,
3,327,852,247,135,462,
3,326,838,244,135,457,
3,323,824,242,135,452,
3,319,812,240,134,448,
3,318,900,239,135,443,
3,316,909,236,134,439,
3,313,911,235,132,435,
3,316,903,232,131,430,
3,312,880,231,131,473,
2,309,864,246,129,467,
2,307,850,243,128,461,
2,305,836,241,127,455,
2,303,823,239,127,451,
2,300,809,237,126,447,
2,297,903,235,132,441,
2,295,910,233,131,438,
1,294,911,231,130,433,
2,324,890,230,129,429,
2,321,873,251,127,454,
1,317,858,248,127,448,
1,314,844,244,126,443,
2,312,830,243,125,438,
1,308,817,240,124,433,
1,305,804,239,131,428,
1,303,904,236,133,424,
1,300,910,235,131,420,
1,297,905,232,130,416,
1,344,881,231,129,412,
1,339,865,248,128,449,
1,335,851,244,127,444,
1,332,836,242,127,438,
1,329,824,240,125,433,
1,327,811,238,124,429,
1,323,845,236,142,423,
1,320,906,234,140,420,
1,318,911,232,139,415,
1,335,904,231,137,412,
1,344,880,228,135,408,
1,339,865,227,135,438,
0,335,850,225,135,432,
0,332,836,224,133,427,
1,329,823,222,132,423,
1,327,810,220,131,419,
1,323,883,218,131,414,
0,320,908,216,130,410,
0,318,910,215,129,407,
0,316,896,214,127,403,
0,312,876,211,127,416,
0,321,861,215,126,453,
0,318,846,212,125,448,
0,315,831,211,124,441,
1,312,819,209,123,437,
1,309,807,207,122,432,
0,307,895,206,132,428,
0,304,909,204,131,423,
0,301,911,203,130,419,
0,319,902,201,129,415,
0,316,878,199,127,470,
0,314,863,208,127,463,
0,311,848,206,126,459,
0,307,834,204,125,452,
0,305,821,203,124,448,
0,302,807,201,124,443,
0,300,899,199,131,439,
0,297,910,199,130,434,
0,295,906,197,129,430,
0,330,883,195,127,425,
0,327,867,221,127,430,
0,323,852,218,126,424,
0,319,838,216,124,420,
0,316,824,214,124,415,
0,313,812,212,123,412,
0,311,799,210,123,408,
0,308,902,208,123,403,
0,305,910,207,122,399,
0,303,907,205,121,396,
0,312,883,204,120,392,
0,310,868,235,120,397,
0,307,853,231,119,393,
0,304,839,230,118,390,
0,301,825,227,117,385,
0,299,812,226,116,382,
0,295,847,224,124,378,
0,294,904,223,123,375,
0,291,910,221,121,371,
0,317,903,219,120,368,
0,323,880,217,120,365,
0,319,864,226,118,415,
0,317,849,224,118,411,
0,313,835,222,116,407,
0,311,822,220,115,401,
0,307,809,218,115,398,
0,305,883,216,120,393,
0,303,906,215,120,390,
0,300,911,213,118,386,
0,323,899,211,118,382,
0,319,877,209,116,391,
0,316,862,215,115,430,
0,313,847,213,115,425,
0,310,833,211,113,419,
0,307,820,209,113,415,
0,304,807,207,112,412,
0,302,894,206,121,408,
0,299,907,204,120,403,
0,295,911,203,119,399,
0,331,896,201,118,396,
0,327,876,199,117,450,
0,323,860,198,115,445,
0,321,846,196,115,440,
0,317,831,195,114,434,
0,314,819,193,113,430,
0,312,806,192,114,425,
0,308,899,191,119,421,
0,305,908,189,118,416,
0,303,911,188,116,412,
0,323,892,187,115,408,
0,319,874,185,115,432,
0,316,859,184,114,428,
0,313,844,183,113,423,
0,310,831,180,112,417,
0,307,817,179,111,414,
0,305,805,178,112,409,
0,302,902,177,115,405,
0,300,910,176,113,401,
0,296,905,175,112,398,
0,334,881,174,111,393,
0,330,867,195,110,447,
0,327,851,193,110,441,
0,323,838,192,109,436,
0,319,824,190,108,431,
0,317,811,188,107,427,
0,315,845,187,124,423,
0,312,904,185,123,418,
0,308,910,184,121,414,
0,327,903,183,121,409,
0,345,880,180,120,406,
0,342,864,203,119,452,
0,338,849,200,118,448,
0,335,835,199,117,443,
0,332,822,196,116,437,
0,327,809,195,115,432,
0,326,883,193,120,428,
0,322,906,192,119,423,
0,319,910,190,118,419,
0,328,896,189,116,415,
0,325,876,188,115,415,
0,322,861,204,115,450,
0,319,847,203,113,445,
0,316,831,201,113,440,
0,312,819,199,112,435,
0,310,806,198,111,431,
0,307,892,195,126,425,
0,304,907,194,125,422,
0,302,907,192,124,417,
0,332,881,191,123,414,
0,327,866,190,121,462,
0,325,851,214,120,455,
0,321,837,211,120,451,
0,318,824,209,119,446,
0,315,810,207,118,440,
0,312,798,206,117,435,
0,310,897,204,134,431,
0,307,908,203,132,427,
0,304,911,201,131,423,
0,366,898,199,130,418,
0,361,877,212,129,448,
0,358,862,210,127,441,
0,355,847,208,127,438,
0,350,833,207,126,432,
0,347,819,204,125,427,
0,344,807,203,127,423,
0,340,902,201,128,419,
0,337,910,199,127,415,
0,335,913,198,127,410,
0,405,902,196,125,407,
0,400,878,220,124,448,
0,396,863,218,123,443,
0,391,848,216,122,438,
0,387,835,215,121,433,
0,384,822,211,120,428,
0,380,854,210,127,423,
0,376,904,208,126,419,
0,374,911,207,125,415,
0,391,911,205,124,411,
0,423,888,204,123,407,
0,419,871,229,121,463,
0,415,856,227,120,458,
0,411,843,224,120,453,
0,406,829,223,119,448,
0,402,816,220,118,443,
0,398,884,219,124,438,
0,394,905,217,124,433,
0,391,911,216,122,429,
0,431,911,214,121,424,
0,425,885,211,120,425,
0,420,869,233,119,468,
0,415,855,231,118,463,
0,412,840,229,117,458,
0,407,827,227,116,453,
0,403,814,225,115,448,
0,399,895,223,127,443,
0,396,908,221,126,439,
0,391,911,219,125,434,
0,441,908,217,124,430,
0,435,883,216,123,480,
0,432,867,229,121,472,
0,427,852,227,120,467,
0,423,839,225,120,462,
0,417,824,223,119,457,
0,413,812,221,120,451,
0,409,898,219,128,447,
0,406,908,217,127,441,
0,401,911,216,126,438,
0,447,896,214,125,433,
0,441,876,219,124,451,
0,436,860,216,123,446,
0,432,846,215,122,441,
0,428,831,213,121,436,
0,423,819,211,120,432,
0,419,807,209,127,427,
0,415,902,207,128,423,
0,411,910,206,127,419,
0,407,912,204,126,415,
0,464,896,203,125,411,
0,459,876,224,124,455,
0,455,860,221,123,450,
0,449,846,220,122,445,
0,445,832,217,121,440,
0,440,819,216,120,436,
0,435,852,214,127,430,
0,431,904,211,126,426,
0,427,911,210,125,422,
0,430,913,208,124,417,
0,457,892,207,123,414,
0,452,874,227,122,430,
0,448,859,225,121,425,
0,443,845,224,120,421,
0,439,831,222,119,416,
0,433,817,219,119,412,
0,429,886,217,120,408,
0,424,906,216,119,403,
0,420,911,214,118,399,
0,426,909,212,117,396,
0,422,881,210,116,393,
0,417,866,229,115,435,
0,414,852,227,114,431,
0,409,838,225,113,427,
0,406,824,223,112,422,
0,401,811,220,112,418,
0,398,894,219,116,412,
0,393,907,217,115,408,
0,391,911,216,114,404,
0,444,910,214,113,400,
0,439,881,212,112,441,
0,434,866,227,111,438,
0,430,851,225,111,432,
0,425,838,224,110,428,
0,421,824,222,109,423,
0,415,811,220,110,419,
0,412,899,217,123,414,
0,408,908,216,121,409,
0,404,912,214,120,406,
0,412,910,212,120,402,
0,408,882,227,119,432,
0,403,866,224,118,426,
0,399,851,223,116,422,
0,396,838,220,115,417,
0,391,824,219,115,413,
0,387,811,216,121,409,
0,384,902,215,122,403,
0,381,910,213,121,399,
0,377,913,211,120,396,
0,411,910,209,119,391,
0,407,881,210,118,440,
0,403,865,208,117,435,
0,399,851,207,116,430,
0,395,838,206,115,425,
0,391,824,204,114,422,
0,387,848,201,123,417,
0,384,903,199,121,412,
0,380,911,199,120,408,
0,387,9StartUp!
124,361,906,142,131,406,
0,363,891,141,131,403,
0,360,878,140,130,399,
0,358,867,156,129,412,
0,355,856,155,128,408,
0,353,845,154,127,405,
0,351,834,153,127,402,
0,348,824,152,126,399,
0,346,814,152,126,396,
0,344,804,151,125,393,
0,342,893,150,127,390,
0,339,908,147,127,386,
0,335,911,146,126,382,
0,352,907,145,124,378,
0,348,882,144,124,435,
0,344,866,150,123,429,
0,341,851,148,121,423,
0,337,834,147,120,419,
0,335,821,146,120,415,
0,332,808,145,119,412,
0,329,899,143,120,407,
0,327,909,143,119,403,
0,323,912,142,118,399,
0,364,907,140,116,394,
0,359,882,148,116,408,
0,356,867,146,115,403,
0,353,851,145,114,399,
0,350,835,143,113,395,
0,347,821,143,112,391,
0,344,807,142,113,387,
0,340,905,141,113,386,
0,339,911,140,112,383,
0,335,915,139,112,378,
0,413,905,138,111,375,
0,408,880,153,110,432,
0,404,865,152,109,427,
0,399,851,151,108,422,
0,396,833,148,107,417,
0,391,819,147,107,414,
0,388,860,147,145,409,
0,385,904,145,143,405,
0,382,911,144,142,401,
0,412,914,143,141,396,
0,452,911,142,140,392,
0,448,887,176,139,444,
0,443,870,174,137,440,
0,438,856,173,135,435,
1,433,838,172,135,430,
1,430,824,170,134,425,
2,425,888,168,149,422,
2,421,906,167,147,417,
3,417,911,166,146,413,
3,489,915,164,145,408,
3,487,907,163,143,415,
3,483,881,190,143,435,
4,477,866,188,142,430,
4,472,851,187,140,425,
5,467,834,185,140,421,
5,463,820,184,138,416,
5,457,895,182,156,412,
5,452,908,181,153,408,
5,448,911,179,152,404,
6,503,911,177,152,399,
5,496,888,176,151,451,
5,491,871,197,148,446,
5,486,856,195,148,441,
6,480,842,193,147,436,
5,475,825,192,145,432,
6,470,812,190,144,428,
5,465,899,188,159,423,
5,460,909,187,157,419,
5,455,912,185,156,415,
5,508,910,184,154,409,
5,503,885,214,153,474,
6,496,869,211,152,468,
5,492,855,208,151,463,
5,486,840,207,150,458,
5,481,824,205,148,454,
5,476,810,203,156,449,
5,472,902,201,156,444,
5,467,910,199,155,440,
5,460,913,199,153,435,
4,486,908,196,152,430,
4,480,883,207,152,476,
4,475,867,206,150,470,
4,470,853,204,148,464,
4,464,839,202,147,460,
4,460,822,199,146,455,
4,455,856,199,148,450,
4,451,904,198,147,446,
4,447,911,195,146,441,
4,442,913,194,145,436,
4,441,907,192,143,431,
3,437,882,211,143,428,
4,432,867,209,142,424,
3,429,851,207,141,420,
3,424,838,205,140,416,
3,421,822,204,139,412,
3,417,886,202,150,408,
3,414,906,199,148,404,
3,409,911,199,147,401,
3,441,914,197,146,397,
3,436,908,195,145,409,
3,432,881,206,143,442,
3,427,867,204,143,438,
3,423,852,201,142,432,
3,419,838,199,140,428,
3,415,821,199,139,423,
3,411,895,197,154,419,
3,407,907,195,152,415,
3,403,912,193,152,411,
3,408,913,192,150,407,
3,403,900,191,149,460,
3,399,876,206,147,454,
3,396,862,204,147,448,
3,392,847,203,145,444,
3,390,833,201,144,440,
3,386,817,199,143,435,
3,384,899,198,153,430,
2,380,908,196,152,425,
3,376,913,195,151,422,
3,380,911,193,149,417,
3,376,888,249,148,472,
3,372,871,244,147,465,
2,369,856,242,146,460,
2,367,843,240,145,455,
3,364,825,238,143,451,
2,359,812,236,147,447,
3,358,902,234,145,441,
2,355,910,231,144,437,
2,352,913,231,143,433,
2,412,907,228,142,428,
2,408,881,227,141,457,
2,403,866,224,140,452,
2,399,851,223,139,448,
2,396,838,221,137,443,
2,391,820,219,136,438,
2,388,839,217,147,433,
2,384,903,216,145,429,
1,381,911,214,143,425,
1,377,912,212,143,420,
1,441,899,211,142,416,
2,436,877,211,140,465,
2,432,861,209,140,460,
1,428,847,207,138,455,
1,423,833,206,137,450,
1,419,816,204,135,445,
1,415,885,203,163,440,
1,411,906,201,161,436,
1,408,911,199,159,432,
1,417,913,199,159,428,
1,441,899,197,158,423,
1,436,876,203,156,455,
1,432,861,200,155,451,
1,428,847,199,153,447,
1,423,833,198,152,441,
1,419,816,196,151,437,
1,415,894,195,158,432,
1,411,907,193,157,428,
1,408,911,192,156,423,
1,462,910,190,154,419,
1,456,887,188,153,417,
1,451,870,193,152,428,
1,447,856,192,151,423,
1,442,841,190,150,419,
1,438,828,189,148,415,
1,433,812,187,147,411,
1,429,899,185,152,408,
1,424,908,184,150,403,
1,420,912,184,149,399,
0,457,909,182,148,396,
1,451,884,200,147,455,
0,447,868,199,145,448,
1,441,854,196,144,443,
1,438,839,195,143,438,
1,433,826,193,143,433,
1,428,810,192,142,429,
1,424,902,190,143,424,
1,420,909,188,142,420,
0,416,912,187,141,415,
0,471,905,185,140,412,
0,463,881,184,139,443,
0,459,865,182,138,436,
0,454,851,181,136,432,
0,449,838,179,135,428,
0,445,824,178,135,423,
0,440,839,177,135,419,
0,436,903,176,135,415,
0,432,911,175,135,411,
0,428,912,173,134,407,
0,463,899,172,133,403,
0,456,877,193,132,435,
0,451,862,192,131,428,
0,447,847,190,130,423,
0,443,833,188,129,419,
0,438,820,187,127,415,
0,433,881,185,144,411,
0,430,905,184,143,407,
0,425,911,183,142,403,
0,428,911,181,141,399,
0,473,892,179,140,396,
0,467,874,203,139,435,
0,462,859,201,137,428,
0,456,845,199,135,423,
0,451,831,198,135,420,
0,448,817,196,135,415,
0,443,893,195,143,411,
0,439,908,193,142,408,
0,434,911,192,141,403,
0,489,912,190,140,399,
0,496,891,188,139,408,
0,488,873,196,137,438,
0,483,859,195,135,432,
0,478,844,193,135,428,
0,473,831,192,134,423,
0,468,817,190,133,419,
0,463,898,188,136,415,
0,459,908,187,135,410,
0,454,912,185,135,407,
0,492,909,184,134,403,
0,486,884,183,132,440,
0,479,868,192,131,434,
0,473,854,191,131,428,
0,469,839,189,129,423,
0,463,825,188,128,419,
0,460,813,186,127,415,
0,455,902,184,143,412,
0,450,910,184,141,408,
0,446,912,182,140,403,
0,480,905,180,139,399,
0,475,880,198,137,396,
0,468,865,195,136,391,
0,463,851,193,135,387,
0,459,836,192,135,384,
0,454,824,191,134,380,
0,449,811,189,137,377,
0,445,903,187,143,374,
0,440,911,185,143,370,
0,436,913,184,141,367,
0,457,904,183,140,364,
0,452,880,190,139,415,
0,447,864,188,137,409,
0,441,849,185,136,405,
0,438,836,184,135,401,
0,433,823,183,135,397,
0,430,826,182,136,393,
0,425,906,180,135,390,
0,421,911,179,135,385,
0,417,913,177,134,382,
0,414,898,176,132,378,
0,411,876,199,131,438,
0,406,861,198,130,431,
0,402,847,195,129,427,
0,399,833,194,127,423,
0,395,819,192,127,418,
0,391,884,191,135,414,
0,388,908,189,133,409,
0,385,912,188,132,406,
0,399,915,186,131,401,
0,395,909,184,130,398,
0,391,882,193,129,424,
0,387,867,191,127,419,
0,383,852,189,127,415,
0,380,839,188,126,411,
0,376,825,185,125,407,
0,373,892,184,129,403,
0,370,909,183,127,399,
0,367,912,182,127,395,
0,399,910,180,126,391,
0,395,886,179,125,419,
0,391,869,199,124,416,
0,386,855,197,123,411,
0,383,840,195,122,407,
0,379,827,193,121,402,
0,376,814,192,120,399,
0,371,897,191,137,395,
0,368,909,189,135,391,
0,365,912,188,135,387,
0,376,907,185,133,384,
0,371,882,187,132,425,
0,367,867,185,131,420,
0,364,852,184,130,415,
0,360,838,183,129,411,
0,358,824,181,127,407,
0,355,812,179,129,403,
0,352,900,178,132,398,
0,349,911,177,131,395,
0,347,912,176,130,391,
0,414,899,174,129,387,
0,409,877,194,127,428,
0,403,862,192,127,423,
0,399,847,190,126,417,
0,396,833,188,125,413,
0,391,820,187,124,409,
0,388,822,185,142,405,
0,385,903,184,140,401,
0,382,911,182,139,397,
0,387,913,181,137,393,
0,454,897,179,135,390,
0,449,876,217,135,390,
0,443,861,215,134,385,
0,439,847,212,134,381,
0,434,833,210,132,377,
0,430,819,208,131,375,
0,425,876,207,137,371,
0,422,905,205,135,367,
0,417,911,204,135,364,
0,460,913,202,134,360,
0,494,896,199,132,366,
0,487,875,204,131,389,
0,481,860,203,130,385,
0,476,846,201,129,380,
0,472,831,199,127,376,
0,466,819,198,127,373,
0,462,892,196,139,369,
0,457,907,195,137,365,
0,451,912,193,135,362,
0,527,911,192,135,359,
0,519,888,190,134,401,
0,514,871,198,132,396,
0,508,856,196,131,391,
0,502,842,194,131,387,
0,496,828,192,129,384,
0,492,815,191,128,380,
0,487,897,190,135,376,
0,481,910,188,135,372,
0,476,913,187,133,369,
0,526,906,185,131,366,
0,519,882,210,131,412,
0,513,865,211,129,408,
0,507,851,209,128,403,
0,501,838,207,127,398,
0,496,824,206,127,394,
0,491,811,204,127,390,
0,486,900,202,131,387,
0,480,911,200,130,383,
0,476,913,199,129,379,
0,514,900,198,127,376,
0,508,877,196,127,416,
0,503,862,195,126,412,
0,496,847,193,124,408,
0,491,834,191,124,403,
0,486,820,190,123,398,
0,481,826,188,137,395,
0,476,903,187,135,390,
0,471,911,185,135,387,
0,466,912,184,134,384,
0,467,896,182,132,380,
0,463,875,199,131,414,
0,457,860,197,131,408,
0,452,846,195,129,404,
0,448,831,193,127,399,
0,444,819,192,127,396,
0,440,873,190,140,391,
0,435,905,188,138,387,
0,432,911,187,137,384,
0,476,911,185,135,380,
0,473,888,184,135,378,
0,468,871,198,134,406,
0,463,856,195,132,401,
0,457,843,194,131,398,
0,452,828,192,131,391,
0,448,816,191,129,388,
0,444,891,189,132,385,
0,439,907,188,131,381,
0,435,912,185,129,377,
0,467,911,184,128,374,
0,462,886,183,127,423,
0,457,870,198,127,419,
0,452,856,195,125,414,
0,447,841,194,124,409,
0,441,828,192,124,404,
0,438,815,191,123,400,
0,433,897,189,127,396,
0,429,908,188,127,392,
0,425,911,186,126,388,
0,462,902,184,124,385,
0,457,879,204,124,440,
0,451,863,204,123,433,
0,448,848,202,121,429,
0,441,835,199,120,424,
0,436,821,199,120,419,
0,432,808,197,120,415,
0,428,900,195,131,411,
0,423,909,193,130,407,
0,420,911,192,129,403,
0,465,896,191,127,399,
0,460,876,201,127,434,
0,455,860,199,126,429,
0,451,846,198,124,424,
0,444,831,195,124,420,
0,440,819,195,123,415,
0,436,822,193,135,411,
0,432,903,192,134,407,
0,428,910,190,132,403,
0,423,911,188,131,399,
0,470,893,187,130,395,
0,464,873,191,129,391,
0,460,859,189,127,387,
0,455,845,187,127,384,
0,449,831,185,126,380,
0,444,817,184,125,376,
0,440,873,183,134,372,
0,435,905,181,133,369,
0,432,911,179,132,366,
0,474,911,178,131,363,
0,480,889,177,130,377,
0,474,872,207,128,415,
0,469,857,206,127,412,
0,464,844,204,127,408,
0,458,830,201,126,403,
0,454,817,199,124,398,
0,449,891,198,139,395,
0,444,907,196,137,391,
0,440,912,195,135,387,
0,468,914,193,135,384,
0,463,902,192,134,429,
0,457,878,211,132,423,
0,453,863,209,131,419,
0,448,848,207,130,414,
0,443,835,205,129,409,
0,438,821,204,127,405,
0,433,898,201,137,401,
0,430,908,199,135,397,
0,425,912,199,135,393,
0,466,910,196,134,390,
0,461,886,207,132,419,
0,455,870,206,131,415,
0,451,855,204,130,411,
0,446,841,203,129,407,
0,440,827,200,127,401,
0,436,814,199,131,398,
0,432,900,198,143,393,
0,428,910,195,142,390,
0,423,913,194,140,386,
0,472,902,192,139,382,
0,466,879,210,138,426,
0,461,863,207,137,422,
0,455,848,206,135,417,
0,451,835,204,135,412,
0,446,822,202,134,408,
0,441,826,200,135,403,
0,437,903,199,134,399,
0,432,910,198,132,396,
0,428,913,195,131,391,
0,483,902,194,130,387,
0,479,878,201,129,432,
0,473,863,199,127,427,
0,468,848,198,127,423,
0,463,835,196,126,418,
0,457,821,195,125,412,
0,452,874,193,129,408,
0,448,905,192,127,404,
0,444,911,190,127,399,
0,481,913,188,126,396,
0,478,897,187,124,393,
0,472,876,192,124,403,
0,467,860,191,123,399,
0,462,847,189,121,395,
0,457,832,188,120,391,
0,451,819,185,120,387,
0,448,891,184,134,383,
0,443,907,183,132,379,
0,438,911,182,131,376,
0,448,910,180,130,372,
0,444,882,179,129,432,
0,439,866,204,127,427,
0,434,851,201,127,422,
0,430,838,199,126,417,
0,425,824,199,125,413,
0,421,812,196,124,408,
0,417,897,195,128,403,
0,413,908,193,127,399,
0,409,912,192,127,396,
0,462,910,190,125,391,
0,457,881,198,124,433,
0,451,865,195,123,428,
0,447,851,193,122,423,
0,443,837,192,121,419,
0,436,824,191,120,415,
0,432,811,189,121,410,
0,428,900,187,127,406,
0,423,909,185,127,402,
0,420,912,184,126,398,
0,455,908,183,124,394,
0,451,879,183,123,419,
0,446,863,181,122,414,
0,441,848,179,121,409,
0,437,835,179,120,406,
0,432,822,177,120,401,
0,427,819,176,133,396,
0,423,903,174,131,392,
0,419,910,173,130,389,
0,415,913,172,129,385,
0,449,908,171,127,382,
0,445,878,199,127,436,
0,440,863,196,126,432,
0,435,848,195,125,427,
0,432,835,193,124,423,
0,425,821,192,123,419,
0,422,873,190,134,413,
0,417,905,188,133,409,
0,414,911,187,131,405,
0,449,913,185,131,401,
0,451,898,184,129,407,
0,446,872,195,127,445,
0,441,857,193,127,440,
0,436,844,192,126,435,
0,432,830,190,125,431,
0,428,816,188,124,427,
0,423,891,187,133,420,
0,419,907,185,131,416,
0,415,911,184,131,413,
0,468,911,182,129,408,
0,463,892,180,129,443,
0,457,870,184,127,438,
0,452,855,182,126,432,
0,448,840,180,125,428,
0,444,827,179,124,423,
0,438,814,177,123,419,
0,433,897,176,137,414,
0,430,908,175,136,410,
0,425,912,173,135,406,
0,472,910,172,135,402,
0,467,881,192,134,439,
0,462,865,195,132,433,
0,457,851,193,131,429,
0,451,837,192,130,423,
0,448,824,190,129,420,
0,441,810,188,128,415,
0,438,900,187,131,411,
0,433,909,185,131,407,
0,429,912,184,129,403,
0,451,908,182,128,399,
0,446,879,192,127,427,
0,441,864,190,126,422,
0,436,849,188,125,417,
0,432,835,187,124,414,
0,428,822,185,123,409,
0,423,817,184,131,406,
0,419,903,182,129,399,
0,415,910,180,127,396,
0,411,912,179,127,391,
0,462,899,177,126,388,
0,457,873,199,125,437,
0,451,859,196,124,432,
0,447,844,195,123,428,
0,443,831,193,121,423,
0,438,817,192,121,419,
0,432,871,190,131,415,
0,428,905,188,129,409,
0,423,911,186,128,406,
0,470,913,185,127,401,
0,478,899,184,126,401,
0,472,872,199,125,442,
0,467,857,198,124,437,
0,463,844,195,123,432,
0,457,830,194,122,428,
0,453,817,192,121,423,
0,448,889,191,137,419,
0,443,907,189,135,414,
0,439,911,188,135,410,
0,448,911,186,134,406,
0,444,888,184,133,442,
0,439,868,198,131,436,
0,434,854,195,130,432,
0,430,839,194,129,427,
0,425,825,193,128,423,
0,422,813,191,127,419,
0,417,897,189,133,414,
0,413,908,188,131,408,
0,409,911,185,131,404,
0,463,908,184,129,400,
0,457,883,195,128,432,
0,452,864,198,127,428,
0,448,849,196,126,423,
0,443,835,195,125,419,
0,439,822,193,124,415,
0,434,808,192,124,411,
0,428,900,189,127,406,
0,423,909,188,127,401,
0,420,912,187,126,397,
0,483,905,184,124,393,
0,477,881,211,124,444,
0,472,862,209,123,439,
0,467,847,207,121,434,
0,462,833,206,120,429,
0,457,820,204,120,425,
0,452,812,203,124,420,
0,447,903,199,123,415,
0,443,910,199,121,411,
0,438,912,196,120,408,
0,481,898,195,120,403,
0,476,877,196,119,426,
0,471,857,195,118,422,
0,465,844,193,117,417,
0,460,830,192,115,413,
0,455,816,190,115,409,
0,451,868,188,124,404,
0,446,904,187,123,400,
0,441,911,185,122,396,
0,480,912,184,121,391,
0,487,894,183,120,393,
0,481,875,218,119,429,
0,476,856,216,118,423,
0,471,842,214,117,419,
0,466,828,212,116,415,
0,461,815,210,115,411,
0,457,889,208,124,407,
0,451,907,206,124,403,
0,446,911,205,122,398,
0,460,910,204,121,394,
0,455,886,201,120,431,
0,449,870,213,120,425,
0,445,851,211,118,421,
0,440,838,209,118,416,
0,435,824,207,116,412,
0,432,812,206,115,408,
0,428,897,204,129,404,
0,423,908,202,128,399,
0,419,912,199,127,396,
0,456,910,199,127,391,
0,451,886,198,126,432,
0,447,870,196,124,428,
0,441,852,195,124,423,
0,438,838,193,122,419,
0,433,824,192,121,415,
0,429,812,190,121,411,
0,424,900,189,129,406,
0,419,909,187,127,401,
0,415,911,185,127,397,
0,447,904,184,126,393,
0,441,880,191,125,423,
0,437,865,189,124,418,
0,432,847,187,123,414,
0,428,833,185,121,409,
0,423,819,184,120,405,
0,419,819,183,135,401,
0,415,903,181,135,397,
0,411,910,179,133,391,
0,407,913,178,132,388,
0,450,903,177,131,385,
0,446,879,201,130,396,
0,440,864,199,129,392,
0,435,846,198,127,388,
0,432,831,195,127,385,
0,427,819,194,126,381,
0,423,876,193,130,377,
0,419,905,191,128,374,
0,414,911,189,127,370,
0,448,914,188,127,367,
0,444,908,186,126,369,
0,440,882,204,124,409,
0,435,867,202,124,406,
0,431,848,200,122,401,
0,426,835,199,121,397,
0,422,822,197,120,393,
0,417,891,195,132,390,
0,414,907,193,131,385,
0,409,911,192,130,381,
0,451,914,190,129,377,
0,446,905,189,127,419,
0,441,880,198,127,413,
0,436,865,196,126,408,
0,432,847,195,125,404,
0,428,833,193,124,400,
0,423,820,192,123,396,
0,419,897,190,129,391,
0,415,908,188,128,388,
0,410,913,186,127,384,
0,466,912,184,127,380,
0,461,891,203,126,422,
0,455,872,209,124,417,
0,451,858,207,124,412,
0,446,840,206,122,408,
0,441,827,204,121,403,
0,438,814,203,120,399,
0,433,900,200,126,396,
0,428,909,199,126,391,
0,423,913,197,124,387,
0,472,911,195,124,384,
0,467,888,194,123,382,
0,462,871,192,121,378,
0,456,857,191,120,375,
0,451,839,190,120,371,
0,448,826,188,118,368,
0,443,823,187,134,364,
0,439,903,184,132,361,
0,433,910,184,131,358,
0,428,912,182,131,354,
0,451,905,180,129,352,
0,446,881,209,127,399,
0,440,865,207,127,394,
0,436,851,205,126,391,
0,432,833,203,125,386,
0,428,820,201,124,383,
0,423,871,199,132,379,
0,419,905,198,131,376,
0,415,911,196,130,371,
0,437,913,195,129,368,
0,435,903,193,127,364,
0,430,880,209,127,402,
0,425,864,207,126,398,
0,422,849,206,125,393,
0,417,832,204,124,390,
0,413,819,202,123,386,
0,409,891,201,130,382,
0,406,907,199,128,379,
0,401,911,198,127,375,
0,455,911,195,127,370,
0,449,892,194,126,388,
0,444,873,207,124,384,
0,440,859,206,124,380,
0,435,844,204,123,376,
0,431,827,201,121,371,
0,427,814,199,120,368,
0,423,896,199,127,365,
0,418,908,197,126,361,
0,413,911,195,124,359,
0,467,910,193,124,354,
0,462,886,220,123,412,
0,456,870,223,121,408,
0,451,855,221,120,403,
0,447,838,219,120,399,
0,442,824,217,119,395,
0,438,811,216,119,391,
0,433,899,214,131,387,
0,429,909,211,130,384,
0,423,911,210,129,380,
0,478,905,207,127,376,
0,472,881,207,127,417,
0,467,865,205,126,412,
0,462,851,203,125,408,
0,457,833,201,124,403,
0,452,820,199,123,399,
0,448,811,199,127,396,
0,444,903,197,127,391,
0,439,910,195,125,387,
0,433,911,194,124,384,
0,497,896,192,124,380,
0,492,876,195,123,376,
0,487,860,193,121,373,
0,481,846,192,120,369,
0,476,828,190,120,366,
0,472,816,188,119,363,
0,467,867,187,124,359,
0,462,904,185,123,356,
0,457,911,184,121,353,
0,477,912,183,120,350,
0,493,894,182,120,358,
0,487,875,188,119,389,
0,482,860,186,118,385,
0,477,846,184,117,381,
0,472,828,184,116,377,
0,467,815,182,115,374,
0,463,890,180,137,370,
0,457,907,179,135,367,
0,454,911,177,135,363,
0,523,913,176,134,359,
0,515,896,175,133,409,
0,510,875,190,131,403,
0,504,860,188,131,399,
0,499,846,187,129,395,
0,493,828,184,128,391,
0,487,816,184,127,387,
0,483,897,182,132,384,
0,478,908,180,131,380,
0,473,912,179,131,376,
0,488,911,177,129,372,
0,483,890,201,127,392,
0,477,872,216,127,388,
0,472,858,214,126,384,
0,467,844,212,126,380,
0,463,827,210,124,376,
0,459,814,208,125,374,
0,454,901,207,135,369,
0,449,909,205,134,366,
0,445,913,204,132,363,
0,484,913,201,131,359,
0,480,892,206,130,403,
0,473,873,204,129,399,
0,468,859,202,128,395,
0,463,844,200,127,391,
0,459,828,199,126,387,
0,454,831,198,131,384,
0,449,903,196,129,380,
0,446,911,195,128,376,
0,441,913,193,127,372,
0,492,911,191,126,368,
0,486,886,203,126,409,
0,480,870,201,124,404,
0,476,855,199,124,401,
0,471,841,198,123,396,
0,465,824,196,121,392,
0,460,871,195,129,389,
0,455,905,193,127,385,
0,451,911,192,127,381,
0,447,913,190,126,377,
0,486,902,188,124,374,
0,480,878,190,124,422,
0,475,863,188,122,417,
0,470,848,187,121,413,
0,465,835,185,120,408,
0,460,818,184,120,405,
0,455,890,183,127,400,
0,451,907,181,126,396,
0,447,911,179,125,392,
0,460,911,179,124,390,
0,492,888,176,123,385,
0,486,871,214,122,425,
0,480,856,212,121,420,
0,476,842,210,120,416,
0,471,828,208,120,412,
0,465,812,207,118,408,
0,461,896,205,127,403,
0,455,908,204,126,399,
0,451,911,201,125,396,
0,511,907,199,124,391,
0,503,882,200,123,428,
0,496,866,199,121,422,
0,492,851,197,121,417,
0,486,838,195,120,413,
0,481,824,193,120,408,
0,476,807,192,119,405,
0,472,899,191,126,400,
0,466,909,189,125,396,
0,462,911,188,124,393,
0,513,903,186,123,389,
0,505,879,199,121,429,
0,500,864,198,120,423,
0,495,849,195,120,419,
0,489,835,194,119,415,
0,484,822,192,118,411,
0,480,812,191,134,408,
0,475,903,189,132,403,
0,470,910,188,131,399,
0,464,912,186,130,396,
0,487,900,184,128,391,
0,481,878,224,127,423,
0,476,862,222,127,419,
0,471,847,220,126,415,
0,465,834,217,124,411,
0,460,821,216,124,407,
0,455,876,214,126,403,
0,451,905,212,125,399,
0,448,911,210,124,395,
0,443,914,209,123,391,
0,497,904,207,122,387,
0,489,880,207,121,418,
0,484,864,204,120,414,
0,480,850,203,120,409,
0,475,835,201,119,404,
0,470,823,199,118,401,
0,464,888,199,129,397,
0,460,906,196,127,392,
0,455,911,195,127,390,
0,463,910,193,126,385,
0,494,887,192,124,382,
0,487,871,199,124,423,
0,482,856,198,123,419,
0,477,842,196,121,415,
0,472,828,195,120,410,
0,467,815,193,120,406,
0,463,897,192,127,402,
0,457,908,190,127,398,
0,453,912,188,126,394,
0,512,911,187,124,391,
0,504,886,185,124,423,
0,497,870,197,123,419,
0,492,856,195,122,415,
0,487,841,193,121,411,
0,481,828,192,120,407,
0,477,815,190,120,403,
0,472,900,188,132,398,
0,467,909,188,131,395,
0,462,911,185,131,391,
0,504,904,184,129,387,
0,497,880,190,127,438,
0,492,865,196,127,431,
0,487,851,195,126,427,
0,481,836,193,125,422,
0,476,823,192,124,417,
0,472,810,190,123,414,
0,467,903,188,131,409,
0,462,910,187,129,405,
0,457,911,185,128,401,
0,483,899,184,127,398,
0,476,877,203,127,414,
0,471,862,200,126,408,
0,465,847,199,124,404,
0,461,833,198,123,399,
0,455,820,195,122,396,
0,451,807,194,134,391,
0,448,905,192,131,388,
0,443,911,191,130,384,
0,439,912,189,129,381,
0,476,897,188,128,377,
0,470,876,195,127,374,
0,464,860,192,126,370,
0,460,847,191,125,367,
0,455,832,189,124,364,
0,450,819,188,123,359,
0,446,855,186,131,357,
0,441,907,184,129,353,
0,436,911,184,128,351,
0,446,912,182,127,348,
0,476,892,180,126,344,
0,470,873,179,125,391,
0,465,859,177,124,386,
0,460,845,176,124,382,
0,455,831,175,123,378,
0,451,818,174,121,375,
0,447,886,172,135,371,
0,441,908,171,134,368,
0,437,911,169,132,364,
0,482,911,168,131,360,
0,476,888,167,130,391,
0,470,871,207,129,391,
0,465,856,206,127,387,
0,460,843,204,127,384,
0,455,829,202,126,380,
0,451,816,199,125,376,
0,446,900,199,130,371,
0,441,909,197,127,368,
0,438,913,195,127,365,
0,478,912,194,126,361,
0,472,891,199,125,412,
0,465,873,220,124,406,
0,460,858,218,123,400,
0,455,844,216,122,397,
0,451,831,215,121,392,
0,447,817,212,120,389,
0,441,903,211,131,385,
0,438,910,208,130,382,
0,433,911,207,129,377,
0,487,896,206,127,374,
0,482,876,226,127,412,
0,476,860,224,126,408,
0,471,846,221,125,401,
0,465,831,219,124,398,
0,460,819,217,123,393,
0,455,806,216,131,390,
0,451,905,214,131,385,
0,447,911,211,129,382,
0,442,912,210,127,379,
0,496,896,208,127,375,
0,490,876,207,126,418,
0,483,860,206,124,414,
0,478,847,204,124,408,
0,473,831,202,123,403,
0,468,819,200,121,399,
0,463,854,199,137,396,
0,459,907,198,135,391,
0,454,911,196,135,387,
0,463,910,195,134,384,
0,492,887,193,132,381,
0,487,871,209,131,408,
0,481,856,207,131,403,
0,476,841,205,129,398,
0,471,828,204,128,393,
0,465,815,202,127,390,
0,461,884,199,138,386,
0,455,908,199,136,383,
0,451,911,197,135,379,
0,481,909,195,134,376,
0,476,884,194,133,411,
0,471,868,194,132,409,
0,464,854,192,131,404,
0,460,839,191,130,399,
0,455,827,190,129,396,
0,450,814,188,127,391,
0,446,894,186,137,387,
0,441,909,185,135,384,
0,437,911,184,135,380,
0,433,903,182,134,376,
0,429,879,185,132,423,
0,424,863,192,131,419,
0,420,849,191,130,415,
0,416,835,189,129,409,
0,412,822,187,127,405,
0,408,808,185,127,401,
0,406,899,184,135,397,
0,402,910,183,134,393,
0,398,911,182,133,390,
0,415,892,179,131,385,
0,411,874,199,131,409,
0,407,859,198,129,405,
0,401,844,195,129,401,
0,398,831,193,127,396,
0,394,818,192,127,391,
0,391,805,191,140,388,
0,387,902,188,139,384,
0,384,910,187,137,381,
0,381,908,185,135,377,
0,395,885,184,135,374,
0,391,868,196,134,424,
0,387,854,195,133,419,
0,382,839,192,131,415,
0,379,827,191,131,409,
0,376,814,189,129,406,
0,372,847,188,132,401,
0,369,903,186,131,398,
0,366,911,184,129,393,
0,395,911,184,129,390,
0,419,888,182,127,387,
0,415,871,194,127,434,
0,410,856,192,126,429,
0,405,842,190,124,424,
0,401,828,188,124,419,
0,398,815,187,123,415,
0,393,885,185,127,411,
0,390,906,184,126,407,
0,386,911,183,125,403,
0,444,910,181,124,399,
0,438,884,179,123,422,
0,433,869,194,122,428,
0,428,855,192,121,423,
0,423,839,190,120,419,
0,419,827,188,119,414,
0,415,814,187,119,410,
0,411,895,185,125,406,
0,408,908,184,124,402,
0,403,912,183,123,398,
0,432,907,181,121,394,
0,427,882,180,120,429,
0,423,866,199,120,423,
0,418,852,197,119,419,
0,412,838,195,118,414,
0,408,824,193,117,409,
0,404,812,192,116,406,
0,401,899,190,129,401,
0,397,908,189,127,398,
0,393,911,187,127,393,
0,433,900,185,126,390,
0,429,878,204,125,435,
0,423,862,201,124,430,
0,420,847,199,123,425,
0,415,834,197,121,419,
0,411,820,195,121,415,
0,407,807,194,131,412,
0,403,902,192,129,407,
0,399,910,191,128,403,
0,396,912,189,127,399,
0,431,895,188,126,395,
0,427,875,201,125,419,
0,422,860,199,124,415,
0,417,846,199,123,411,
0,412,831,196,121,406,
0,408,819,195,121,401,
0,404,851,193,126,397,
0,400,904,192,125,393,
0,396,911,190,124,390,
0,396,909,188,122,386,
0,399,885,187,121,383,
0,396,869,185,120,407,
0,391,855,184,120,402,
0,387,840,182,119,398,
0,384,827,180,118,393,
0,380,814,179,117,390,
0,377,885,178,130,385,
0,374,906,176,129,382,
0,370,911,175,127,379,
0,407,907,174,126,375,
0,402,882,172,125,401,
0,398,867,193,124,407,
0,393,852,192,123,402,
0,390,838,191,122,398,
0,385,824,188,121,393,
0,382,812,187,120,390,
0,378,895,185,135,385,
0,375,908,184,135,382,
0,371,912,182,134,378,
0,419,910,181,131,375,
0,415,886,186,131,415,
0,411,870,193,130,409,
0,406,856,192,129,406,
0,401,840,190,127,401,
0,397,827,188,127,396,
0,393,814,187,126,391,
0,390,899,184,132,388,
0,386,908,184,131,384,
0,383,911,182,130,381,
0,431,897,180,128,377,
0,425,876,199,127,419,
0,422,861,198,126,415,
0,417,847,195,126,410,
0,412,833,194,124,406,
0,408,819,192,124,400,
0,403,807,191,129,396,
0,399,902,189,127,392,
0,396,910,187,127,389,
0,391,913,185,126,385,
0,435,901,184,124,382,
0,431,878,205,124,423,
0,425,862,204,123,419,
0,422,847,201,121,415,
0,415,834,199,121,411,
0,412,820,198,120,406,
0,408,861,196,126,401,
0,404,904,194,124,397,
0,399,911,193,124,393,
0,417,915,191,123,390,
0,435,908,190,121,385,
0,430,882,199,120,423,
0,425,867,199,120,419,
0,421,852,196,118,415,
0,415,838,195,118,411,
0,412,825,193,116,406,
0,408,885,192,123,401,
0,403,906,190,121,398,
0,399,911,188,121,393,
0,419,911,187,120,390,
0,415,883,185,119,425,
0,410,867,199,118,435,
0,406,852,199,116,430,
0,402,839,197,116,425,
0,397,825,195,115,422,
0,393,812,193,115,415,
0,390,894,192,125,412,
0,386,908,190,124,408,
0,383,911,188,123,403,
0,428,903,187,122,399,
0,423,879,185,120,440,
0,418,864,192,120,435,
0,414,849,191,119,430,
0,409,835,189,118,425,
0,404,822,188,117,422,
0,400,809,185,116,415,
0,397,899,184,128,412,
0,393,908,183,127,408,
0,389,912,181,126,403,
0,428,904,179,125,399,
0,423,880,199,124,431,
0,419,864,198,123,425,
0,414,850,195,121,422,
0,410,835,194,121,417,
0,405,823,192,120,413,
0,401,810,191,126,408,
0,397,902,188,124,403,
0,393,910,187,124,399,
0,390,912,185,123,396,
0,416,896,184,121,391,
0,412,876,193,120,418,
0,408,861,191,120,414,
0,403,847,190,119,409,
0,399,832,188,118,405,
0,395,819,186,117,401,
0,391,856,184,135,396,
0,387,904,183,135,391,
0,384,911,182,134,388,
0,401,911,180,132,384,
0,426,887,179,131,381,
0,422,870,198,130,377,
0,417,856,195,129,374,
0,413,841,193,128,371,
0,409,828,192,127,367,
0,403,815,190,126,364,
0,399,884,188,135,359,
0,396,906,187,135,357,
0,391,911,185,134,354,
0,400,911,184,132,351,
0,396,886,183,131,386,
0,391,870,196,130,398,
0,388,855,195,129,393,
0,385,840,193,127,390,
0,381,827,192,127,385,
0,377,814,190,126,382,
0,374,895,188,127,377,
0,370,908,186,126,374,
0,367,912,184,125,370,
0,423,911,184,124,367,
0,418,884,188,123,411,
0,414,868,205,122,406,
0,409,855,203,121,401,
0,406,840,201,120,397,
0,401,826,199,120,393,
0,396,813,198,119,390,
0,392,898,195,129,384,
0,389,908,194,127,381,
0,385,911,192,127,377,
0,420,906,191,126,374,
0,415,878,208,124,414,
0,412,862,206,124,409,
0,408,847,204,123,404,
0,403,834,203,121,400,
0,399,820,201,120,396,
0,395,807,199,136,392,
0,391,902,197,135,387,
0,387,910,195,134,384,
0,384,911,194,132,380,
0,390,898,192,131,376,
0,385,872,196,131,374,
0,382,857,195,129,369,
0,378,844,193,128,367,
0,375,830,192,127,363,
0,371,816,190,126,359,
0,368,855,188,129,356,
0,364,904,187,127,352,
0,360,911,185,127,350,
0,366,911,184,126,347,
0,363,896,182,125,344,
0,359,871,200,123,399,
0,356,856,199,123,395,
0,353,843,197,121,391,
0,351,829,195,120,387,
0,348,816,193,120,383,
0,344,885,192,127,379,
0,342,906,190,126,375,
0,339,911,188,125,371,
0,359,911,187,124,368,
0,355,889,185,123,391,
0,352,868,198,122,415,
0,349,854,195,121,412,
0,345,840,194,120,408,
0,343,827,192,120,403,
0,339,814,191,119,399,
0,335,894,189,129,395,
0,334,907,188,127,390,
0,331,911,185,127,386,
0,344,904,184,126,383,
0,341,880,183,125,432,
0,337,862,196,124,426,
0,334,847,195,123,422,
0,332,833,193,121,417,
0,327,820,192,120,412,
0,326,807,190,120,408,
0,323,898,188,135,403,
0,319,908,187,134,399,
0,318,911,184,132,396,
0,319,902,184,131,391,
0,316,878,182,131,387,
0,313,860,180,129,384,
0,312,845,179,127,380,
0,309,831,178,127,377,
0,307,818,176,126,374,
0,304,806,175,137,371,
0,302,902,173,135,366,
0,300,909,172,135,363,
0,297,912,171,134,359,
0,359,899,169,132,356,
0,356,878,190,131,411,
0,352,858,188,130,406,
0,350,844,186,129,401,
0,346,830,184,127,398,
0,343,817,183,127,393,
0,339,851,182,132,390,
0,335,904,179,131,385,
0,333,911,178,130,381,
0,363,911,176,129,377,
0,384,893,175,127,374,
0,380,875,195,127,420,
0,376,856,193,126,415,
0,372,841,192,124,412,
0,369,828,190,124,408,
0,365,815,188,123,403,
0,362,883,188,127,399,
0,358,905,185,127,394,
0,355,911,184,126,391,
0,423,911,182,125,387,
0,417,888,180,124,410,
0,412,871,195,123,414,
0,408,854,193,121,409,
0,404,839,191,121,405,
0,400,826,190,120,401,
0,396,813,188,119,397,
0,392,895,187,132,393,
0,388,908,184,131,388,
0,384,912,183,129,385,
0,440,912,182,129,381,
0,434,892,184,127,418,
0,430,873,202,127,413,
0,425,856,199,125,408,
0,421,841,199,124,404,
0,417,828,197,124,400,
0,412,814,195,123,396,
0,408,899,193,127,391,
0,404,908,192,126,387,
0,399,911,190,124,384,
0,441,907,188,124,380,
0,436,882,190,123,421,
0,432,867,188,121,415,
0,427,849,187,120,412,
0,423,835,185,120,408,
0,419,822,184,118,403,
0,415,809,183,122,399,
0,409,903,181,121,396,
0,406,910,179,120,391,
0,401,912,178,120,387,
0,401,903,176,118,384,
0,398,879,176,118,433,
0,393,864,175,116,428,
0,391,846,173,115,423,
0,387,831,172,114,419,
0,384,819,171,113,415,
0,380,849,169,131,411,
0,376,904,167,129,407,
0,372,911,167,128,401,
0,374,914,166,127,398,
0,374,911,164,126,393,
0,370,887,188,125,430,
0,367,870,187,124,425,
0,364,852,185,123,420,
0,359,838,184,122,416,
0,357,824,182,121,412,
0,354,884,180,129,408,
0,351,906,179,127,403,
0,348,911,177,127,399,
0,346,910,176,126,395,
0,343,887,175,124,400,
0,340,871,190,124,428,
0,337,856,188,123,423,
0,335,838,186,121,419,
0,332,824,184,120,415,
0,329,812,183,120,412,
0,327,894,182,127,407,
0,323,908,180,127,403,
0,321,911,178,126,398,
0,325,910,177,124,394,
0,322,886,176,124,419,
0,319,870,175,123,414,
0,316,851,174,121,409,
0,314,838,172,120,405,
0,312,824,171,120,400,
0,310,811,169,119,397,
0,307,899,168,132,392,
0,304,909,167,131,389,
0,302,913,166,131,384,
0,348,911,164,129,381,
0,344,887,188,127,430,
0,340,870,185,127,423,
0,337,852,184,127,420,
0,334,838,182,125,415,
0,331,824,181,124,412,
0,327,812,179,130,408,
0,324,902,178,129,403,
0,321,910,176,128,399,
0,319,913,175,127,395,
0,381,909,173,126,391,
0,377,885,187,125,432,
0,373,868,185,124,427,
0,369,851,184,123,423,
0,366,836,182,122,419,
0,363,823,180,121,414,
0,359,854,179,127,410,
0,355,904,177,125,406,
0,352,911,176,124,401,
0,384,913,175,123,397,
0,410,899,173,122,393,
0,406,877,199,121,412,
0,401,862,196,120,407,
0,398,844,195,120,403,
0,393,830,193,119,399,
0,390,817,192,118,395,
0,387,891,190,129,391,
0,383,907,188,127,387,
0,379,911,186,127,384,
0,391,915,184,126,379,
0,387,910,184,124,408,
0,384,883,186,124,428,
0,380,868,184,123,423,
0,376,850,183,121,419,
0,372,836,182,120,415,
0,369,823,179,120,410,
0,366,896,179,134,406,
0,363,908,177,132,401,
0,359,912,176,131,398,
0,412,912,174,130,393,
0,408,892,173,129,441,
0,403,873,172,127,435,
0,399,859,170,127,431,
0,395,840,168,126,427,
0,391,828,167,124,422,
0,387,814,167,124,418,
0,384,899,165,132,414,
0,380,908,163,131,409,
0,376,912,163,130,406,
0,419,908,161,129,400,
0,415,883,183,127,432,
0,410,867,180,127,427,
0,406,853,179,126,423,
0,402,835,177,125,419,
0,398,822,176,124,414,
0,394,809,174,130,409,
0,391,902,172,129,406,
0,387,910,172,127,401,
0,382,913,169,127,398,
0,396,908,167,126,393,
0,391,884,198,125,415,
0,388,867,195,124,411,
0,384,853,193,123,406,
0,381,835,192,121,402,
0,377,823,190,120,398,
0,374,859,189,124,394,
0,371,904,187,123,390,
0,367,911,185,122,387,
0,387,913,184,121,384,
0,397,900,182,120,379,
0,393,878,183,119,376,
0,390,862,181,118,374,
0,385,847,179,117,370,
0,382,831,178,116,367,
0,378,817,176,115,363,
0,375,884,176,118,359,
0,371,906,174,117,357,
0,368,911,172,115,354,
0,384,910,171,115,351,
0,379,888,169,114,377,
0,376,871,184,113,395,
0,371,856,182,112,391,
0,368,842,180,112,387,
0,364,824,179,111,384,
0,361,812,177,110,380,
0,359,894,176,121,376,
0,355,908,175,120,372,
0,352,911,174,119,368,
0,403,907,172,118,365,
0,399,882,171,117,414,
0,395,867,182,116,408,
0,391,852,180,115,404,
0,387,839,179,115,399,
0,384,822,177,113,396,
0,380,807,176,112,391,
0,376,898,174,114,388,
0,372,908,173,113,384,
0,369,911,172,112,381,
0,414,905,170,112,376,
0,409,880,177,111,423,
0,405,865,176,110,417,
0,401,851,174,109,413,
0,397,837,172,108,408,
0,393,820,171,107,404,
0,390,807,169,118,400,
0,386,902,168,118,396,
0,382,909,167,116,392,
0,379,910,166,115,388,
0,414,890,164,115,384,
0,409,873,196,113,422,
0,406,858,194,112,417,
0,401,844,192,112,412,
0,398,830,191,111,408,
0,393,814,189,110,404,
0,390,847,188,120,399,
0,386,904,186,119,396,
0,383,911,184,118,391,
0,379,911,183,116,388,
0,402,897,182,115,384,
0,398,876,195,115,427,
0,393,861,193,113,422,
0,391,847,192,113,417,
0,386,833,190,112,414,
0,383,816,188,111,409,
0,379,883,187,123,405,
0,376,906,185,121,400,
0,372,911,184,120,397,
0,389,911,183,119,393,
0,419,888,189,118,412,
0,414,871,231,118,427,
0,409,857,228,116,422,
0,406,843,226,115,417,
0,401,829,224,115,414,
0,398,813,222,113,409,
0,394,895,220,124,405,
0,390,908,219,123,401,
0,387,911,217,121,397,
0,432,910,216,120,393,
0,425,886,213,120,426,
0,420,870,211,119,421,
0,416,856,209,118,416,
0,412,841,207,116,412,
0,408,828,207,115,408,
0,404,811,205,115,404,
0,400,899,204,124,399,
0,396,908,201,124,396,
0,392,912,199,123,391,
0,395,908,199,121,388,
0,391,883,199,120,428,
0,387,867,196,120,423,
0,384,854,195,119,419,
0,380,839,193,118,415,
0,376,825,192,116,411,
0,373,809,191,139,406,
0,369,902,189,139,402,
0,367,910,188,138,398,
0,363,912,187,137,395,
0,397,905,185,135,391,
0,392,880,184,135,415,
0,389,865,182,134,410,
0,385,851,180,132,406,
0,381,836,179,131,401,
0,377,824,177,130,398,
0,375,860,177,140,393,
0,371,904,176,138,390,
0,367,911,174,137,386,
0,364,913,173,135,383,
0,367,903,172,135,379,
0,364,879,170,134,375,
0,359,864,168,132,371,
0,357,849,167,131,368,
0,354,835,167,131,364,
0,351,822,165,129,361,
0,348,884,164,137,358,
0,345,906,163,135,355,
0,343,911,161,135,352,
0,359,911,160,134,349,
0,385,890,159,133,345,
0,382,872,179,131,401,
0,378,858,177,131,396,
0,374,844,176,129,392,
0,371,830,175,128,388,
0,368,817,173,127,385,
0,364,894,172,129,381,
0,359,908,171,129,377,
0,357,911,169,127,374,
0,403,907,167,127,370,
0,396,883,167,126,383,
0,392,867,196,125,414,
0,388,852,194,124,409,
0,385,839,192,123,406,
0,381,825,191,121,401,
0,377,808,189,121,397,
0,374,899,188,127,393,
0,371,909,186,127,390,
0,368,913,184,126,385,
0,393,911,183,125,382,
0,388,886,182,124,436,
0,384,870,195,123,429,
0,380,856,193,122,424,
0,377,841,192,121,420,
0,374,828,190,120,415,
0,369,812,188,119,412,
0,367,902,186,127,408,
0,363,910,184,126,403,
0,359,911,184,125,399,
0,384,902,182,124,396,
0,378,879,187,124,391,
0,375,863,184,122,387,
0,371,849,183,121,384,
0,368,835,182,120,380,
0,364,822,179,120,376,
0,359,849,179,121,373,
0,357,904,177,124,369,
0,354,911,176,123,366,
0,351,912,174,122,363,
0,399,898,173,121,359,
0,395,876,191,120,425,
0,391,862,188,120,419,
0,386,847,187,118,415,
0,383,833,184,118,411,
0,379,820,184,116,406,
0,376,881,182,131,401,
0,371,905,180,129,398,
0,368,911,179,128,394,
0,382,907,177,127,390,
0,409,882,176,126,387,
0,403,867,192,125,400,
0,399,852,190,124,396,
0,396,839,188,124,391,
0,391,825,186,123,387,
0,388,812,184,121,384,
0,384,894,184,125,380,
0,380,908,182,124,376,
0,377,911,180,123,373,
0,424,910,179,122,369,
0,419,884,177,121,377,
0,414,868,177,120,413,
0,409,855,176,119,408,
0,405,839,174,118,403,
0,401,827,172,118,399,
0,398,814,172,116,395,
0,393,898,170,129,391,
0,390,908,168,128,387,
0,386,912,167,127,384,
0,408,908,166,126,380,
0,403,883,164,125,428,
0,399,867,174,124,423,
0,395,852,173,123,416,
0,391,838,171,122,412,
0,387,824,169,121,408,
0,384,812,168,120,404,
0,380,902,167,123,399,
0,376,910,166,121,396,
0,373,913,164,120,391,
0,396,908,163,120,388,
0,391,883,179,119,443,
0,387,867,177,118,438,
0,384,852,176,116,432,
0,380,839,174,115,427,
0,376,824,172,115,423,
0,372,812,172,121,419,
0,369,904,169,126,414,
0,366,911,168,125,409,
0,363,912,167,124,406,
0,386,896,166,123,401,
0,382,876,195,121,451,
0,377,860,192,120,447,
0,374,846,191,120,440,
0,369,831,189,119,435,
0,366,819,188,118,432,
0,363,839,186,128,427,
0,359,906,184,127,423,
0,356,911,183,126,418,
0,369,912,182,125,414,
0,383,897,179,124,410,
0,379,876,179,123,448,
0,374,861,178,121,443,
0,370,847,176,120,436,
0,367,832,175,120,432,
0,364,819,174,119,428,
0,359,876,172,127,423,
0,356,908,171,126,419,
0,353,911,170,125,415,
0,414,911,168,124,411,
0,408,888,167,123,412,
0,403,871,166,121,432,
0,399,856,164,121,425,
0,395,842,163,120,422,
0,391,828,162,119,417,
0,387,815,161,118,413,
0,384,893,159,131,408,
0,380,909,159,130,404,
0,376,912,158,129,401,
0,414,909,156,127,396,
0,409,884,155,127,408,
0,406,869,172,126,404,
0,400,855,171,125,399,
0,396,840,169,124,395,
0,392,827,167,123,391,
0,388,814,167,122,387,
0,385,898,165,130,384,
0,382,910,163,128,380,
0,378,913,162,127,377,
0,401,906,161,126,374,
0,397,882,179,125,425,
0,393,865,177,124,419,
0,388,851,176,123,415,
0,385,838,174,122,410,
0,381,824,172,121,406,
0,377,811,172,137,401,
0,374,901,169,143,398,
0,371,911,167,141,394,
0,367,910,167,140,390,
0,393,888,166,139,387,
0,390,871,188,137,422,
0,385,856,186,137,417,
0,380,843,184,135,412,
0,377,829,183,135,408,
0,374,816,181,134,403,
0,371,829,179,137,399,
0,367,903,178,135,395,
0,364,911,177,135,391,
0,369,910,176,134,387,
0,382,888,174,133,384,
0,377,871,217,131,424,
0,374,856,215,131,419,
0,369,841,212,129,414,
0,366,828,210,129,410,
0,362,815,208,127,406,
0,359,877,207,137,401,
0,355,905,205,135,398,
0,352,911,204,135,393,
0,396,910,201,134,390,
0,391,886,199,132,387,
0,387,870,200,131,406,
0,384,856,199,130,401,
0,379,841,197,129,396,
0,376,827,195,127,391,
0,371,814,194,127,388,
0,368,892,192,131,384,
0,364,908,191,131,380,
0,361,912,190,129,377,
0,391,909,188,128,374,
0,387,884,187,127,427,
0,384,868,219,126,420,
0,379,854,216,126,416,
0,375,839,215,124,411,
0,371,826,212,124,407,
0,368,813,211,123,403,
0,364,897,209,129,399,
0,361,908,207,128,395,
0,358,911,206,127,391,
0,408,897,204,126,387,
0,404,876,204,125,388,
0,399,861,203,124,384,
0,395,847,201,123,381,
0,391,833,199,122,376,
0,387,819,198,121,373,
0,384,807,196,124,369,
0,380,902,195,127,366,
0,376,910,193,126,363,
0,373,913,192,125,359,
0,374,899,190,124,356,
0,370,877,189,124,399,
0,367,862,188,123,394,
0,362,847,187,121,391,
0,359,833,184,120,385,
0,356,820,184,120,382,
0,353,836,182,126,377,
0,350,903,180,124,374,
0,347,911,179,123,371,
0,367,912,177,121,367,
0,400,895,176,121,364,
0,396,875,192,120,414,
0,391,860,190,119,409,
0,387,846,188,118,406,
0,384,831,186,117,399,
0,380,819,184,116,396,
0,376,870,184,119,391,
0,372,905,182,118,388,
0,369,910,180,116,384,
0,407,897,179,115,381,
0,402,876,177,115,396,
0,398,862,213,113,432,
0,393,847,211,113,427,
0,389,833,209,112,423,
0,385,819,207,111,417,
0,382,807,205,111,413,
0,378,892,204,123,408,
0,375,907,201,121,404,
0,371,911,199,120,400,
0,396,904,199,119,396,
0,391,880,196,118,428,
0,388,864,208,117,423,
0,384,850,207,116,419,
0,380,836,204,115,415,
0,376,823,203,114,409,
0,372,809,200,113,405,
0,369,897,199,121,401,
0,366,908,198,120,397,
0,362,912,196,119,393,
0,424,903,195,118,390,
0,420,880,219,116,440,
0,415,864,216,116,435,
0,412,849,214,115,430,
0,406,835,211,114,425,
0,402,822,209,113,420,
0,399,809,207,120,415,
0,395,901,206,120,412,
0,391,910,204,120,408,
0,387,913,203,119,403,
0,402,908,201,117,399,
0,398,883,199,116,438,
0,394,867,198,115,432,
0,391,852,196,114,428,
0,385,839,195,113,423,
0,382,825,193,112,418,
0,379,836,192,119,414,
0,375,903,190,118,409,
0,371,910,188,116,406,
0,380,911,187,115,401,
0,401,889,185,114,398,
0,398,872,194,113,415,
0,393,857,192,112,411,
0,390,844,191,112,407,
0,385,830,188,111,403,
0,381,816,187,110,398,
0,377,876,185,126,393,
0,375,905,184,124,390,
0,371,911,183,124,387,
0,391,908,182,122,383,
0,387,884,180,121,385,
0,384,868,196,120,423,
0,379,854,195,120,419,
0,376,839,193,118,415,
0,371,825,191,117,411,
0,368,813,190,116,406,
0,364,892,188,124,401,
0,361,907,187,123,398,
0,358,911,185,122,393,
0,391,908,184,120,390,
0,386,883,182,120,402,
0,382,867,207,119,398,
0,378,854,206,118,393,
0,375,839,204,116,390,
0,370,825,202,116,386,
0,367,812,200,115,382,
0,364,897,199,126,377,
0,359,908,198,124,374,
0,356,911,195,124,371,
0,430,899,195,122,368,
0,425,878,244,121,419,
0,420,862,255,120,415,
0,415,847,253,119,411,
0,412,833,251,118,407,
0,407,820,248,117,402,
0,403,807,246,121,397,
0,399,901,243,121,393,
0,395,910,241,120,389,
0,391,911,240,120,385,
0,460,892,238,119,382,
0,455,873,236,117,437,
0,451,859,233,116,432,
0,446,844,231,115,428,
0,441,831,230,115,423,
0,435,817,228,113,418,
0,432,838,226,120,413,
0,427,903,224,119,409,
0,423,911,223,118,405,
0,431,914,221,117,401,
0,464,903,220,115,397,
0,460,879,217,115,439,
0,455,864,216,114,433,
0,449,849,215,113,429,
0,445,835,213,112,424,
0,440,822,211,111,420,
0,435,884,209,119,415,
0,431,906,207,118,411,
0,427,911,206,116,407,
0,451,914,204,115,403,
0,446,902,204,115,420,
0,440,878,215,114,451,
0,436,863,213,113,446,
0,432,847,211,112,441,
0,428,834,209,111,436,
0,423,822,207,110,431,
0,419,893,206,124,426,
0,414,907,204,124,422,
0,411,912,202,123,418,
0,432,911,200,121,414,
0,427,884,199,120,462,
0,422,869,222,120,455,
0,418,855,220,119,451,
0,414,840,218,118,446,
0,409,827,216,116,441,
0,404,814,214,115,435,
0,401,898,212,130,432,
0,398,908,210,129,427,
0,393,912,208,127,423,
0,391,911,207,127,419,
0,387,885,206,126,463,
0,384,868,204,124,457,
0,380,855,203,124,452,
0,377,839,201,123,448,
0,374,827,199,121,443,
0,370,814,198,122,438,
0,367,902,196,124,433,
0,364,910,195,123,428,
0,360,911,193,122,423,
0,360,902,192,121,420,
0,358,875,211,120,467,
0,355,859,208,119,462,
0,352,845,207,118,457,
0,348,831,205,117,452,
0,345,818,203,116,448,
0,343,831,201,123,441,
0,339,903,199,121,438,
0,337,910,198,120,433,
0,347,911,196,120,428,
0,359,894,195,119,423,
0,356,871,195,118,483,
0,353,856,193,116,477,
0,350,842,192,115,472,
0,347,828,190,115,467,
0,344,815,188,113,462,
0,339,876,187,120,455,
0,336,905,185,120,451,
0,334,911,184,119,447,
0,391,907,183,118,442,
0,387,883,182,116,440,
0,384,864,212,115,466,
0,379,849,211,114,460,
0,376,835,209,113,455,
0,371,822,207,112,451,
0,368,809,205,112,447,
0,364,892,203,124,440,
0,360,907,201,123,436,
0,358,911,199,122,432,
0,395,911,199,121,428,
0,390,888,197,120,453,
0,386,868,218,119,448,
0,383,854,216,118,443,
0,379,839,215,117,438,
0,376,826,212,116,433,
0,371,813,211,115,429,
0,368,897,208,125,423,
0,364,908,207,124,419,
0,359,910,205,123,415,
0,415,894,204,122,412,
0,411,875,205,121,441,
0,407,856,203,120,436,
0,403,842,201,119,432,
0,399,828,199,118,428,
0,395,816,199,117,423,
0,391,803,196,120,419,
0,386,901,195,127,414,
0,383,910,193,126,409,
0,380,914,192,125,406,
0,431,914,190,124,402,
0,426,900,217,123,438,
0,422,872,216,121,433,
0,417,857,214,121,428,
0,414,844,211,120,423,
0,409,830,209,119,419,
0,404,836,207,129,415,
0,400,903,206,128,411,
0,396,910,204,127,406,
0,411,913,203,126,402,
0,443,902,200,125,399,
0,438,879,207,124,455,
0,433,860,206,123,450,
0,428,845,204,121,446,
0,423,831,203,121,440,
0,420,818,200,120,436,
0,415,871,199,123,432,
0,411,905,197,121,427,
0,408,910,195,120,422,
0,436,900,194,120,418,
0,432,878,192,119,416,
0,427,863,191,118,424,
0,422,845,190,116,420,
0,418,831,188,115,415,
0,414,818,187,115,412,
0,409,805,185,113,408,
0,405,891,184,114,404,
0,401,907,183,113,399,
0,397,911,180,112,396,
0,455,907,179,112,391,
0,449,882,179,111,455,
0,445,863,199,110,448,
0,440,847,197,109,444,
0,435,835,195,108,440,
0,432,821,193,108,434,
0,427,808,192,107,430,
0,422,897,191,114,425,
0,417,908,188,113,420,
0,414,909,187,112,415,
0,411,888,185,112,412,
0,407,871,204,111,423,
0,403,854,201,110,419,
0,399,839,199,108,414,
0,396,826,198,108,410,
0,391,813,196,107,407,
0,388,799,195,112,402,
0,384,900,193,115,399,
0,381,909,191,113,393,
0,377,910,190,113,390,
0,375,892,188,112,387,
0,371,874,187,111,441,
0,368,856,185,110,437,
0,364,841,184,108,432,
0,361,828,183,108,428,
0,359,815,182,107,423,
0,355,833,179,121,419,
0,352,903,178,120,415,
0,348,911,177,120,409,
0,352,913,176,119,406,
0,361,900,174,118,401,
0,358,878,192,116,398,
0,354,859,190,115,393,
0,351,844,188,115,390,
0,348,831,187,113,387,
0,344,817,185,113,384,
0,342,877,184,118,380,
0,338,905,182,116,376,
0,335,911,180,115,372,
0,393,911,179,115,368,
0,389,890,177,113,376,
0,385,872,178,112,412,
0,381,855,176,112,408,
0,377,840,176,111,403,
0,374,827,174,110,399,
0,370,814,172,109,395,
0,367,893,172,123,391,
0,363,907,170,121,387,
0,359,911,168,120,383,
0,403,913,167,120,379,
0,399,897,167,119,432,
0,395,876,201,118,427,
0,391,857,199,116,422,
0,387,843,198,115,417,
0,384,829,196,115,413,
0,380,816,195,114,409,
0,376,899,193,113,405,
0,371,909,192,112,400,
0,368,911,190,112,396,
0,401,903,188,111,391,
0,396,880,199,110,391,
0,391,864,198,109,387,
0,388,847,196,108,384,
0,384,833,195,107,380,
0,381,819,193,107,376,
0,377,807,192,115,373,
0,374,902,190,120,369,
0,369,910,188,119,366,
0,366,914,187,118,363,
0,441,915,185,117,359,
0,437,906,212,116,395,
0,432,880,210,115,391,
0,428,861,208,114,387,
0,423,847,206,113,384,
0,419,833,205,112,379,
0,415,849,203,115,376,
0,411,904,201,115,371,
0,406,911,199,114,368,
0,403,913,198,113,364,
0,399,903,196,112,359,
0,395,879,198,111,359,
0,391,864,196,110,355,
0,387,846,195,109,352,
0,384,831,193,108,349,
0,380,819,192,108,347,
0,377,876,190,115,344,
0,375,905,188,114,340,
0,370,911,187,113,338,
0,375,910,185,112,335,
0,371,887,184,111,351,
0,367,871,221,110,390,
0,364,856,219,109,385,
0,360,838,217,108,382,
0,358,824,216,108,378,
0,355,812,214,107,375,
0,352,892,211,120,371,
0,348,907,209,119,367,
0,345,911,207,118,364,
0,355,911,206,116,359,
0,352,889,204,115,418,
0,348,872,203,115,412,
0,345,857,201,113,408,
0,342,839,199,112,403,
0,339,826,198,112,399,
0,337,813,196,111,395,
0,334,897,195,127,391,
0,332,908,193,127,387,
0,327,910,192,126,383,
0,352,896,190,124,379,
0,349,876,222,124,448,
0,345,860,227,123,443,
0,342,846,225,121,438,
0,339,829,224,120,433,
0,335,816,222,120,428,
0,332,803,220,129,423,
0,329,900,218,132,419,
0,327,910,216,131,415,
0,323,913,214,131,411,
0,370,911,212,129,407,
0,366,888,212,127,460,
0,363,871,211,127,454,
0,359,856,209,126,449,
0,355,839,207,124,444,
0,352,824,206,124,440,
0,349,812,204,126,435,
0,345,903,203,124,431,
0,343,909,200,124,427,
0,339,904,199,122,422,
0,335,882,198,121,417,
0,333,866,207,120,413,
0,329,851,205,120,408,
0,327,838,204,119,405,
0,324,820,201,118,401,
0,321,807,199,116,398,
0,319,867,199,124,393,
0,316,905,197,124,390,
0,314,911,195,123,387,
0,312,911,193,121,382,
0,309,893,192,120,387,
0,307,875,227,120,427,
0,304,859,224,119,422,
0,302,846,222,118,417,
0,300,828,220,116,414,
0,297,815,219,115,409,
0,295,887,216,120,406,
0,294,907,215,119,401,
0,291,909,213,118,397,
0,289,895,211,117,391,
0,287,875,209,116,432,
0,285,860,207,115,427,
0,283,846,206,114,422,
0,280,831,204,113,417,
0,279,816,203,112,413,
0,277,803,201,112,409,
0,275,895,199,123,404,
0,273,906,199,121,400,
0,271,897,196,120,397,
0,285,876,195,120,391,
0,282,862,193,119,440,
0,280,847,192,118,435,
0,278,833,191,116,431,
0,275,819,189,115,426,
0,272,804,188,115,422,
0,271,792,186,118,418,
0,268,900,184,120,414,
0,267,906,184,118,409,
0,263,890,182,118,406,
0,263,872,180,116,400,
0,261,858,186,115,432,
0,259,844,184,115,427,
0,257,830,183,113,423,
0,255,816,182,112,418,
0,254,799,180,112,414,
0,252,796,179,121,409,
0,251,902,177,120,405,
0,248,910,176,119,401,
0,251,913,175,118,397,
0,263,908,173,116,392,
0,262,883,195,115,441,
0,259,867,193,115,437,
0,256,852,192,114,432,
0,255,839,190,113,428,
0,252,822,188,112,423,
0,250,867,187,127,419,
0,248,905,185,126,415,
0,246,909,184,124,411,
0,283,899,182,124,407,
0,280,877,180,123,405,
0,278,862,199,121,419,
0,275,847,198,120,415,
0,271,833,196,120,411,
0,270,820,195,119,406,
0,268,804,193,117,402,
0,265,892,191,129,398,
0,263,907,190,127,394,
0,260,911,188,127,391,
0,277,913,187,126,387,
0,274,896,184,125,430,
0,271,875,190,124,424,
0,269,860,188,123,420,
0,267,846,187,122,415,
0,264,829,185,121,412,
0,263,816,184,120,408,
0,260,895,183,121,403,
0,258,907,180,120,399,
0,255,903,179,119,396,
0,304,880,178,118,391,
0,300,865,212,117,432,
0,297,851,216,116,427,
0,295,836,214,115,423,
0,292,823,211,114,418,
0,290,807,210,113,414,
0,287,795,208,123,409,
0,285,899,206,126,406,
0,282,908,205,125,401,
0,280,903,204,124,398,
0,277,880,201,123,393,
0,275,865,249,121,442,
0,272,850,246,121,437,
0,270,836,243,120,432,
0,268,823,241,119,428,
0,265,807,239,118,423,
0,263,828,237,134,419,
0,262,903,235,132,415,
0,259,911,233,131,411,
0,257,914,231,130,407,
0,255,911,230,129,403,
0,252,888,227,127,431,
0,250,871,225,127,427,
0,248,856,224,126,422,
0,247,842,222,125,417,
0,244,824,220,124,414,
0,243,888,219,130,409,
0,241,906,216,129,405,
0,240,911,216,128,401,
0,238,911,214,127,398,
0,236,890,211,126,393,
0,235,872,217,125,428,
0,232,858,216,124,423,
0,231,844,214,123,419,
0,230,830,211,122,415,
0,228,814,210,121,411,
0,227,889,208,134,407,
0,225,893,207,132,403,
0,224,875,206,131,399,
0,222,860,204,130,395,
0,220,846,201,129,391,
0,219,831,205,127,414,
0,217,818,204,127,409,
0,216,805,201,126,406,
0,215,792,199,125,401,
0,214,778,199,124,397,
0,212,888,197,137,393,
0,211,888,195,136,390,
0,209,871,194,135,385,
0,207,856,192,134,382,
0,207,841,215,134,423,
0,205,828,212,132,419,
0,204,815,210,131,415,
0,203,801,208,130,411,
0,201,789,207,129,406,
0,199,775,205,127,402,
0,199,901,203,132,398,
0,198,910,201,131,394,
0,196,911,199,130,391,
0,195,901,198,129,387,
0,193,878,197,127,429,
0,192,863,195,127,423,
0,192,849,194,126,419,
0,190,835,192,125,414,
0,189,822,191,124,409,
0,188,888,190,143,406,
0,187,905,188,142,401,
0,185,911,187,140,398,
0,184,915,185,139,393,
0,183,916,184,138,390,
0,182,909,227,136,432,
0,180,881,224,135,425,
0,179,865,223,135,420,
0,178,851,220,134,416,
0,177,838,219,132,412,
0,176,886,217,143,408,
0,175,906,215,143,403,
0,174,911,213,142,399,
0,173,911,211,140,396,
0,172,891,209,140,391,
0,171,873,207,138,433,
0,169,859,206,137,427,
0,167,844,204,135,423,
0,167,831,203,135,418,
0,167,817,201,134,414,
0,166,896,199,143,409,
0,164,908,198,142,406,
0,163,912,196,141,401,
0,163,915,195,140,398,
0,161,915,193,138,393,
0,160,898,199,137,399,
0,159,876,199,135,396,
0,159,861,197,135,391,
0,158,847,195,134,388,
0,157,832,193,133,385,
0,156,897,192,132,381,
0,155,908,191,131,377,
0,154,912,189,130,374,
0,153,911,188,129,371,
0,152,887,187,128,403,
0,151,871,217,127,401,
0,150,856,216,126,398,
0,149,841,214,126,393,
0,148,828,212,124,390,
0,147,815,211,124,386,
0,147,901,208,135,382,
0,146,908,207,135,379,
0,145,904,205,134,375,
0,143,881,204,132,371,
0,143,866,202,131,415,
0,142,851,199,131,408,
0,142,837,199,129,404,
0,141,824,196,127,399,
0,140,811,195,127,396,
0,139,799,193,131,391,
0,138,877,192,135,388,
0,137,862,191,135,384,
0,136,847,189,134,380,
0,135,832,188,132,377,
0,135,819,267,131,423,
0,134,806,263,130,419,
0,133,793,260,129,414,
0,132,782,258,127,409,
0,131,770,255,127,406,
0,131,760,254,147,401,
0,130,798,252,145,398,
0,129,785,249,143,393,
0,129,773,248,143,390,
0,127,761,246,142,386,
0,127,750,246,141,436,
0,126,739,243,139,431,
0,126,729,240,138,425,
0,125,719,239,137,422,
0,124,710,237,135,417,
0,124,732,235,135,413,
0,123,902,233,134,408,
0,122,910,231,133,404,
0,121,914,230,132,401,
0,120,914,228,131,399,
0,120,899,226,130,432,
0,119,876,224,129,427,
0,119,862,222,127,423,
0,118,847,221,127,418,
0,117,833,219,126,414,
0,116,881,217,135,409,
0,115,908,216,133,406,
0,115,908,214,131,401,
0,114,886,212,131,398,
0,113,870,211,130,431,
0,113,855,266,128,424,
0,112,841,263,127,419,
0,112,827,260,127,415,
0,111,814,258,126,411,
0,110,801,255,125,407,
0,110,897,254,140,402,
0,109,910,252,139,398,
0,108,914,249,137,395,
0,108,915,248,135,391,
0,108,912,246,135,427,
0,107,886,243,135,422,
0,105,870,241,133,416,
0,105,856,239,132,412,
0,105,842,238,131,408,
0,103,828,236,130,403,
0,103,902,233,137,399,
0,103,911,231,135,396,
0,102,915,230,134,391,
0,103,912,228,134,388,
0,103,888,227,132,423,
0,102,871,225,131,418,
0,101,856,223,130,412,
0,100,843,221,129,408,
0,99,830,220,127,404,
0,99,816,217,137,401,
0,99,902,216,135,397,
0,98,896,216,135,393,
0,97,876,214,134,390,
0,97,861,211,133,385,
0,96,847,252,131,423,
0,96,833,248,131,417,
0,95,819,246,129,414,
0,95,810,243,128,409,
0,94,798,241,127,405,
0,94,785,240,127,400,
0,93,895,238,133,397,
0,93,908,236,131,393,
0,92,913,233,131,390,
0,92,915,231,129,385,
0,92,908,231,129,403,
0,91,881,229,127,399,
0,90,866,227,127,395,
0,90,851,225,126,391,
0,89,865,224,125,387,
0,89,904,222,124,384,
0,88,911,220,135,380,
0,88,915,218,135,376,
0,88,916,216,134,372,
0,91,919,217,132,369,
0,90,920,216,131,420,
0,89,919,214,130,415,
0,88,902,212,129,410,
0,88,876,211,127,406,
0,88,862,209,127,403,
0,87,847,207,126,399,
0,86,833,207,128,395,
0,86,820,205,127,391,
0,86,807,204,126,387,
0,85,796,202,125,384,
0,84,783,227,124,380,
0,84,772,225,124,409,
0,83,764,224,123,405,
0,83,753,222,121,401,
0,83,743,220,120,397,
0,82,732,217,120,393,
0,81,723,216,124,389,
0,81,795,214,123,385,
0,80,782,212,121,383,
0,80,769,211,120,379,
0,79,758,209,120,376,
0,79,748,310,119,420,
0,79,736,304,118,415,
0,79,726,301,118,412,
0,78,716,298,116,407,
0,78,706,295,115,403,
0,77,726,293,115,399,
0,77,899,290,120,395,
0,76,907,287,120,391,
0,76,897,286,119,387,
0,76,876,283,118,384,
0,75,862,281,116,435,
0,75,847,279,115,431,
0,74,833,276,115,427,
0,73,820,275,114,422,
0,73,807,272,113,417,
0,73,795,270,112,414,
0,72,892,268,127,408,
0,71,907,267,127,404,
0,90,911,263,126,400,
0,96,906,262,125,396,
0,95,882,260,124,444,
0,94,867,325,123,438,
0,93,852,321,122,433,
0,92,838,318,121,428,
0,92,824,316,120,423,
0,92,812,312,120,420,
0,110,899,310,131,415,
0,108,909,307,129,412,
0,107,913,304,127,408,
0,155,913,302,127,403,
0,152,887,300,126,444,
0,152,871,297,125,438,
0,150,856,295,124,432,
0,148,842,292,123,428,
0,147,828,290,122,423,
0,146,886,287,121,419,
0,144,902,285,133,414,
0,143,910,283,131,410,
0,143,913,280,131,406,
0,141,916,278,129,402,
0,140,919,376,128,417,
0,163,911,396,127,413,
0,162,883,391,126,408,
0,160,889,387,125,404,
0,159,907,384,124,400,
0,157,911,379,126,396,
0,156,913,376,131,391,
0,155,916,372,129,388,
0,158,919,368,128,384,
0,157,920,366,127,381,
0,156,921,363,126,435,
0,154,913,359,125,430,
0,152,882,356,124,425,
0,152,903,353,123,422,
0,151,910,351,122,417,
0,150,913,347,126,412,
0,148,916,344,124,408,
0,147,918,340,124,403,
0,145,920,338,123,399,
0,144,921,335,121,396,
0,143,920,338,120,422,
0,142,900,335,120,417,
0,142,876,332,119,413,
0,140,861,329,118,408,
0,139,847,327,116,404,
0,137,833,323,132,399,
0,136,820,321,131,396,
0,135,807,319,130,391,
0,135,796,316,129,388,
0,134,783,313,127,386,
0,132,769,312,127,423,
0,131,759,309,126,419,
0,131,748,307,124,415,
0,130,737,304,124,411,
0,129,728,302,123,407,
0,127,846,300,132,401,
0,127,831,297,131,398,
0,126,817,295,130,393,
0,125,804,292,129,390,
0,124,792,291,127,435,
0,124,776,288,127,430,
0,123,764,287,126,424,
0,121,753,284,125,420,
0,120,743,282,124,415,
0,120,732,280,123,412,
0,119,729,278,126,407,
0,118,894,275,124,402,
0,117,899,274,124,399,
0,155,880,271,123,395,
0,153,864,270,121,443,
0,152,846,286,120,438,
0,151,839,284,120,433,
0,150,879,281,118,429,
0,148,864,279,118,423,
0,147,848,276,119,420,
0,145,834,273,129,415,
0,144,821,271,128,411,
0,143,807,269,127,407,
0,142,796,267,126,403,
0,141,783,313,126,453,
0,140,769,311,124,448,
0,139,759,307,123,443,
0,137,747,304,122,438,
0,136,737,302,121,433,
0,135,727,300,133,429,
0,134,717,295,131,423,
0,197,851,294,131,419,
0,198,896,291,129,415,
0,196,878,289,128,411,
0,194,863,287,127,438,
0,192,844,284,126,433,
0,191,830,281,125,428,
0,189,817,280,124,423,
0,188,804,277,123,419,
0,185,890,275,138,415,
0,184,906,272,135,411,
0,183,911,271,135,407,
0,181,915,268,135,403,
0,179,918,266,133,402,
0,178,911,263,132,451,
0,177,883,263,131,446,
0,176,867,260,129,441,
0,174,853,259,129,436,
0,173,864,257,127,432,
0,171,904,255,131,428,
0,169,911,253,130,423,
0,169,915,251,129,419,
0,216,918,304,127,414,
0,214,919,310,127,440,
0,211,908,307,126,438,
0,210,880,304,125,433,
0,207,865,301,124,428,
0,206,851,299,123,423,
0,204,837,295,122,419,
0,203,894,294,127,415,
0,200,906,291,127,410,
0,199,898,287,126,407,
0,198,877,286,124,403,
0,195,863,304,124,431,
0,194,844,347,123,425,
0,193,831,344,121,422,
0,191,817,340,120,417,
0,190,852,337,120,412,
0,188,838,334,121,408,
0,187,902,331,127,404,
0,185,910,327,127,399,
0,184,914,324,126,396,
0,196,916,322,125,391,
0,195,915,319,124,441,
0,192,884,316,123,437,
0,191,869,313,121,432,
0,190,855,312,121,428,
0,188,900,309,120,423,
0,187,908,307,139,419,
0,184,907,304,137,415,
0,184,883,301,135,409,
0,182,868,299,135,406,
0,180,854,295,134,401,
0,179,839,358,132,439,
0,177,823,353,131,433,
0,176,809,350,130,429,
0,175,798,346,129,423,
0,174,844,344,127,419,
0,172,889,340,132,415,
0,171,907,336,131,412,
0,169,911,334,130,407,
0,167,915,331,129,403,
0,167,917,327,127,399,
0,166,913,325,127,415,
0,165,880,323,126,411,
0,163,865,319,125,407,
0,162,851,317,124,403,
0,161,869,315,123,398,
0,160,890,312,137,395,
0,159,907,308,135,391,
0,158,911,306,135,387,
0,156,915,304,134,384,
0,156,918,302,132,430,
0,154,916,299,131,427,
0,153,887,297,130,423,
0,152,902,295,129,417,
0,151,884,292,127,414,
0,150,869,289,127,409,
0,149,898,287,135,405,
0,147,908,285,135,401,
0,147,910,283,134,396,
0,152,892,280,132,391,
0,151,873,279,131,393,
0,150,859,276,130,388,
0,148,841,275,129,385,
0,147,828,272,127,382,
0,145,815,271,127,378,
0,145,894,268,126,375,
0,143,907,266,129,371,
0,143,911,263,128,368,
0,188,916,262,127,364,
0,281,918,263,126,360,
0,278,919,263,126,419,
0,275,911,260,124,414,
0,272,879,259,123,409,
0,270,864,255,122,405,
0,268,849,255,121,400,
0,265,880,253,134,397,
0,263,905,251,132,392,
0,259,911,248,131,389,
0,258,915,248,130,384,
0,255,918,246,129,380,
0,254,920,243,127,443,
0,252,920,242,127,438,
0,249,912,240,126,433,
0,248,889,239,124,428,
0,246,896,237,124,423,
0,243,908,236,131,420,
0,241,912,234,129,415,
0,239,915,231,127,412,
0,237,918,240,127,407,
0,236,920,238,126,406,
0,233,920,236,125,448,
0,231,916,233,124,443,
0,230,895,231,123,438,
0,228,908,231,122,433,
0,227,913,229,121,428,
0,225,916,227,131,423,
0,224,918,225,129,419,
0,221,915,224,127,415,
0,220,888,223,127,411,
0,217,891,276,126,412,
0,216,876,327,125,408,
0,215,862,325,124,404,
0,213,844,321,123,399,
0,211,831,319,122,396,
0,210,817,316,121,392,
0,208,805,313,123,388,
0,207,880,311,121,385,
0,342,902,307,120,381,
0,371,884,305,120,377,
0,367,868,302,119,435,
0,363,854,300,118,429,
0,359,839,297,116,423,
0,356,823,295,115,420,
0,352,809,292,115,415,
0,350,797,290,114,412,
0,346,898,287,120,408,
0,344,909,286,118,403,
0,339,913,283,117,398,
0,335,914,280,116,395,
0,334,900,278,115,439,
0,331,876,275,114,433,
0,327,862,273,113,428,
0,324,844,271,112,424,
0,322,830,270,112,419,
0,319,817,268,126,415,
0,316,804,265,124,412,
0,314,792,263,124,408,
0,311,781,262,123,402,
0,308,769,259,121,398,
0,306,759,257,120,395,
0,304,748,255,120,391,
0,301,738,254,119,387,
0,299,726,252,118,384,
0,295,716,249,116,380,
0,294,723,248,127,377,
0,292,898,247,127,374,
0,289,908,244,126,370,
0,287,913,243,124,366,
0,284,911,240,124,371,
0,282,888,239,123,423,
0,280,871,237,121,418,
0,278,856,236,120,414,
0,275,839,233,120,409,
0,273,825,231,119,405,
0,271,894,231,131,401,
0,270,907,229,130,397,
0,268,903,227,129,393,
0,265,881,225,127,388,
0,263,865,224,127,429,
0,262,851,222,126,432,
0,259,838,221,125,428,
0,257,824,249,124,423,
0,255,807,248,123,419,
0,254,796,245,121,414,
0,252,783,243,127,409,
0,250,772,240,126,406,
0,248,761,239,125,402,
0,246,750,236,124,397,
0,244,739,235,124,406,
0,243,729,231,122,401,
0,241,719,231,121,397,
0,239,710,228,120,393,
0,238,699,227,119,390,
0,236,690,225,124,386,
0,234,892,224,134,382,
0,231,887,222,132,379,
0,231,871,220,131,376,
0,228,856,227,130,371,
0,227,841,226,129,421,
0,225,828,224,127,415,
0,224,814,222,127,412,
0,222,801,220,126,408,
0,221,786,219,124,403,
0,220,816,217,132,399,
0,217,903,216,131,396,
0,216,910,214,130,391,
0,296,913,212,128,387,
0,293,911,211,127,384,
0,290,886,209,127,439,
0,287,870,208,126,433,
0,284,856,207,125,428,
0,282,841,206,124,423,
0,280,824,204,122,420,
0,278,812,203,129,415,
0,275,799,201,127,412,
0,272,787,199,127,408,
0,270,775,199,126,403,
0,268,764,198,125,403,
0,265,753,227,124,451,
0,263,743,225,123,446,
0,261,732,224,122,441,
0,259,720,222,121,436,
0,257,889,220,120,432,
0,255,903,219,135,428,
0,253,911,216,134,423,
0,251,915,215,133,419,
0,327,916,213,131,415,
0,324,911,211,131,459,
0,321,883,209,129,455,
0,318,868,207,129,450,
0,315,854,206,127,446,
0,312,836,204,127,441,
0,309,824,203,126,436,
0,307,886,201,135,432,
0,342,907,199,135,428,
0,457,911,198,134,423,
0,450,915,196,133,419,
0,445,916,195,132,472,
0,440,906,193,131,466,
0,435,880,192,130,460,
0,432,864,192,129,455,
0,428,847,190,127,451,
0,423,876,189,134,447,
0,419,905,188,143,441,
0,415,911,187,142,437,
0,411,915,185,141,433,
0,407,915,184,140,428,
0,403,903,210,138,479,
0,399,878,207,137,472,
0,396,863,206,135,467,
0,391,849,204,135,463,
0,388,899,203,134,457,
0,385,909,201,137,452,
0,382,913,199,135,448,
0,379,916,198,135,444,
0,376,918,196,134,440,
0,371,918,194,132,435,
0,368,905,193,131,455,
0,365,878,192,131,450,
0,361,863,190,130,445,
0,359,904,188,128,440,
0,355,911,187,127,435,
0,353,914,185,127,432,
0,350,916,184,126,428,
0,347,919,183,125,423,
0,463,920,182,124,419,
0,505,919,296,123,415,
0,499,895,293,121,449,
0,494,873,290,121,444,
0,488,859,287,120,440,
0,483,845,285,120,435,
0,478,828,282,118,431,
0,473,894,280,126,426,
0,468,898,278,124,422,
0,463,879,275,124,417,
0,459,863,273,122,414,
0,454,849,270,121,409,
0,449,835,338,120,454,
0,445,822,335,120,448,
0,440,808,332,119,444,
0,436,796,327,118,439,
0,432,782,326,116,435,
0,428,856,322,130,430,
0,424,840,319,129,425,
0,420,826,317,127,422,
0,417,812,315,127,417,
0,412,799,348,126,418,
0,408,787,359,124,422,
0,405,775,356,124,417,
0,401,764,353,123,413,
0,438,894,350,121,408,
0,448,903,347,131,406,
0,443,908,344,145,401,
0,438,913,340,143,397,
0,434,915,337,143,393,
0,430,914,335,142,390,
0,423,889,335,140,436,
0,420,872,332,139,430,
0,415,857,329,138,425,
0,412,844,327,137,422,
0,408,830,324,135,416,
0,404,814,321,135,412,
0,401,894,319,135,408,
0,397,907,316,134,404,
0,473,912,313,133,400,
0,467,915,311,131,396,
0,461,915,307,131,451,
0,455,896,305,130,446,
0,451,875,303,129,440,
0,447,860,301,127,436,
0,443,846,299,127,432,
0,438,891,295,136,427,
0,433,907,294,135,423,
0,430,911,291,135,419,
0,425,915,289,134,415,
0,422,917,287,132,411,
0,416,914,382,131,455,
0,412,886,377,130,449,
0,408,870,374,129,444,
0,405,856,370,127,440,
0,401,841,367,127,435,
0,398,905,363,135,431,
0,395,911,359,134,427,
0,391,915,357,132,423,
0,387,918,353,131,418,
0,384,919,351,131,414,
0,380,914,347,129,423,
0,377,886,344,127,419,
0,374,870,341,127,415,
0,371,856,338,126,411,
0,368,841,335,126,407,
0,365,898,332,135,403,
0,361,908,330,135,399,
0,359,913,327,134,395,
0,356,916,324,132,391,
0,353,917,322,131,435,
0,350,909,375,130,441,
0,348,881,371,129,437,
0,344,866,368,127,432,
0,342,851,364,127,428,
0,339,877,360,126,423,
0,336,907,358,135,419,
0,335,912,354,135,415,
0,332,915,352,134,411,
0,329,918,348,132,408,
0,327,920,345,131,435,
0,323,918,342,131,429,
0,321,896,338,129,424,
0,319,874,335,127,420,
0,316,860,332,127,415,
0,314,846,330,127,412,
0,312,903,327,129,408,
0,310,909,324,127,403,
0,307,901,322,127,399,
0,305,879,319,126,396,
0,303,864,317,124,423,
0,300,849,313,124,416,
0,297,835,312,123,412,
0,295,822,309,121,408,
0,294,809,307,121,403,
0,291,797,304,132,399,
0,289,782,302,131,396,
0,287,771,300,129,391,
0,286,760,297,128,388,
0,295,749,295,127,385,
0,292,739,292,127,432,
0,289,729,291,126,426,
0,287,719,287,124,422,
0,284,710,286,124,417,
0,281,700,284,123,413,
0,280,824,281,127,408,
0,278,905,280,127,404,
0,276,911,278,126,401,
0,411,913,275,124,397,
0,404,907,273,124,393,
0,399,881,271,123,432,
0,395,865,269,121,427,
0,391,851,268,120,422,
0,387,838,265,120,417,
0,384,889,263,119,414,
0,380,877,262,130,409,
0,376,857,259,129,405,
0,372,843,258,127,401,
0,369,830,255,127,397,
0,366,816,295,126,395,
0,361,803,291,125,391,
0,359,792,288,124,387,
0,355,780,286,123,384,
0,352,768,284,121,380,
0,350,758,281,120,376,
0,347,747,279,124,372,
0,344,793,276,123,369,
0,340,857,274,121,366,
0,339,843,271,120,363,
0,335,828,270,120,359,
0,332,815,268,119,357,
0,330,802,265,118,353,
0,327,790,263,116,350,
0,324,778,261,115,348,
0,322,767,259,118,344,
0,319,755,257,131,342,
0,317,742,255,129,339,
0,393,732,253,127,335,
0,509,721,252,127,333,
0,503,711,249,126,377,
0,495,702,248,124,373,
0,489,694,258,124,368,
0,484,684,255,123,364,
0,480,676,254,121,361,
0,475,740,252,134,358,
0,470,838,249,132,354,
0,464,820,248,131,352,
0,463,806,246,129,348,
0,472,793,243,128,344,
0,467,782,326,127,393,
0,460,769,321,126,389,
0,455,758,318,126,384,
0,451,747,315,124,380,
0,447,736,312,124,377,
0,443,768,309,130,374,
0,438,830,306,129,369,
0,434,816,304,127,366,
0,431,803,347,127,363,
0,427,791,344,126,360,
0,423,779,340,124,415,
0,417,767,337,124,411,
0,414,755,333,122,405,
0,410,743,329,121,401,
0,407,775,327,120,397,
0,403,901,324,129,392,
0,399,910,321,127,389,
0,396,911,319,127,385,
0,392,892,316,126,382,
0,389,873,313,124,393,
0,385,859,312,124,391,
0,382,845,308,123,387,
0,379,831,305,121,384,
0,376,817,303,120,379,
0,372,805,300,120,376,
0,369,899,297,123,371,
0,366,910,295,122,368,
0,364,914,293,120,365,
0,359,915,291,120,361,
0,358,904,289,119,421,
0,355,879,287,118,415,
0,351,864,284,117,412,
0,348,849,281,116,406,
0,345,835,280,115,402,
0,343,822,278,117,398,
0,340,897,275,123,394,
0,337,909,273,121,390,
0,335,914,271,120,387,
0,332,916,269,120,383,
0,329,918,287,119,430,
0,327,910,284,118,424,
0,324,882,280,117,419,
0,321,867,279,116,415,
0,319,852,276,115,410,
0,316,839,274,130,406,
0,315,897,271,129,402,
0,312,876,269,127,398,
0,310,861,267,126,394,
0,307,847,265,125,391,
0,305,833,328,124,440,
0,303,819,324,123,435,
0,300,807,321,122,430,
0,297,888,318,121,424,
0,295,907,315,120,420,
0,294,911,312,139,415,
0,291,914,310,136,412,
0,289,917,307,135,408,
0,287,920,304,134,403,
0,285,920,302,133,399,
0,283,915,334,131,417,
0,281,884,331,131,413,
0,279,869,327,130,408,
0,276,855,323,129,403,
0,275,840,321,127,399,
0,272,862,318,127,396,
0,271,846,315,127,391,
0,269,828,312,126,388,
0,268,816,310,125,384,
0,265,803,307,124,414,
0,263,791,305,123,419,
0,262,779,302,121,415,
0,259,768,300,121,410,
0,257,756,296,120,405,
0,255,880,295,120,401,
0,255,905,373,124,397,
0,252,911,369,123,393,
0,251,915,365,121,389,
0,249,918,361,120,385,
0,248,919,359,120,391,
0,246,911,355,119,387,
0,243,883,352,118,384,
0,242,867,348,117,380,
0,240,854,345,116,376,
0,239,839,342,118,372,
0,237,826,339,127,369,
0,236,856,336,127,366,
0,234,905,334,126,363,
0,232,897,331,124,359,
0,231,878,327,124,358,
0,230,862,326,123,355,
0,228,847,323,121,352,
0,226,834,319,120,348,
0,225,820,317,120,344,
0,223,807,315,124,342,
0,222,796,312,123,339,
0,220,783,310,121,335,
0,220,769,307,120,333,
0,219,759,305,120,331,
0,217,748,303,119,395,
0,216,737,300,118,391,
0,214,728,297,116,387,
0,212,718,295,115,382,
0,211,708,292,115,379,
0,210,700,291,127,375,
0,208,895,287,126,371,
0,207,904,286,124,368,
0,206,883,284,124,364,
0,204,867,281,122,361,
0,204,853,280,121,414,
0,202,839,278,120,409,
0,200,825,275,120,405,
0,199,902,273,119,399,
0,198,909,271,118,396,
0,196,904,269,126,391,
0,195,881,267,124,387,
0,194,865,265,123,384,
0,193,847,263,122,380,
0,192,834,310,121,415,
0,191,820,358,120,420,
0,189,807,354,119,415,
0,188,796,351,118,411,
0,187,783,347,118,406,
0,185,772,344,116,402,
0,184,774,340,127,398,
0,184,901,337,126,393,
0,183,910,335,125,390,
0,220,913,332,124,387,
0,217,908,353,123,393,
0,216,882,349,121,390,
0,214,867,345,120,385,
0,212,852,343,120,382,
0,209,839,339,119,377,
0,208,825,335,119,374,
0,207,901,333,124,370,
0,205,909,329,123,367,
0,203,913,327,123,364,
0,201,917,324,121,359,
0,199,920,321,120,411,
0,199,920,319,119,407,
0,196,917,349,118,402,
0,195,919,387,117,398,
0,193,920,383,116,393,
0,192,921,380,126,389,
0,190,921,376,124,385,
0,189,923,371,124,382,
0,188,924,368,122,377,
0,186,924,366,121,375,
0,185,915,471,120,386,
0,184,881,463,119,382,
0,182,865,459,118,378,
0,181,852,454,117,374,
0,179,889,448,116,369,
0,178,873,444,135,366,
0,177,857,440,135,363,
0,176,843,435,133,359,
0,224,830,432,132,356,
0,220,813,428,131,355,
0,218,801,423,129,417,
0,216,788,419,128,412,
0,215,777,415,127,408,
0,212,766,412,127,403,
0,211,755,408,126,399,
0,208,871,403,131,395,
0,207,905,400,129,391,
0,205,910,397,128,387,
0,204,902,393,127,384,
0,202,875,391,127,423,
0,199,860,387,125,424,
0,199,846,384,124,419,
0,197,831,380,123,415,
0,195,819,377,123,412,
0,193,806,374,121,407,
0,192,889,371,127,402,
0,191,907,368,127,398,
0,189,911,364,126,394,
0,188,913,361,124,391,
0,187,889,359,123,442,
0,185,884,356,122,436,
0,184,905,353,121,432,
0,183,911,351,120,428,
0,180,915,348,120,423,
0,179,915,344,121,417,
0,178,915,342,131,414,
0,217,919,339,131,409,
0,215,920,336,129,405,
0,212,921,334,128,401,
0,211,923,332,127,457,
0,209,919,328,126,451,
0,207,887,327,125,447,
0,206,871,323,124,442,
0,203,857,321,123,438,
0,201,878,319,129,432,
0,199,905,316,127,428,
0,199,911,314,127,423,
0,196,915,312,126,419,
0,249,914,310,124,415,
0,246,886,307,123,415,
0,243,870,305,122,411,
0,241,856,303,121,407,
0,240,841,301,120,403,
0,237,828,299,120,399,
0,235,815,295,122,395,
0,233,803,294,121,391,
0,231,791,291,120,387,
0,230,779,289,120,384,
0,227,765,287,119,381,
0,226,755,413,117,428,
0,224,743,408,116,423,
0,222,734,403,115,419,
0,220,723,399,114,414,
0,217,714,395,113,410,
0,216,895,391,129,405,
0,215,907,387,128,401,
0,213,911,384,127,397,
0,211,916,380,126,393,
0,209,918,376,125,432,
0,207,915,374,124,436,
0,206,888,370,123,432,
0,204,871,367,122,428,
0,203,856,364,121,423,
0,201,843,359,120,419,
0,199,902,356,127,414,
0,198,910,353,126,409,
0,248,915,352,126,406,
0,322,915,348,124,401,
0,319,902,345,123,455,
0,316,877,343,121,449,
0,312,862,339,121,444,
0,310,848,337,120,440,
0,307,835,334,120,435,
0,304,903,332,120,431,
0,301,911,403,130,424,
0,359,914,401,129,420,
0,355,917,397,127,416,
0,351,919,393,127,412,
0,348,915,390,126,452,
0,344,886,386,124,448,
0,341,870,382,123,443,
0,337,856,379,122,438,
0,335,841,376,121,433,
0,332,902,371,127,429,
0,327,910,368,125,423,
0,326,914,364,124,419,
0,346,917,361,124,415,
0,462,919,359,123,411,
0,455,911,355,121,457,
0,451,883,352,120,451,
0,446,867,350,120,447,
0,440,854,347,118,442,
0,436,839,344,118,438,
0,432,902,340,136,433,
0,427,910,337,135,428,
0,423,914,335,135,423,
0,419,916,332,134,419,
0,415,918,329,132,415,
0,411,905,327,131,446,
0,408,879,324,129,441,
0,403,864,321,128,436,
0,399,849,319,127,432,
0,396,835,317,127,428,
0,391,895,313,129,423,
0,388,908,312,127,418,
0,385,912,309,127,414,
0,382,915,307,126,409,
0,379,918,304,125,425,
0,376,907,302,124,423,
0,371,880,300,123,419,
0,368,865,297,121,415,
0,366,851,295,121,412,
0,363,836,294,120,408,
0,359,901,291,138,403,
0,355,910,288,137,398,
0,353,913,287,135,395,
0,350,915,284,135,391,
0,347,903,283,134,444,
0,344,875,280,132,439,
0,342,860,279,131,433,
0,339,846,277,130,430,
0,335,831,275,129,424,
0,334,819,273,129,421,
0,331,902,271,137,416,
0,327,910,268,135,411,
0,325,914,267,134,407,
0,323,916,265,134,403,
0,319,913,266,132,399,
0,318,883,263,131,396,
0,315,867,262,130,391,
0,312,853,260,129,388,
0,310,839,259,127,385,
0,308,835,257,139,382,
0,305,903,255,137,377,
0,303,910,253,135,374,
0,300,912,251,135,371,
0,299,904,249,134,367,
0,295,880,248,132,427,
0,294,860,246,131,423,
0,291,896,244,130,418,
0,289,880,243,129,414,
0,287,864,241,127,409,
0,285,872,240,131,405,
0,283,905,238,130,400,
0,280,910,236,129,396,
0,279,902,235,128,391,
0,276,879,269,127,389,
0,275,864,366,126,422,
0,273,846,361,125,417,
0,271,831,358,124,413,
0,269,895,355,123,408,
0,267,889,352,122,404,
0,265,897,348,134,400,
0,263,908,344,133,396,
0,260,913,342,131,391,
0,259,915,339,131,387,
0,257,910,335,129,431,
0,255,883,332,128,435,
0,254,864,329,127,430,
0,252,850,327,127,425,
0,250,836,324,125,421,
0,248,823,321,124,416,
0,247,810,319,131,412,
0,244,798,316,129,408,
0,243,786,313,129,403,
0,241,775,311,127,399,
0,240,764,308,127,433,
0,238,753,305,126,428,
0,236,740,304,124,423,
0,235,729,302,124,419,
0,233,719,300,122,415,
0,231,711,297,126,412,
0,230,896,295,135,408,
0,228,908,292,135,401,
0,227,913,290,134,398,
0,231,915,287,133,394,
0,229,918,286,132,415,
0,227,911,284,131,412,
0,225,880,281,129,408,
0,224,864,280,128,403,
0,222,851,277,127,399,
0,220,836,275,135,396,
0,219,824,273,135,391,
0,316,811,271,134,387,
0,325,798,268,133,384,
0,321,787,267,131,380,
0,319,775,302,131,425,
0,316,764,299,129,420,
0,312,751,295,128,415,
0,310,740,294,127,412,
0,307,729,291,126,408,
0,304,895,289,134,403,
0,302,908,286,133,399,
0,299,911,283,131,395,
0,295,910,280,131,391,
0,293,886,279,129,393,
0,291,870,308,127,448,
0,288,856,305,127,443,
0,286,838,303,126,438,
0,284,824,300,125,433,
0,281,875,297,124,428,
0,280,905,295,139,423,
0,276,911,292,137,420,
0,274,915,289,135,415,
0,273,918,287,135,411,
0,271,918,284,134,445,
0,269,910,281,133,447,
0,267,881,280,131,441,
0,264,862,278,130,437,
0,263,847,275,129,432,
0,260,834,273,128,428,
0,259,902,271,138,423,
0,255,909,268,137,419,
0,254,909,265,135,414,
0,252,888,263,135,409,
0,250,871,262,134,467,
0,248,856,260,132,462,
0,247,843,259,131,457,
0,244,825,255,130,452,
0,243,812,255,129,448,
0,240,800,253,129,443,
0,239,896,251,132,438,
0,237,902,249,131,433,
0,235,883,247,130,428,
0,233,867,245,129,423,
0,231,852,243,127,467,
0,230,839,241,127,463,
0,228,824,240,126,457,
0,227,897,238,125,452,
0,225,908,236,124,448,
0,224,911,235,131,444,
0,222,913,233,129,439,
0,220,916,231,127,434,
0,218,919,230,127,428,
0,216,920,228,126,423,
0,216,913,227,125,459,
0,237,883,226,124,454,
0,235,867,224,123,448,
0,232,850,223,121,444,
0,231,836,222,121,440,
0,228,900,220,123,435,
0,227,909,219,121,430,
0,224,913,217,121,425,
0,223,916,216,120,420,
0,221,916,215,119,416,
0,219,907,214,118,419,
0,217,880,211,117,415,
0,216,896,211,116,411,
0,214,908,209,115,407,
0,212,912,207,114,403,
0,211,915,207,127,399,
0,209,916,205,127,396,
0,207,919,204,126,391,
0,206,920,202,124,387,
0,205,921,201,124,411,
0,204,922,199,123,416,
0,203,914,199,121,412,
0,201,878,198,121,408,
0,199,864,196,120,403,
0,199,849,195,119,399,
0,197,835,193,123,396,
0,196,822,192,121,391,
0,224,810,192,120,388,
0,307,798,190,120,384,
0,304,785,189,119,431,
0,302,774,188,118,425,
0,299,763,186,116,421,
0,295,750,185,115,416,
0,293,739,184,115,412,
0,291,783,183,120,408,
0,287,902,182,127,403,
0,286,910,180,127,399,
0,283,914,179,126,396,
0,280,915,243,124,391,
0,278,900,243,124,438,
0,275,876,240,123,432,
0,273,862,238,121,428,
0,271,844,236,120,423,
0,269,830,233,120,419,
0,267,817,231,125,415,
0,264,903,230,124,411,
0,353,910,228,123,407,
0,348,914,225,121,403,
0,344,916,224,120,398,
0,342,916,223,120,436,
0,338,900,220,119,432,
0,335,876,219,118,427,
0,332,858,217,117,423,
0,329,844,216,115,419,
0,327,878,214,117,414,
0,323,905,212,115,410,
0,319,911,210,115,406,
0,384,915,208,114,402,
0,444,915,207,113,397,
0,439,907,265,112,399,
0,434,880,262,112,395,
0,430,864,259,111,391,
0,425,847,257,110,387,
0,420,833,255,109,384,
0,417,820,254,120,380,
0,412,807,251,120,376,
0,408,795,249,119,373,
0,404,783,247,118,369,
0,400,771,244,116,366,
0,397,760,243,115,363,
0,392,750,240,115,359,
0,390,739,241,114,357,
0,386,728,239,113,354,
0,383,717,237,112,351,
0,380,897,235,126,348,
0,376,908,233,125,345,
0,372,911,231,124,342,
0,374,897,229,123,339,
0,370,876,259,123,397,
0,367,862,289,121,391,
0,364,847,287,120,388,
0,360,833,284,119,384,
0,358,817,281,118,380,
0,355,804,279,119,376,
0,352,792,276,123,374,
0,349,780,274,121,369,
0,346,769,271,120,366,
0,343,758,269,120,363,
0,339,747,267,119,414,
0,337,737,264,118,409,
0,334,727,263,116,405,
0,332,717,260,115,400,
0,329,705,258,115,396,
0,327,696,255,123,393,
0,323,892,255,122,389,
0,321,901,252,120,385,
0,319,883,250,120,382,
0,316,867,248,119,377,
0,313,852,246,118,432,
0,311,838,244,116,428,
0,308,824,242,115,423,
0,306,812,240,115,418,
0,304,796,239,113,414,
0,302,784,237,129,409,
0,300,772,235,127,406,
0,296,761,233,127,401,
0,359,751,231,126,398,
0,415,739,230,125,396,
0,411,730,227,124,445,
0,407,719,226,123,440,
0,403,710,224,122,435,
0,399,700,223,121,431,
0,395,792,221,120,427,
0,391,780,220,132,422,
0,387,866,218,131,418,
0,384,904,216,130,414,
0,381,905,275,129,409,
0,376,884,271,128,451,
0,373,868,269,127,445,
0,369,854,267,126,440,
0,366,839,263,125,435,
0,363,827,262,124,431,
0,359,810,259,123,427,
0,356,902,257,127,422,
0,353,910,255,126,418,
0,351,913,254,125,414,
0,348,915,252,124,409,
0,344,903,379,123,443,
0,341,877,372,122,438,
0,339,862,368,121,433,
0,335,848,365,120,428,
0,333,834,361,120,423,
0,330,862,359,119,420,
0,327,904,355,127,415,
0,324,907,352,127,412,
0,322,888,348,126,408,
0,319,871,345,125,403,
0,316,856,342,124,449,
0,313,842,339,123,444,
0,312,828,335,122,440,
0,309,815,333,121,435,
0,307,803,331,120,430,
0,304,787,327,126,426,
0,302,901,326,124,422,
0,300,909,323,123,417,
0,297,907,319,122,414,
0,295,885,318,121,409,
0,292,869,314,120,428,
0,290,855,312,119,423,
0,287,840,310,119,419,
0,286,827,307,118,415,
0,377,814,304,116,411,
0,372,799,302,127,407,
0,368,786,300,126,403,
0,365,775,297,125,399,
0,361,764,354,124,395,
0,358,752,350,123,391,
0,354,743,345,121,447,
0,351,732,343,120,442,
0,348,722,339,120,438,
0,344,712,336,119,433,
0,342,834,334,118,428,
0,339,856,331,131,423,
0,335,841,327,130,419,
0,332,827,326,128,415,
0,329,813,323,127,411,
0,327,800,319,127,408,
0,323,787,316,126,449,
0,320,776,313,124,444,
0,318,765,311,124,440,
0,316,753,308,123,435,
0,312,743,306,121,431,
0,311,897,304,126,425,
0,307,908,301,125,422,
0,305,913,299,124,417,
0,303,915,296,123,413,
0,300,915,295,121,411,
0,297,896,291,121,408,
0,295,875,289,120,404,
0,292,860,287,119,400,
0,291,847,285,118,396,
0,287,833,283,117,393,
0,286,816,280,127,389,
0,284,804,279,126,385,
0,281,792,276,125,382,
0,280,780,275,124,379,
0,277,769,272,123,432,
0,275,758,270,122,425,
0,273,747,268,121,420,
0,271,736,266,120,415,
0,269,727,263,119,412,
0,268,717,263,119,408,
0,265,705,260,121,403,
0,263,696,259,121,399,
0,262,688,257,120,396,
0,345,679,255,119,391,
0,340,670,281,118,427,
0,337,662,285,117,420,
0,334,654,283,116,415,
0,331,646,280,115,412,
0,327,639,278,114,408,
0,324,631,275,125,403,
0,322,621,272,124,399,
0,319,615,271,123,396,
0,316,608,268,121,391,
0,358,600,266,120,387,
0,353,594,348,120,408,
0,350,588,344,119,403,
0,346,581,340,118,399,
0,343,575,337,116,395,
0,339,569,334,115,391,
0,337,630,332,120,387,
0,334,850,327,119,384,
0,331,835,326,118,380,
0,327,820,323,117,376,
0,325,807,319,116,373,
0,321,794,317,115,415,
0,319,782,313,114,409,
0,316,770,312,113,406,
0,313,759,308,112,401,
0,311,748,306,111,398,
0,308,850,304,119,393,
0,305,903,301,118,390,
0,348,911,367,117,386,
0,365,913,420,115,383,
0,361,911,415,115,408,
0,356,887,412,114,408,
0,353,871,407,113,403,
0,350,856,402,112,399,
0,347,858,399,112,395,
0,344,897,395,111,391,
0,340,876,391,129,387,
0,337,860,387,128,384,
0,335,847,384,127,380,
0,332,832,381,126,376,
0,328,819,377,125,407,
0,325,807,375,124,401,
0,323,795,371,123,396,
0,319,783,368,122,392,
0,317,863,364,121,388,
0,314,847,361,120,385,
0,312,902,358,124,381,
0,309,910,355,124,377,
0,307,914,352,122,374,
0,304,916,350,121,371,
0,302,912,347,120,413,
0,299,884,344,119,408,
0,295,869,340,119,403,
0,294,855,337,118,399,
0,291,840,335,116,395,
0,289,827,332,129,391,
0,287,811,329,127,387,
0,284,799,327,126,384,
0,283,787,324,125,380,
0,280,775,322,124,376,
0,279,764,319,123,434,
0,275,753,316,121,429,
0,273,743,314,121,423,
0,271,733,312,120,419,
0,269,828,310,119,415,
0,267,819,307,119,411,
0,265,905,305,118,407,
0,263,911,303,116,403,
0,262,910,321,115,399,
0,259,887,318,115,395,
0,257,871,315,114,440,
0,255,856,312,113,434,
0,254,842,309,112,428,
0,252,828,306,111,423,
0,250,895,304,111,419,
0,248,908,301,126,415,
0,247,913,299,124,412,
0,245,916,296,123,407,
0,243,919,295,122,403,
0,241,920,292,121,432,
0,240,915,346,120,440,
0,238,887,342,119,435,
0,236,871,339,119,430,
0,235,856,335,118,425,
0,233,843,333,116,420,
0,231,902,329,134,416,
0,230,911,327,131,412,
0,228,915,323,131,408,
0,227,917,321,129,404,
0,225,918,352,128,467,
0,224,908,359,127,460,
0,222,880,355,126,455,
0,220,865,352,125,449,
0,219,851,349,124,444,
0,217,837,345,124,440,
0,216,849,343,134,435,
0,267,831,339,131,431,
0,263,818,336,131,427,
0,261,806,334,130,423,
0,259,793,331,128,426,
0,255,782,327,127,422,
0,254,770,324,127,417,
0,251,760,322,126,412,
0,249,748,319,124,408,
0,247,880,317,127,404,
0,244,905,314,126,400,
0,243,912,312,125,397,
0,368,916,309,124,393,
0,376,918,307,123,390,
0,371,915,304,121,434,
0,368,891,302,121,430,
0,363,873,318,120,424,
0,359,859,315,119,419,
0,356,844,312,118,415,
0,353,831,309,124,411,
0,350,824,307,124,407,
0,347,905,304,122,403,
0,344,910,301,121,399,
0,340,902,299,120,395,
0,337,879,295,120,452,
0,335,864,294,119,448,
0,331,849,291,117,441,
0,327,904,289,116,436,
0,325,911,287,115,432,
0,323,913,285,128,428,
0,319,915,283,127,423,
0,317,919,281,126,419,
0,315,918,279,125,415,
0,312,903,277,124,412,
0,309,877,275,123,412,
0,307,863,273,121,408,
0,304,848,271,120,403,
0,301,834,268,120,399,
0,299,896,267,119,395,
0,296,907,265,128,391,
0,294,912,263,127,387,
0,291,916,262,126,384,
0,297,919,259,125,380,
0,295,919,257,124,377,
0,292,909,255,123,375,
0,289,880,254,122,371,
0,287,865,252,121,367,
0,284,851,251,120,364,
0,283,856,248,120,359,
0,280,903,247,124,358,
0,278,911,246,123,355,
0,275,915,243,121,352,
0,273,918,241,120,348,
0,271,918,240,120,408,
0,270,902,239,119,403,
0,268,877,237,118,399,
0,265,862,235,116,395,
0,263,847,233,116,391,
0,262,893,231,119,387,
0,259,907,231,118,384,
0,257,912,229,116,379,
0,255,916,227,115,376,
0,254,919,226,115,372,
0,252,919,224,113,423,
0,250,908,223,112,419,
0,248,880,222,112,415,
0,246,865,220,111,409,
0,244,851,219,110,405,
0,243,884,217,127,401,
0,240,905,216,126,397,
0,239,911,215,124,393,
0,237,915,212,123,390,
0,236,913,211,122,385,
0,233,888,210,121,393,
0,231,872,286,120,390,
0,230,857,358,120,385,
0,228,844,352,118,380,
0,227,830,349,117,377,
0,225,817,345,123,374,
0,224,804,343,121,370,
0,251,876,339,120,367,
0,248,857,336,119,364,
0,246,843,366,118,406,
0,243,829,371,117,419,
0,241,816,367,116,414,
0,239,803,363,115,409,
0,236,791,359,115,404,
0,235,779,355,113,400,
0,233,888,352,121,396,
0,231,903,350,120,391,
0,229,888,346,119,388,
0,227,867,344,118,384,
0,225,854,376,116,451,
0,224,839,422,115,446,
0,222,825,417,115,441,
0,220,812,414,114,436,
0,219,799,408,113,431,
0,217,787,404,113,427,
0,216,775,400,124,422,
0,214,765,397,124,418,
0,212,754,393,123,414,
0,248,741,390,121,409,
0,245,731,386,120,438,
0,243,721,383,119,433,
0,240,711,380,118,428,
0,238,702,376,117,423,
0,236,694,372,116,418,
0,234,684,369,124,414,
0,231,675,366,123,409,
0,230,668,363,121,406,
0,228,659,359,120,401,
0,227,649,357,120,398,
0,224,641,354,118,411,
0,223,634,352,118,407,
0,221,627,348,116,403,
0,219,620,345,115,398,
0,217,612,342,114,393,
0,216,704,339,122,390,
0,214,782,336,121,386,
0,212,769,334,120,383,
0,211,755,332,119,380,
0,209,743,327,118,376,
0,207,732,326,116,418,
0,207,721,323,115,414,
0,205,711,321,115,409,
0,204,702,319,114,404,
0,201,692,316,113,399,
0,201,760,313,117,396,
0,199,852,311,116,391,
0,198,838,308,115,388,
0,197,820,306,114,384,
0,195,807,304,113,405,
0,216,795,332,112,403,
0,214,783,327,112,399,
0,211,771,326,111,395,
0,209,760,322,110,391,
0,207,748,319,109,387,
0,206,873,316,116,383,
0,204,905,313,115,379,
0,203,911,311,115,376,
0,200,913,307,113,371,
0,199,902,321,112,427,
0,198,878,344,112,422,
0,196,863,340,111,417,
0,195,904,337,110,413,
0,193,911,334,109,408,
0,192,913,330,110,403,
0,191,914,327,120,399,
0,189,917,324,119,396,
0,188,919,321,118,391,
0,187,918,319,116,387,
0,185,899,316,115,400,
0,184,875,313,115,396,
0,184,860,311,114,391,
0,182,846,308,113,388,
0,181,884,305,112,384,
0,179,906,303,126,380,
0,179,911,300,125,376,
0,177,911,298,124,373,
0,182,888,295,123,369,
0,183,868,294,121,366,
0,181,854,337,120,415,
0,179,839,334,120,409,
0,178,826,331,118,406,
0,176,814,327,117,401,
0,175,801,324,116,397,
0,174,799,321,117,391,
0,172,852,319,116,388,
0,172,838,316,115,384,
0,195,824,313,115,381,
0,192,807,311,113,377,
0,191,795,339,112,426,
0,189,783,336,112,422,
0,188,771,333,111,417,
0,185,862,330,110,413,
0,184,905,327,109,408,
0,183,911,323,116,403,
0,181,908,320,115,399,
0,179,886,318,114,396,
0,178,870,315,113,391,
0,177,851,312,112,403,
0,175,838,310,111,399,
0,174,824,307,111,396,
0,173,812,304,109,391,
0,171,799,302,108,387,
0,169,899,299,108,384,
0,169,908,297,119,380,
0,167,913,295,118,376,
0,167,915,292,117,372,
0,166,915,290,115,369,
0,164,886,287,115,376,
0,163,870,286,114,372,
0,163,856,284,112,368,
0,161,841,281,112,366,
0,160,828,280,111,362,
0,159,898,277,112,359,
0,159,908,275,115,355,
0,158,913,273,115,352,
0,157,916,271,114,349,
0,243,918,269,113,345,
0,240,917,268,112,401,
0,239,891,265,111,396,
0,236,873,263,110,391,
0,234,901,262,109,388,
0,231,910,260,108,384,
0,230,914,258,124,380,
0,227,916,255,123,376,
0,225,914,255,121,372,
0,224,889,252,120,369,
0,222,872,251,120,366,
0,220,855,249,118,412,
0,219,840,248,117,408,
0,216,827,246,116,403,
0,215,814,244,115,399,
0,213,802,243,115,396,
0,211,871,240,121,391,
0,209,896,239,120,387,
0,207,877,237,120,384,
0,206,862,236,119,380,
0,205,847,234,118,379,
0,203,830,246,116,423,
0,201,817,243,115,419,
0,199,804,241,115,414,
0,199,792,239,113,409,
0,197,780,237,113,406,
0,195,811,235,126,400,
0,193,903,233,124,396,
0,192,910,231,124,393,
0,191,913,230,122,389,
0,190,910,228,121,423,
0,188,881,227,120,419,
0,187,865,225,120,414,
0,185,851,224,118,409,
0,184,838,222,117,406,
0,183,824,221,116,401,
0,181,884,219,127,396,
0,179,868,217,127,393,
0,310,904,216,126,389,
0,395,910,215,124,385,
0,390,909,217,124,433,
0,386,883,217,122,429,
0,382,867,216,121,423,
0,378,852,214,120,419,
0,375,839,212,120,415,
0,371,825,211,119,412,
0,367,900,209,129,406,
0,363,904,207,127,401,
0,359,885,207,127,398,
0,356,868,205,126,393,
0,353,855,204,125,442,
0,351,836,203,124,437,
0,348,824,201,123,432,
0,344,810,199,121,428,
0,342,798,199,121,423,
0,339,857,198,132,419,
0,335,904,196,131,414,
0,332,911,195,130,409,
0,329,913,193,129,406,
0,327,907,192,127,401,
0,324,882,223,127,463,
0,321,862,220,126,457,
0,319,847,219,125,452,
0,316,835,216,124,448,
0,313,821,215,123,444,
0,311,808,214,131,439,
0,307,796,211,129,433,
0,305,783,209,127,429,
0,304,772,207,127,424,
0,300,761,206,126,420,
0,299,751,204,125,416,
0,295,738,203,124,412,
0,294,728,201,123,408,
0,291,719,199,121,404,
0,289,708,198,120,400,
0,287,846,196,126,396,
0,284,903,195,125,391,
0,282,903,193,124,388,
0,293,882,192,123,385,
0,290,866,191,121,428,
0,287,851,189,120,423,
0,285,835,188,120,418,
0,283,821,187,119,414,
0,280,807,185,118,409,
0,278,897,184,117,406,
0,275,908,184,121,401,
0,273,912,182,120,396,
0,271,915,180,120,392,
0,269,918,179,119,389,
0,267,918,179,118,431,
0,265,908,177,116,425,
0,263,876,238,115,421,
0,262,861,235,115,417,
0,259,847,233,113,412,
0,257,833,231,118,408,
0,255,868,229,126,404,
0,254,904,227,124,399,
0,252,911,224,123,396,
0,250,915,223,122,391,
0,248,916,221,121,437,
0,246,911,219,120,432,
0,244,880,217,120,428,
0,243,865,216,118,423,
0,241,851,214,118,419,
0,239,837,212,137,415,
0,237,902,211,135,410,
0,236,905,208,134,405,
0,233,887,207,133,401,
0,231,871,206,131,397,
0,231,856,237,131,393,
0,229,842,255,129,390,
0,227,825,254,128,386,
0,226,812,252,127,383,
0,224,809,249,126,379,
0,223,888,248,136,376,
0,221,906,244,135,372,
0,220,911,242,134,368,
0,218,908,240,134,364,
0,216,884,239,132,373,
0,215,868,236,131,418,
0,214,850,235,130,414,
0,212,836,232,128,409,
0,211,824,231,127,405,
0,209,810,229,127,400,
0,207,798,227,129,397,
0,206,785,225,127,392,
0,204,775,224,127,388,
0,204,764,222,126,384,
0,202,752,220,125,430,
0,200,742,218,124,425,
0,199,729,216,123,421,
0,198,719,255,121,416,
0,196,710,253,121,412,
0,195,701,251,120,408,
0,194,833,248,130,403,
0,193,819,247,129,399,
0,191,806,244,127,395,
0,190,792,242,127,391,
0,189,780,268,126,444,
0,188,768,268,125,440,
0,186,755,265,124,435,
0,185,844,263,123,430,
0,184,836,260,121,425,
0,183,896,258,123,421,
0,182,879,255,124,416,
0,180,864,254,123,412,
0,179,849,252,121,408,
0,178,835,249,121,403,
0,177,822,248,120,436,
0,176,809,246,120,432,
0,174,793,243,118,427,
0,173,782,241,117,423,
0,172,770,240,116,418,
0,171,760,238,124,414,
0,170,876,236,123,409,
0,168,861,233,122,406,
0,167,846,231,121,400,
0,167,831,230,120,396,
0,166,819,228,120,439,
0,164,806,227,118,434,
0,163,790,224,117,430,
0,163,779,223,116,425,
0,161,767,221,115,420,
0,160,835,220,125,416,
0,159,897,218,124,412,
0,158,880,216,123,408,
0,157,864,215,122,403,
0,156,849,213,121,406,
0,156,835,252,120,436,
0,155,822,249,120,432,
0,153,806,248,118,428,
0,152,793,245,117,423,
0,152,782,243,116,419,
0,151,880,241,126,414,
0,150,905,239,125,410,
0,148,900,236,124,406,
0,148,880,235,123,401,
0,147,864,232,121,455,
0,146,849,231,120,449,
0,145,835,228,120,444,
0,144,819,227,119,440,
0,143,806,225,118,435,
0,143,793,224,116,431,
0,142,782,222,128,427,
0,141,770,220,127,422,
0,140,760,312,127,418,
0,139,748,307,126,412,
0,138,739,304,124,425,
0,137,728,302,124,420,
0,137,718,299,123,415,
0,135,706,295,121,412,
0,135,697,294,120,408,
0,135,688,291,120,403,
0,134,679,289,124,399,
0,133,671,287,124,396,
0,131,663,284,122,391,
0,143,655,281,121,387,
0,142,647,279,120,419,
0,140,639,276,120,415,
0,140,632,274,119,410,
0,139,622,272,118,406,
0,137,615,270,116,401,
0,135,623,268,126,398,
0,135,882,265,124,393,
0,135,906,263,123,390,
0,172,908,262,122,386,
0,176,888,259,121,382,
0,175,871,257,120,430,
0,173,857,255,119,425,
0,172,843,254,118,420,
0,170,825,252,116,415,
0,168,813,249,116,412,
0,167,800,248,132,408,
0,166,788,246,131,403,
0,165,776,243,131,399,
0,163,766,241,129,396,
0,162,755,240,128,391,
0,160,743,238,127,432,
0,159,733,236,126,427,
0,158,723,235,125,423,
0,156,711,232,124,418,
0,156,702,231,123,414,
0,155,693,230,129,409,
0,153,684,228,129,406,
0,152,675,226,127,401,
0,263,668,225,127,396,
0,279,659,223,126,412,
0,275,651,221,124,408,
0,273,643,220,124,403,
0,271,635,218,123,399,
0,268,625,216,121,396,
0,265,619,215,120,391,
0,263,611,214,130,388,
0,261,604,212,129,384,
0,259,598,211,127,381,
0,255,591,209,127,376,
0,254,584,207,126,427,
0,252,578,206,125,422,
0,250,572,204,124,416,
0,248,566,203,123,412,
0,246,636,201,121,408,
0,243,627,199,121,404,
0,242,717,199,127,400,
0,240,705,198,126,396,
0,320,696,195,124,391,
0,329,685,194,124,387,
0,327,675,193,123,438,
0,323,666,192,121,433,
0,319,657,191,120,428,
0,317,648,190,120,423,
0,314,638,188,119,419,
0,312,713,187,130,415,
0,308,882,185,129,411,
0,305,865,184,127,407,
0,303,851,183,127,403,
0,300,836,182,126,398,
0,297,824,241,124,394,
0,295,809,239,124,391,
0,292,796,237,123,387,
0,290,785,235,121,383,
0,287,770,233,120,380,
0,286,769,231,135,376,
0,283,901,229,132,372,
0,281,905,227,131,369,
0,279,888,225,131,366,
0,275,871,224,129,379,
0,273,856,221,128,411,
0,271,842,220,127,406,
0,269,828,217,127,402,
0,268,816,216,126,398,
0,265,799,215,124,394,
0,263,787,213,139,390,
0,261,775,211,137,387,
0,259,849,210,135,383,
0,257,834,207,135,379,
0,255,820,206,134,420,
0,290,807,231,133,415,
0,287,794,229,131,411,
0,284,782,227,131,407,
0,281,771,225,130,402,
0,280,756,224,128,398,
0,277,871,222,137,394,
0,275,856,220,135,391,
0,287,841,217,135,387,
0,399,827,216,134,384,
0,393,813,214,133,439,
0,390,800,212,131,433,
0,386,788,211,131,429,
0,382,776,209,129,423,
0,379,765,207,128,420,
0,375,751,206,127,415,
0,371,881,204,127,412,
0,368,865,203,127,408,
0,364,850,201,126,403,
0,359,835,199,125,399,
0,358,823,241,124,440,
0,354,809,239,124,435,
0,352,796,236,123,431,
0,348,784,234,121,425,
0,345,772,231,120,422,
0,342,764,231,125,417,
0,339,900,228,124,413,
0,336,910,227,123,408,
0,334,912,247,121,404,
0,330,903,243,120,401,
0,327,880,241,120,429,
0,325,864,239,119,423,
0,322,850,237,118,419,
0,319,836,236,117,415,
0,317,824,233,116,412,
0,315,898,231,134,408,
0,312,907,230,132,403,
0,310,903,227,131,399,
0,422,909,226,130,395,
0,440,913,224,129,391,
0,436,915,222,127,437,
0,432,912,220,127,432,
0,427,888,219,126,428,
0,423,871,216,125,423,
0,419,854,215,124,419,
0,415,891,214,126,415,
0,411,907,211,125,411,
0,407,912,210,124,407,
0,403,915,208,123,403,
0,398,915,207,122,399,
0,395,897,226,121,422,
0,391,876,224,120,417,
0,387,861,222,120,412,
0,384,847,220,118,408,
0,380,903,219,118,404,
0,377,910,216,125,399,
0,374,914,215,124,396,
0,371,917,213,123,392,
0,368,919,211,121,388,
0,364,916,209,120,435,
0,359,892,215,120,432,
0,358,873,214,119,428,
0,355,859,211,118,423,
0,352,845,209,116,419,
0,348,899,207,115,415,
0,346,908,207,127,411,
0,344,913,205,126,407,
0,340,916,203,125,403,
0,337,918,201,124,399,
0,334,919,208,123,449,
0,332,907,209,122,443,
0,328,879,207,121,438,
0,327,864,206,120,433,
0,323,850,204,120,428,
0,321,833,201,120,423,
0,319,902,200,126,420,
0,316,910,199,125,415,
0,313,914,198,124,412,
0,312,916,195,123,408,
0,308,916,194,122,428,
0,306,899,193,120,422,
0,304,876,192,120,417,
0,302,895,190,119,413,
0,299,906,188,118,408,
0,296,891,187,127,404,
0,295,872,185,126,400,
0,292,858,184,125,397,
0,299,844,183,124,393,
0,316,831,182,123,390,
0,313,818,192,122,429,
0,310,806,191,121,423,
0,307,793,189,120,419,
0,304,782,187,120,415,
0,302,770,185,119,411,
0,299,873,184,122,406,
0,295,903,183,121,402,
0,294,889,182,120,398,
0,291,871,180,119,393,
0,289,857,179,118,391,
0,287,843,177,117,432,
0,284,829,176,116,425,
0,283,816,210,115,422,
0,280,803,207,114,417,
0,278,792,206,113,413,
0,276,776,204,129,408,
0,275,839,202,127,404,
0,272,824,200,127,400,
0,271,811,199,126,396,
0,268,798,198,125,436,
0,265,785,195,124,431,
0,263,774,194,123,425,
0,262,763,192,121,420,
0,260,752,191,120,415,
0,259,741,189,120,412,
0,256,896,188,127,408,
0,255,908,186,126,403,
0,253,913,185,125,399,
0,251,915,188,124,396,
0,249,916,187,123,441,
0,248,904,184,122,436,
0,246,879,184,121,431,
0,243,864,182,120,426,
0,242,849,180,120,422,
0,240,836,179,119,418,
0,239,903,178,127,414,
0,237,911,176,127,409,
0,236,914,175,126,405,
0,234,916,174,125,401,
0,232,913,173,124,439,
0,230,887,172,123,434,
0,229,871,171,121,428,
0,227,856,169,120,423,
0,225,842,168,120,419,
0,224,885,167,126,415,
0,223,908,167,124,411,
0,221,912,165,124,407,
0,220,915,164,123,403,
0,223,915,163,121,399,
0,221,896,217,120,449,
0,219,875,214,120,443,
0,217,860,212,119,438,
0,216,846,210,118,433,
0,214,831,208,116,428,
0,213,886,207,129,423,
0,211,908,205,127,419,
0,210,913,203,127,415,
0,208,915,201,126,412,
0,207,913,199,125,408,
0,206,888,199,124,403,
0,204,871,196,123,399,
0,203,857,195,121,395,
0,201,843,193,120,391,
0,199,829,192,120,387,
0,199,896,191,131,384,
0,198,909,189,129,380,
0,196,913,188,127,377,
0,204,915,186,127,374,
0,202,910,184,126,423,
0,199,883,184,125,419,
0,198,867,182,124,414,
0,196,854,180,123,409,
0,195,901,179,122,406,
0,194,910,177,121,401,
0,192,914,176,131,397,
0,192,916,175,129,393,
0,240,914,174,128,390,
0,374,888,172,127,385,
0,368,872,217,126,427,
0,364,857,221,125,422,
0,359,843,219,124,415,
0,356,830,216,123,412,
0,353,816,215,122,408,
0,350,804,213,121,403,
0,347,902,211,124,399,
0,344,911,209,123,395,
0,340,913,207,122,391,
0,337,906,206,121,387,
0,335,881,204,120,435,
0,332,865,203,120,431,
0,327,851,199,119,425,
0,326,837,199,118,420,
0,323,824,198,116,416,
0,319,868,196,130,412,
0,317,905,195,128,408,
0,315,911,193,127,403,
0,312,913,192,126,399,
0,310,899,341,125,396,
0,307,876,335,124,391,
0,304,862,332,124,388,
0,302,847,327,122,384,
0,299,884,326,121,380,
0,296,906,323,120,377,
0,295,911,319,143,374,
0,291,915,316,142,370,
0,289,916,313,140,367,
0,287,902,312,140,364,
0,285,878,308,139,371,
0,284,863,385,137,415,
0,280,848,381,135,410,
0,279,835,376,135,404,
0,276,897,372,134,400,
0,274,902,369,132,396,
0,271,889,366,140,392,
0,270,907,362,139,388,
0,268,913,359,137,385,
0,265,911,356,136,382,
0,263,892,391,135,412,
0,262,873,433,135,408,
0,259,859,429,134,403,
0,257,844,423,132,398,
0,255,831,419,131,393,
0,254,817,415,130,390,
0,252,820,412,135,386,
0,250,807,408,134,383,
0,248,792,403,132,379,
0,313,780,399,131,376,
0,310,769,396,130,428,
0,307,758,393,129,422,
0,304,748,390,127,418,
0,300,737,385,127,412,
0,298,727,382,126,408,
0,295,717,379,127,404,
0,293,896,376,131,399,
0,291,908,372,131,396,
0,287,913,369,129,391,
0,324,911,366,127,388,
0,321,888,363,127,428,
0,318,871,359,126,423,
0,313,856,357,124,419,
0,312,843,353,124,413,
0,308,829,351,123,408,
0,305,830,348,127,404,
0,303,903,345,127,400,
0,300,910,343,126,396,
0,297,915,339,125,392,
0,295,917,337,124,389,
0,293,919,334,123,430,
0,290,913,332,121,425,
0,287,884,329,121,420,
0,285,869,326,120,415,
0,283,855,323,119,411,
0,280,873,321,134,407,
0,278,905,319,132,403,
0,275,912,316,131,399,
0,273,915,313,130,395,
0,271,916,312,128,393,
0,270,910,360,127,433,
0,267,881,357,126,428,
0,263,866,353,126,423,
0,263,851,350,124,418,
0,260,838,346,124,414,
0,259,825,344,134,409,
0,255,812,340,132,406,
0,255,798,337,131,402,
0,425,785,335,131,398,
0,417,774,332,129,401,
0,413,763,328,128,397,
0,408,752,326,127,392,
0,403,742,323,126,389,
0,399,732,319,125,384,
0,396,721,317,124,381,
0,391,866,315,135,377,
0,388,872,312,135,374,
0,403,854,310,134,371,
0,488,839,307,132,367,
0,483,826,305,131,413,
0,478,812,303,130,408,
0,472,799,300,129,403,
0,466,787,298,128,399,
0,462,775,295,127,395,
0,456,764,294,135,391,
0,452,753,291,143,387,
0,448,743,289,142,384,
0,443,729,287,140,380,
0,439,719,286,139,376,
0,435,710,283,138,400,
0,431,700,281,137,396,
0,427,691,279,135,391,
0,422,683,276,135,388,
0,418,674,275,134,384,
0,415,749,273,133,380,
0,411,899,271,131,376,
0,407,904,269,131,372,
0,403,881,268,129,369,
0,399,866,287,129,366,
0,396,851,353,127,421,
0,392,838,350,126,416,
0,390,824,347,126,412,
0,385,811,343,124,408,
0,382,798,339,124,403,
0,379,900,336,134,399,
0,376,909,333,132,395,
0,372,913,331,131,391,
0,369,917,327,130,387,
0,366,916,325,129,387,
0,363,899,322,127,416,
0,359,876,319,127,412,
0,358,861,316,126,408,
0,353,847,313,125,403,
0,351,833,311,124,398,
0,348,820,308,124,394,
0,345,900,305,123,391,
0,343,903,304,121,387,
0,339,879,301,121,384,
0,337,864,299,120,446,
0,335,849,297,119,440,
0,332,835,295,118,434,
0,329,822,292,117,430,
0,327,809,290,116,425,
0,323,807,287,115,419,
0,321,903,286,131,415,
0,319,910,284,130,412,
0,316,914,281,129,408,
0,313,918,280,127,403,
0,312,917,277,127,445,
0,310,899,275,126,440,
0,307,876,272,125,435,
0,304,862,271,124,431,
0,302,899,268,123,427,
0,300,908,266,127,421,
0,297,913,263,134,417,
0,295,916,263,132,412,
0,293,918,260,131,408,
0,291,913,259,130,404,
0,289,886,348,129,439,
0,287,870,344,127,434,
0,285,856,340,127,429,
0,283,841,336,126,424,
0,280,828,333,125,420,
0,279,816,330,129,415,
0,276,803,327,127,411,
0,274,792,324,127,407,
0,272,779,321,126,403,
0,270,765,319,124,399,
0,268,755,316,124,446,
0,267,743,313,123,441,
0,265,734,311,121,436,
0,263,723,308,120,432,
0,260,714,305,120,428,
0,259,835,303,134,422,
0,257,903,300,132,417,
0,255,910,297,131,414,
0,335,915,295,130,409,
0,331,915,293,129,415,
0,327,902,291,127,451,
0,324,878,288,127,447,
0,321,863,286,126,441,
0,318,903,284,125,437,
0,315,910,281,124,432,
0,312,913,280,142,427,
0,309,915,277,141,423,
0,306,919,275,140,419,
0,326,920,273,139,414,
0,323,920,271,137,474,
0,319,911,293,135,467,
0,316,881,290,135,462,
0,313,866,287,134,457,
0,311,852,285,132,452,
0,307,838,283,131,446,
0,304,898,280,135,441,
0,302,908,278,135,437,
0,300,913,275,134,433,
0,296,916,273,132,428,
0,295,916,271,131,455,
0,291,899,268,130,449,
0,289,876,267,129,444,
0,287,861,264,127,440,
0,285,847,297,127,435,
0,281,833,294,127,430,
0,280,820,291,131,425,
0,278,807,287,130,421,
0,275,796,286,129,417,
0,273,784,284,127,413,
0,271,769,281,127,451,
0,269,759,279,126,446,
0,267,748,276,125,441,
0,264,737,274,124,437,
0,263,728,271,123,432,
0,260,719,269,126,427,
0,258,896,267,124,423,
0,255,905,264,124,419,
0,255,891,263,123,415,
0,307,872,261,121,411,
0,304,855,259,120,460,
0,302,840,257,120,454,
0,299,827,255,119,449,
0,295,814,254,118,444,
0,294,801,252,116,440,
0,290,790,249,132,434,
0,287,892,248,131,430,
0,286,907,246,130,425,
0,335,913,244,129,422,
0,382,915,243,127,425,
0,377,913,241,127,436,
0,374,887,240,126,431,
0,370,871,238,125,427,
0,367,856,236,124,422,
0,363,843,235,123,418,
0,359,897,233,125,413,
0,355,908,231,124,408,
0,352,913,230,123,405,
0,350,915,246,121,401,
0,347,915,243,121,433,
0,344,889,241,120,428,
0,340,872,239,119,423,
0,337,857,237,118,419,
0,335,844,236,117,415,
0,331,830,233,116,412,
0,327,901,231,125,406,
0,325,910,230,124,401,
0,322,912,227,123,398,
0,319,905,226,121,394,
0,317,880,224,120,393,
0,315,862,223,120,390,
0,312,847,222,119,386,
0,310,833,220,118,383,
0,307,820,219,117,379,
0,304,807,217,118,376,
0,302,900,216,121,371,
0,299,909,214,120,368,
0,296,913,212,119,365,
0,295,916,216,118,361,
0,292,916,227,117,412,
0,290,891,225,116,408,
0,287,873,224,115,403,
0,285,859,222,114,399,
0,283,844,220,113,396,
0,280,871,217,130,391,
0,278,905,216,129,387,
0,276,908,214,127,384,
0,274,890,212,127,380,
0,271,872,211,126,376,
0,270,858,209,124,387,
0,268,840,207,123,384,
0,265,827,207,122,380,
0,263,814,205,121,376,
0,262,801,204,120,372,
0,259,893,203,124,369,
0,257,907,235,123,364,
0,255,912,233,121,361,
0,254,915,231,121,359,
0,252,917,238,120,366,
0,265,908,274,119,399,
0,263,880,271,118,395,
0,260,865,269,116,391,
0,258,851,267,115,387,
0,255,837,263,115,383,
0,253,824,262,122,379,
0,251,811,259,121,374,
0,249,799,257,120,371,
0,248,787,255,120,368,
0,246,775,253,118,420,
0,243,761,251,117,415,
0,242,751,249,116,411,
0,241,740,247,115,407,
0,239,783,245,115,402,
0,237,815,243,113,398,
0,236,888,240,135,394,
0,233,899,239,133,390,
0,231,880,237,131,386,
0,232,865,235,131,382,
0,231,851,233,129,378,
0,229,833,231,129,375,
0,227,819,230,127,371,
0,226,807,227,126,368,
0,225,795,226,125,364,
0,223,782,224,125,361,
0,221,901,223,127,358,
0,220,908,221,126,354,
0,218,906,219,126,351,
0,217,883,217,124,348,
0,216,868,216,124,403,
0,214,849,214,123,398,
0,212,835,212,121,393,
0,211,822,211,120,390,
0,210,809,209,120,387,
0,208,798,207,124,383,
0,207,883,206,123,379,
0,206,905,205,121,374,
0,207,902,204,120,371,
0,222,880,201,120,367,
0,220,865,200,119,408,
0,217,847,199,118,404,
0,216,832,198,116,400,
0,214,819,196,115,396,
0,211,807,195,115,391,
0,210,871,195,127,388,
0,207,905,193,126,384,
0,206,911,192,126,380,
0,218,912,191,124,376,
0,216,899,189,123,390,
0,214,877,188,123,423,
0,212,859,187,121,417,
0,210,844,185,120,414,
0,208,831,184,119,409,
0,207,818,184,119,404,
0,205,892,183,123,400,
0,204,907,180,121,396,
0,201,911,179,120,391,
0,200,905,179,120,388,
0,199,881,177,119,384,
0,198,866,176,118,381,
0,196,847,175,116,377,
0,195,834,174,115,374,
0,194,891,173,115,371,
0,193,891,172,114,367,
0,192,905,171,124,364,
0,190,911,169,123,359,
0,188,915,168,123,356,
0,188,915,167,121,353,
0,186,905,167,120,399,
0,185,879,166,120,394,
0,184,860,164,118,390,
0,183,846,163,118,386,
0,182,832,163,116,382,
0,181,819,161,120,379,
0,179,901,160,124,375,
0,178,909,159,122,371,
0,207,910,184,121,367,
0,308,892,216,120,364,
0,304,873,214,120,420,
0,302,859,211,118,415,
0,299,841,209,117,412,
0,295,828,207,116,408,
0,294,815,206,115,403,
0,291,873,204,134,399,
0,288,905,203,132,395,
0,286,911,200,131,391,
0,283,913,199,130,386,
0,280,902,198,129,383,
0,278,878,195,127,415,
0,275,863,194,127,411,
0,273,845,193,126,406,
0,271,831,192,125,402,
0,269,819,190,124,398,
0,267,888,188,127,394,
0,264,907,188,127,391,
0,262,911,185,126,386,
0,259,910,184,125,382,
0,258,888,183,124,399,
0,255,871,181,123,428,
0,254,856,179,121,423,
0,252,839,178,120,419,
0,249,825,177,120,415,
0,248,813,176,119,410,
0,246,800,175,124,406,
0,243,788,173,123,401,
0,241,776,172,123,397,
0,296,766,171,121,393,
0,294,755,169,120,443,
0,291,743,167,120,436,
0,287,734,167,119,432,
0,286,721,166,117,428,
0,283,864,165,116,423,
0,280,848,163,115,419,
0,278,899,163,127,415,
0,275,909,161,126,410,
0,272,911,159,124,406,
0,270,904,159,123,401,
0,268,880,194,123,440,
0,266,865,191,121,435,
0,263,851,190,120,430,
0,262,833,188,119,425,
