=~=~=~=~=~=~=~=~=~=~=~= PuTTY log 2021.04.22 10:50:41 =~=~=~=~=~=~=~=~=~=~=~=
7,
0,551,682,134,369,716,
0,543,673,133,367,711,
0,537,
0,563441,737,119,333,708,
0,438,728,118,330,699,
0,432,729,116,327,689,
0,428,719,115,324,678,
0,424,709,114,321,670,
0,422,700,113,319,661,330,417,691,119,348,731,30,699,
0,432,729,116,327,689,
0,428,719,115,324,678,
0,424,709,114,321,670,
0,422,700,113,319,661,
0,417,691,119,348,731,
0,414,682,117,347,719,
0,411,671,116,343,710,
0,408,664,115,339,700,
0,403,655,114,335,6bj
0,399,647,113,333,681,
0,396,751,114,330,671,
0,392,StartUp!
127,415,536,360,238,695,
0,412,603,414,237,688,
0,408,595,411,236,680,
0,406,590,408,235,674,
0,403,583,404,233,668,
0,399,579,401,231,662,
0,397,573,399,231,655,
0,395,568,396,231,745,
0,494,563,393,229,736,
0,488,558,391,228,728,
0,484,551,387,227,718,
0,480,545,384,225,708,
0,472,539,379,224,699,
0,468,644,423,223,687,
0,463,634,419,221,678,
0,459,625,415,220,669,
0,454,617,411,219,660,
0,449,608,408,217,718,
0,515,600,403,216,732,
0,511,592,399,215,721,
0,505,585,396,213,711,
0,499,579,391,211,701,
0,493,572,387,210,689,
0,487,654,426,209,679,
0,483,643,422,207,671,
0,478,635,417,207,663,
0,473,627,413,205,654,
0,468,617,409,216,736,
0,543,609,405,214,724,
0,536,601,401,212,713,
0,529,598,399,211,707,
0,527,591,396,210,697,
0,519,583,391,209,687,
0,515,706,490,207,678,
0,509,696,484,206,668,
0,504,686,479,204,659,
0,499,675,474,203,652,
0,494,665,470,263,742,
0,636,655,464,260,730,
0,626,647,460,258,719,
0,618,639,455,255,710,
0,611,632,451,254,700,
0,602,671,471,252,688,
0,595,825,550,249,679,
0,588,812,543,248,671,
0,582,799,537,246,662,
0,575,787,531,243,654,
0,583,773,526,289,737,
0,699,761,519,286,727,
1,688,750,515,284,716,
2,679,739,509,280,706,
2,671,729,504,279,696,
2,660,719,563,276,685,
3,652,711,598,273,675,
3,644,701,591,271,668,
3,636,692,583,270,659,
3,629,684,577,268,675,
3,694,672,572,299,744,
3,783,664,564,295,734,
4,771,655,558,293,723,
4,761,647,552,291,713,
4,750,639,547,287,704,
4,738,750,646,286,692,
4,728,791,635,284,683,
5,719,778,627,281,674,
5,709,767,620,280,665,
5,700,755,612,276,732,
5,809,742,605,297,743,
5,828,732,598,294,732,
6,815,721,591,291,722,
5,803,711,585,289,711,
5,792,702,579,287,703,
5,778,860,665,284,691,
6,767,844,655,281,681,
6,756,830,647,280,672,
6,747,817,639,278,664,
6,736,804,632,275,751,
6,851,790,625,295,739,
6,836,777,617,292,728,
6,824,767,611,290,718,
6,811,755,604,287,708,
6,796,745,598,286,699,
6,785,815,671,283,688,
6,774,801,662,280,679,
6,764,790,654,278,670,
6,753,777,646,275,662,
6,743,767,639,304,752,
5,845,752,631,307,739,
6,831,742,624,304,729,
5,818,732,615,302,719,
5,806,722,609,300,709,
5,792,719,603,297,700,
5,780,868,647,294,688,
5,769,854,639,291,679,
5,760,839,632,289,670,
5,749,826,625,287,662,
5,739,814,619,316,756,
5,816,799,611,312,745,
4,803,787,604,310,734,
4,792,775,598,307,724,
4,780,764,591,304,714,
5,768,827,585,302,704,
4,755,900,608,299,693,
4,745,887,600,295,684,
4,736,871,593,294,675,
5,726,857,587,291,668,
5,739,844,580,337,758,
4,788,827,574,333,746,
4,776,814,568,329,736,
4,766,802,563,327,725,
5,755,791,556,323,715,
4,743,862,590,321,705,
4,732,891,606,319,694,
4,723,874,599,316,685,
5,713,860,591,313,676,
4,704,847,585,311,733,
4,746,833,579,379,756,
5,736,817,572,374,745,
4,724,804,566,369,734,
4,715,793,560,366,724,
4,705,782,553,363,714,
4,695,891,601,359,704,
4,686,905,591,356,692,
4,678,903,585,353,684,
4,670,883,579,350,675,
4,663,868,572,349,769,
4,741,851,566,403,756,
4,729,838,560,398,745,
4,719,824,553,394,735,
5,710,812,547,391,724,
5,700,800,542,387,716,
4,689,898,601,384,705,
5,679,907,591,380,694,
4,671,901,585,376,684,
4,664,880,579,374,675,
4,655,865,573,409,760,
4,762,847,566,423,747,
4,751,835,560,418,736,
4,740,823,553,414,726,
4,729,810,547,410,716,
4,719,798,542,406,706,
4,707,902,565,402,696,
4,699,903,556,398,685,
4,690,883,550,395,676,
4,681,868,543,391,668,
4,673,856,539,448,764,
4,774,838,533,442,752,
4,763,825,527,436,740,
4,752,813,523,432,731,
3,741,800,518,428,719,
3,731,812,513,423,711,
3,719,894,508,419,701,
3,710,877,503,415,689,
3,700,863,497,412,680,
3,691,848,494,408,671,
3,704,836,489,463,761,
3,780,819,484,457,750,
3,768,807,480,451,739,
3,757,796,476,448,729,
3,747,783,472,443,719,
3,737,868,497,439,710,
3,724,884,544,434,700,
3,715,868,538,430,688,
3,705,855,532,427,679,
3,697,841,527,423,729,
3,737,828,520,465,760,
3,739,812,515,460,750,
3,728,799,510,454,739,
3,718,788,504,449,728,
3,708,777,499,445,719,
3,700,884,548,441,708,
3,688,881,540,436,699,
3,679,866,534,432,688,
3,671,852,527,428,679,
2,664,839,522,425,776,
3,665,825,516,436,763,
3,657,809,511,432,752,
3,649,798,505,427,741,
2,642,786,500,423,731,
2,635,775,496,419,721,
2,627,895,530,415,711,
3,619,889,522,412,702,
3,612,872,516,408,690,
2,606,859,511,404,681,
2,600,846,506,416,774,
2,647,831,500,428,761,
3,639,816,496,423,750,
2,631,803,489,418,739,
2,623,792,486,414,729,
2,615,780,481,411,719,
2,608,899,519,407,710,
2,599,902,512,403,700,
2,591,883,507,399,688,
2,586,868,502,396,679,
2,580,856,497,428,768,
1,618,841,491,423,755,
1,610,824,487,418,743,
1,603,812,481,414,734,
2,595,800,476,409,723,
2,588,847,472,407,714,
2,582,903,502,402,704,
2,574,908,495,399,695,
2,568,897,489,395,684,
1,563,877,484,391,675,
1,557,864,480,436,765,
2,577,849,475,432,753,
1,569,832,470,426,742,
1,563,820,465,422,732,
1,556,807,462,418,722,
1,551,880,480,414,711,
1,545,905,515,410,703,
1,539,908,508,407,693,
1,534,896,502,403,682,
1,529,876,497,399,721,
1,560,862,492,457,765,
1,566,848,487,452,753,
1,559,831,482,447,742,
1,551,819,477,443,732,
1,545,807,472,438,722,
1,540,892,489,433,711,
1,534,906,483,430,703,
1,527,904,477,425,693,
1,521,884,472,422,681,
1,516,869,467,418,777,
1,513,856,463,478,763,
1,508,841,459,472,752,
0,504,825,455,465,742,
1,499,813,451,461,731,
1,495,801,447,456,721,
1,491,897,536,451,711,
0,486,908,527,448,702,
0,480,911,520,444,690,
1,476,910,515,440,681,
1,472,888,510,457,756,
0,472,871,504,487,744,
0,467,857,499,481,734,
0,463,841,494,475,723,
0,459,828,489,470,713,
0,455,816,484,465,704,
0,451,902,480,461,695,
0,448,910,475,456,685,
0,443,913,469,452,674,
0,440,912,465,448,665,
0,435,892,461,526,764,
0,507,874,455,518,753,
0,500,860,451,512,742,
0,495,843,448,504,732,
0,489,830,444,499,721,
0,483,866,440,495,711,
0,479,904,436,489,702,
0,473,911,432,484,692,
0,467,914,428,480,681,
0,463,915,424,475,672,
0,459,908,422,565,772,
0,462,880,417,556,760,
0,455,865,415,550,750,
0,451,849,412,543,739,
0,448,836,408,536,728,
0,443,895,422,531,719,
0,439,907,472,526,709,
0,435,911,467,519,700,
0,430,915,461,515,688,
0,427,912,455,510,728,
0,423,889,451,593,783,
0,469,872,448,585,772,
0,463,859,443,579,761,
0,459,842,439,570,750,
0,454,830,435,563,739,
0,449,896,451,558,729,
0,444,908,448,551,719,
0,440,911,444,545,710,
0,435,912,439,540,698,
0,431,896,433,535,793,
0,444,876,430,599,789,
0,459,862,425,591,777,
0,454,848,422,583,766,
0,449,831,417,575,755,
0,444,819,414,569,743,
0,440,899,496,563,734,
0,435,908,489,556,723,
0,430,912,484,551,715,
0,425,913,478,545,703,
0,422,900,473,561,795,
0,483,878,467,595,782,
0,476,864,463,588,770,
0,472,850,459,581,760,
0,467,833,454,573,748,
0,461,822,450,567,739,
0,456,903,477,560,728,
0,452,910,472,555,718,
0,446,913,466,548,708,
0,441,910,460,543,697,
0,438,888,456,621,801,
0,563,871,451,612,788,
0,555,857,447,605,776,
0,548,844,443,598,766,
0,542,828,439,589,755,
0,536,868,435,583,744,
0,529,904,492,575,734,
0,524,911,487,569,723,
0,517,914,481,563,713,
0,512,915,475,558,703,
0,507,908,470,624,807,
0,622,881,465,615,793,
0,614,867,460,608,782,
0,606,852,455,600,770,
0,598,836,451,591,760,
0,591,888,448,585,748,
0,584,905,499,579,738,
0,577,911,494,572,728,
0,569,913,488,567,719,
0,563,907,483,560,741,
0,593,883,478,636,803,
0,696,867,472,627,792,
0,687,854,468,620,779,
0,677,840,463,612,768,
0,668,824,459,604,757,
0,660,895,491,597,747,
0,652,907,553,590,736,
0,643,911,547,583,726,
0,634,910,540,577,716,
0,627,889,533,571,804,
0,719,873,527,655,809,
0,763,859,521,647,797,
0,752,846,516,639,785,
0,741,829,511,632,774,
0,731,816,505,622,763,
0,721,897,515,615,752,
0,711,908,510,608,742,
0,703,911,504,600,732,
0,691,905,499,594,722,
0,683,882,493,601,819,
0,710,867,487,639,805,
0,700,854,483,632,792,
0,691,840,479,624,781,
0,681,824,474,615,769,
0,673,812,470,608,759,
0,665,902,512,600,748,
0,656,909,506,593,737,
0,649,912,500,587,728,
0,639,910,496,580,718,
0,633,886,489,646,820,
0,655,870,484,639,807,
0,647,856,479,631,795,
0,639,843,474,623,783,
0,632,827,470,615,772,
0,624,844,465,607,761,
0,617,903,468,600,751,
0,610,910,463,593,740,
0,604,911,459,587,731,
0,595,903,455,580,720,
0,590,880,449,637,820,
0,613,864,446,628,807,
0,605,851,441,620,795,
0,598,838,438,613,783,
0,591,822,433,606,771,
0,583,875,430,598,760,
0,578,904,471,591,750,
0,572,911,466,583,739,
0,566,912,461,577,729,
0,559,903,455,572,719,
0,553,880,451,631,810,
0,547,865,446,622,798,
0,542,851,441,615,786,
0,537,838,438,607,774,
0,531,822,433,600,763,
0,527,891,462,591,753,
0,521,907,462,584,742,
0,516,910,457,578,732,
0,512,903,452,572,723,
0,505,880,448,567,733,
0,564,866,443,637,804,
0,602,852,439,628,792,
0,595,839,434,621,780,
0,588,825,430,614,769,
0,580,810,426,606,759,
0,574,897,460,598,748,
0,568,908,455,591,737,
0,561,911,450,584,728,
0,555,908,446,578,718,
0,547,884,440,599,792,
0,592,870,435,650,814,
0,583,856,432,641,800,
0,577,842,427,633,789,
0,571,829,423,626,777,
0,564,814,419,619,768,
0,558,901,476,609,755,
0,551,909,470,603,745,
0,545,912,465,595,736,
0,539,909,460,589,726,
0,531,885,455,664,843,
0,639,870,450,664,824,
0,632,856,446,655,811,
0,624,843,441,647,799,
0,615,830,436,639,787,
0,608,814,433,630,775,
0,601,902,472,623,764,
0,594,908,467,615,754,
0,587,901,463,608,743,
0,580,880,457,601,734,
0,573,865,452,683,839,
0,673,851,448,671,823,
0,664,838,443,664,810,
0,655,824,439,655,798,
0,647,812,434,647,786,
0,639,872,430,638,775,
0,632,904,486,630,764,
0,624,911,480,623,753,
0,615,910,475,615,743,
0,609,892,470,608,733,
0,614,875,463,666,849,
0,691,860,460,657,831,
0,681,847,455,648,819,
0,672,833,450,639,807,
0,664,820,446,633,796,
0,655,890,471,624,783,
0,647,906,489,616,772,
0,639,911,484,609,762,
0,632,905,480,603,752,
0,625,882,474,596,742,
0,647,868,468,662,825,
0,671,854,463,652,809,
0,662,839,459,644,798,
0,654,827,454,636,785,
0,645,815,449,630,774,
0,638,895,454,620,764,
0,630,907,448,612,752,
0,622,909,444,606,742,
0,615,894,440,600,732,
0,608,875,435,600,783,
0,662,862,431,660,824,
0,652,847,427,651,812,
0,643,834,423,643,799,
0,636,822,419,636,787,
0,627,809,415,627,776,
0,620,900,500,619,765,
0,612,908,494,611,755,
0,606,909,488,604,744,
0,599,888,483,598,734,
0,591,873,479,654,845,
0,641,859,472,652,831,
0,632,845,467,644,818,
0,624,831,463,636,806,
0,616,819,459,628,794,
0,609,807,454,621,783,
0,601,903,450,612,771,
0,595,909,446,605,760,
0,588,905,441,598,750,
0,581,883,438,591,740,
0,575,869,433,655,839,
0,676,854,428,647,822,
0,667,840,424,639,809,
0,659,828,420,631,797,
0,651,815,417,623,785,
0,642,803,414,615,775,
0,634,903,481,607,763,
0,627,907,476,600,752,
0,619,891,472,593,742,
0,611,873,466,587,732,
0,605,860,462,652,839,
0,656,846,455,643,822,
0,647,832,451,635,809,
0,639,819,447,627,798,
0,632,807,442,620,785,
0,624,857,448,612,775,
0,616,906,471,604,764,
0,609,911,465,596,753,
0,602,914,460,590,743,
0,595,909,455,583,733,
0,589,884,451,647,831,
0,643,868,446,639,814,
0,635,855,441,632,802,
0,627,841,436,624,790,
0,619,828,433,616,779,
0,611,881,430,609,768,
0,604,907,428,600,756,
0,597,911,424,594,746,
0,590,908,420,588,736,
0,583,884,417,582,787,
0,611,869,414,630,828,
0,604,855,408,622,812,
0,596,841,406,615,799,
0,589,828,402,607,788,
0,582,816,399,600,777,
0,575,894,457,593,766,
0,569,907,451,584,755,
0,563,900,448,579,744,
0,557,880,443,572,735,
0,551,865,439,611,825,
0,577,851,434,608,812,
0,569,838,428,601,796,
0,563,825,424,593,783,
0,556,812,420,587,772,
0,550,800,417,580,763,
0,543,897,441,574,752,
0,539,905,436,566,740,
0,532,888,432,560,731,
0,527,872,428,555,721,
0,523,859,423,603,824,
0,551,844,419,595,809,
0,543,831,414,588,794,
0,537,819,410,580,782,
0,531,807,407,574,771,
0,525,799,403,568,760,
0,519,902,462,561,750,
0,515,911,457,553,739,
0,509,913,452,548,729,
0,504,908,448,543,719,
0,500,884,444,582,820,
0,543,868,439,575,807,
0,536,855,433,568,792,
0,531,841,429,561,780,
0,524,828,425,556,769,
0,519,851,445,550,759,
0,513,903,470,543,748,
0,508,910,464,536,737,
0,503,905,460,531,728,
0,497,883,455,526,718,
0,493,868,451,568,799,
0,515,854,446,561,787,
0,508,840,440,555,774,
0,504,828,436,548,762,
0,497,815,432,543,752,
0,492,880,467,536,741,
0,487,906,462,531,731,
0,483,905,456,524,721,
0,479,884,452,519,711,
0,475,870,448,515,751,
0,477,856,443,553,804,
0,523,841,439,547,792,
0,516,828,433,541,777,
0,510,816,430,535,766,
0,504,804,425,529,755,
0,499,892,449,524,744,
0,494,908,445,518,734,
0,488,911,440,511,724,
0,483,905,435,507,715,
0,479,882,432,538,807,
0,524,867,428,550,801,
0,526,854,423,543,789,
0,519,839,417,536,775,
0,514,827,414,531,764,
0,508,815,411,525,753,
0,504,897,411,519,742,
0,497,908,408,514,732,
0,492,900,403,508,722,
0,487,880,399,503,712,
0,482,865,397,551,815,
0,532,851,393,543,801,
0,524,838,390,537,790,
0,518,824,387,531,775,
0,512,812,384,526,764,
0,507,800,381,519,753,
0,501,899,387,514,742,
0,496,889,384,509,732,
0,490,872,380,503,722,
0,486,859,376,497,712,
0,480,846,374,547,808,
0,519,831,371,540,796,
0,512,819,368,535,783,
0,507,807,365,528,769,
0,501,795,362,523,759,
0,496,808,375,518,748,
0,491,902,411,512,737,
0,485,899,407,506,728,
0,480,879,403,499,718,
0,475,865,399,495,708,
0,471,851,395,529,800,
0,509,838,391,523,787,
0,502,824,387,518,775,
0,496,812,384,512,762,
0,491,799,380,506,752,
0,486,871,435,502,741,
0,480,904,432,496,731,
0,475,909,428,491,720,
0,470,896,423,486,711,
0,466,876,419,481,739,
0,462,862,415,519,796,
0,483,847,412,514,783,
0,476,835,407,508,772,
0,472,822,403,504,759,
0,466,809,399,497,748,
0,462,888,455,492,738,
0,457,903,448,487,728,
0,453,888,444,483,718,
0,449,871,440,477,708,
0,445,857,435,473,799,
0,441,844,431,469,799,
0,438,830,427,465,787,
0,433,818,422,461,775,
0,430,806,417,457,761,
0,426,794,414,453,751,
0,423,896,419,449,740,
0,419,905,414,445,731,
0,415,889,410,440,720,
0,412,872,407,437,711,
0,409,859,403,433,817,
0,406,84StartUp!
127,516,860,362,491,757,
0,512,849,359,487,750,
0,508,838,356,483,742,
0,504,828,354,480,734,
0,500,819,352,476,727,
0,497,809,350,492,825,
0,496,799,347,487,816,
0,492,791,344,484,806,
0,487,782,342,480,796,
0,484,774,339,476,788,
0,481,763,337,472,776,
0,477,752,334,467,766,
0,472,835,330,462,754,
0,467,820,327,457,740,
0,463,807,325,454,731,
0,459,795,322,449,721,
0,455,783,319,458,814,
0,451,769,316,451,799,
0,447,758,314,448,787,
0,443,747,312,443,775,
0,439,736,309,439,764,
0,435,727,307,435,754,
0,431,780,316,431,743,
0,427,768,313,428,730,
0,423,757,310,423,720,
0,419,745,307,420,711,
0,416,736,305,439,806,
0,455,723,303,432,792,
0,449,712,300,428,780,
0,444,704,297,423,769,
0,440,699,297,423,763,
0,438,743,295,419,753,
0,432,860,356,415,739,
0,428,846,353,412,729,
0,423,831,350,408,719,
0,420,819,346,406,710,
0,417,807,344,459,807,
0,460,792,340,451,795,
0,455,780,337,448,783,
0,450,768,334,443,771,
0,445,758,332,439,760,
0,440,868,364,434,750,
0,435,896,385,430,736,
0,431,878,382,425,727,
0,427,864,377,422,717,
0,423,850,375,418,760,
0,460,837,371,480,811,
0,481,820,367,473,798,
0,476,807,364,469,785,
0,472,796,360,463,775,
0,466,784,358,459,763,
0,461,889,364,455,752,
0,455,876,359,450,739,
0,451,862,356,446,729,
1,446,847,353,441,719,
1,441,835,350,463,823,
2,545,822,347,502,815,
2,541,806,344,495,802,
2,535,794,341,489,790,
2,528,783,338,484,779,
3,523,771,335,480,768,
2,518,886,380,474,756,
3,510,869,376,470,743,
3,504,855,371,464,733,
3,499,841,368,460,723,
3,495,828,365,527,831,
3,560,815,361,519,816,
3,553,799,358,513,804,
3,547,788,355,507,792,
3,540,777,352,502,780,
3,535,813,349,497,769,
3,528,902,391,492,759,
4,521,902,385,487,745,
4,515,882,382,481,735,
3,510,867,378,476,725,
3,505,855,375,542,824,
3,578,839,371,535,809,
3,571,824,368,527,798,
3,564,812,364,521,785,
3,558,799,361,515,774,
3,551,826,358,510,764,
3,543,900,355,504,752,
3,537,888,352,499,739,
3,531,871,348,494,729,
3,526,858,345,489,719,
3,521,845,343,548,823,
3,543,831,339,541,809,
3,536,815,336,534,797,
3,529,803,334,527,785,
3,524,791,331,521,774,
3,519,868,375,516,764,
3,512,875,407,511,752,
3,507,860,401,505,739,
3,502,846,398,500,729,
3,496,833,393,496,764,
3,492,820,390,526,822,
3,518,807,387,519,809,
3,512,792,384,513,797,
3,507,782,380,508,785,
3,502,770,376,503,774,
3,496,888,373,497,763,
3,489,880,369,492,752,
3,485,864,366,487,739,
3,480,851,362,482,729,
3,476,837,359,478,816,
3,472,824,356,497,816,
3,467,812,353,492,803,
3,463,796,350,486,791,
3,459,785,348,480,779,
3,454,774,344,476,768,
3,450,856,371,471,757,
3,444,841,368,467,747,
3,440,828,364,462,734,
3,436,814,359,457,723,
3,433,802,358,507,828,
3,487,791,354,500,814,
3,482,779,351,495,801,
3,477,764,348,488,789,
3,472,754,344,483,777,
3,467,743,342,479,768,
3,463,864,431,473,755,
3,455,849,425,468,744,
3,451,835,420,464,732,
3,447,822,415,460,723,
3,443,810,412,515,831,
3,537,797,408,508,818,
3,531,783,404,503,806,
3,525,771,400,496,793,
3,519,760,397,491,782,
2,513,799,393,486,771,
2,508,873,396,481,760,
3,501,858,391,476,749,
2,496,844,387,472,736,
2,491,831,384,467,727,
2,486,819,381,528,830,
3,559,806,377,522,816,
3,551,791,374,516,804,
2,545,779,371,509,792,
2,539,768,368,504,780,
2,533,833,374,499,769,
2,527,865,377,494,759,
2,519,851,374,488,748,
2,515,838,369,483,735,
2,509,824,366,479,760,
2,519,812,363,537,828,
2,543,799,359,531,815,
2,536,784,357,526,802,
1,531,774,354,519,791,
2,525,763,352,513,779,
2,519,884,393,508,768,
1,513,884,390,502,757,
1,507,868,385,497,747,
2,501,854,381,492,734,
1,496,840,377,487,816,
1,551,828,374,537,824,
1,551,815,371,531,812,
1,543,799,367,526,799,
1,537,787,364,519,787,
1,531,775,360,513,775,
1,526,884,400,508,764,
1,519,868,396,502,753,
1,513,854,391,497,743,
1,508,840,387,492,731,
1,502,828,384,539,834,
1,595,815,380,548,819,
1,587,802,377,542,807,
1,579,787,374,536,794,
1,572,775,370,527,783,
1,566,765,367,523,771,
1,560,859,427,517,760,
1,553,844,422,512,750,
1,545,831,416,506,739,
1,540,817,412,500,728,
1,534,806,408,560,831,
0,585,792,404,551,818,
1,578,781,400,545,806,
0,572,768,397,540,793,
0,564,756,393,531,782,
0,558,771,390,527,771,
0,551,868,425,520,760,
0,545,854,421,515,749,
1,538,839,415,510,739,
0,532,826,412,504,727,
0,527,815,408,558,824,
0,551,801,404,551,812,
0,544,790,399,543,799,
0,539,775,396,538,787,
0,532,764,393,531,775,
0,527,847,391,525,765,
0,521,885,399,519,754,
0,515,869,395,514,743,
0,509,855,391,508,734,
0,504,841,387,504,754,
0,499,828,384,558,820,
0,547,815,380,551,807,
0,540,803,376,544,796,
0,535,788,374,537,783,
0,528,777,371,531,772,
0,523,874,423,526,761,
0,517,903,419,519,751,
0,512,896,414,515,740,
0,505,876,408,509,731,
0,499,862,405,504,814,
0,571,849,401,559,821,
0,574,835,397,551,807,
0,567,823,393,545,796,
0,560,807,391,538,783,
0,553,795,387,532,774,
0,547,892,399,527,761,
0,541,879,396,521,751,
0,536,864,391,515,740,
0,527,850,387,510,731,
0,523,836,384,550,839,
0,551,824,380,560,825,
0,545,811,376,554,812,
0,539,799,374,547,799,
0,532,783,370,540,788,
0,527,773,367,535,777,
0,521,861,453,528,766,
0,515,847,448,523,755,
1,510,833,443,518,744,
0,504,819,436,512,732,
1,499,807,433,572,831,
0,556,795,428,563,819,
0,550,783,423,557,806,
0,543,771,420,551,793,
1,536,759,415,543,782,
0,531,793,412,537,771,
0,525,899,439,531,760,
0,519,889,434,526,749,
0,513,873,430,519,739,
0,507,859,424,515,727,
1,502,846,421,572,816,
0,572,831,416,564,803,
0,566,819,412,558,791,
0,559,807,408,551,779,
0,551,792,406,543,768,
1,546,836,401,538,757,
0,540,864,412,532,746,
0,534,850,408,527,736,
0,527,836,404,521,726,
0,521,824,399,515,748,
0,536,812,396,568,829,
0,574,799,393,561,816,
1,568,787,390,555,803,
0,560,775,386,548,792,
0,554,762,383,541,780,
0,547,871,415,536,769,
0,542,860,411,529,758,
0,536,846,407,524,747,
0,529,831,403,518,737,
0,523,819,398,513,808,
1,593,807,393,579,828,
0,597,795,391,572,814,
0,590,783,387,566,802,
0,583,771,384,559,790,
0,575,758,380,551,779,
0,569,854,409,545,768,
0,563,839,405,540,756,
0,556,825,401,534,746,
0,550,812,397,527,736,
0,543,800,392,551,841,
0,628,788,388,579,827,
0,619,777,385,572,813,
0,611,766,382,566,801,
0,604,755,379,560,789,
0,596,742,376,552,778,
0,590,897,466,546,767,
0,583,908,460,540,755,
0,575,910,455,534,745,
0,569,894,451,528,735,
0,562,876,445,590,840,
0,588,861,440,580,826,
0,580,847,436,574,813,
0,573,834,432,568,801,
0,567,821,428,561,788,
0,560,807,423,553,777,
0,554,872,461,547,767,
0,548,857,455,541,755,
0,542,844,451,536,745,
0,536,830,447,530,735,
0,530,818,441,568,835,
0,534,805,438,560,822,
0,527,793,432,554,809,
0,521,782,428,547,798,
0,516,771,424,542,785,
0,511,799,422,535,775,
0,506,838,417,528,763,
0,501,824,414,523,752,
0,496,811,410,518,742,
0,491,799,406,513,732,
0,504,787,402,560,828,
0,556,775,398,553,815,
0,548,764,395,547,803,
0,542,753,391,540,791,
0,536,743,388,535,779,
0,531,859,396,527,768,
0,524,866,391,522,757,
0,519,852,387,516,747,
0,513,838,384,511,736,
0,507,825,381,506,727,
0,547,812,376,559,828,
0,541,799,374,551,815,
0,535,788,371,545,803,
0,528,776,368,540,791,
0,523,766,364,534,780,
0,518,892,408,527,768,
0,511,907,403,520,757,
0,506,911,399,515,747,
0,500,914,396,510,736,
0,495,908,391,526,783,
0,588,883,387,543,822,
0,580,868,384,536,808,
0,573,855,380,531,796,
0,566,841,376,524,785,
0,560,828,374,519,774,
0,553,902,408,512,763,
0,547,910,403,507,752,
0,541,913,399,502,742,
0,536,916,395,497,732,
0,527,913,391,539,836,
0,523,889,387,531,819,
0,517,872,384,525,807,
0,512,859,380,519,795,
0,507,846,376,514,783,
0,502,830,373,508,772,
0,496,873,409,502,760,
0,492,859,405,496,751,
0,487,845,401,492,739,
0,482,831,398,487,730,
0,476,819,393,527,824,
0,483,807,389,519,806,
0,478,795,385,515,793,
0,472,783,382,508,782,
0,468,772,379,504,771,
0,463,814,376,499,760,
0,460,886,380,492,749,
0,455,870,376,487,739,
0,451,856,372,482,728,
0,448,842,369,478,719,
0,443,829,367,476,809,
0,516,816,363,472,793,
0,510,803,359,467,782,
0,504,792,356,463,769,
0,499,780,353,459,759,
0,493,791,381,455,748,
0,487,777,473,449,737,
0,483,766,468,445,728,
0,478,755,463,441,718,
0,473,745,459,438,708,
0,467,736,454,479,801,
0,463,726,448,473,785,
0,460,716,444,468,774,
0,455,707,440,463,763,
0,451,698,435,459,752,
0,447,732,489,455,742,
0,442,720,484,448,731,
0,438,711,480,444,721,
0,434,700,475,440,711,
0,431,691,470,436,740,
0,467,683,463,472,799,
0,469,673,459,467,783,
0,463,665,455,463,771,
0,459,721,450,458,761,
0,455,896,446,454,750,
0,449,909,548,448,739,
0,444,909,539,443,729,
0,440,892,532,439,719,
0,435,874,527,435,710,
0,432,860,521,454,796,
0,506,846,514,463,803,
0,499,833,508,458,788,
0,494,820,504,453,776,
0,488,807,499,448,765,
0,483,796,494,444,754,
0,478,783,569,440,743,
0,473,771,582,434,733,
0,468,760,574,431,723,
0,463,750,568,427,713,
0,459,740,561,463,811,
0,596,729,553,458,798,
0,588,719,547,453,782,
0,581,711,542,448,771,
0,574,702,536,444,760,
0,568,694,531,440,750,
0,561,896,624,435,739,
0,555,903,615,430,728,
0,548,888,608,426,718,
0,543,871,601,422,709,
0,537,858,595,456,806,
0,580,844,585,451,792,
0,573,831,579,447,777,
0,566,818,573,442,766,
0,560,806,568,438,755,
0,553,900,561,433,744,
0,547,910,555,428,734,
0,541,914,550,423,724,
0,536,916,543,420,715,
0,529,919,539,416,705,
0,524,919,534,431,799,
0,518,904,527,427,787,
0,512,878,521,422,772,
0,507,864,516,418,761,
0,502,851,511,414,751,
0,497,893,577,411,739,
0,492,908,609,407,729,
0,487,912,601,403,719,
0,483,914,595,399,710,
0,478,907,588,396,712,
0,473,881,581,395,768,
0,467,867,573,391,755,
0,463,853,567,388,742,
0,459,839,561,385,731,
0,455,827,555,382,721,
0,451,815,589,380,711,
0,446,799,638,376,702,
0,442,788,630,372,692,
0,439,777,622,369,684,
0,435,768,615,384,764,
0,492,756,608,408,763,
0,534,746,600,404,748,
0,527,736,592,399,737,
0,521,727,585,396,728,
0,516,718,579,392,717,
0,511,895,573,389,707,
0,504,908,568,384,697,
0,499,899,561,381,689,
0,494,879,556,377,679,
0,489,864,550,428,775,
0,636,851,544,422,761,
0,702,837,537,417,748,
0,692,824,532,413,737,
0,684,812,527,409,727,
0,675,899,521,406,717,
0,666,908,517,401,707,
0,658,913,512,396,697,
0,650,914,507,393,688,
0,642,903,503,390,679,
0,635,880,499,443,789,
0,809,864,494,438,776,
0,831,851,487,433,761,
0,819,838,483,428,751,
0,807,825,479,423,740,
0,795,812,475,420,729,
0,783,801,471,415,719,
0,773,787,467,411,711,
0,763,775,463,408,701,
0,752,765,459,403,691,
0,747,755,455,440,786,
0,870,744,451,435,774,
0,852,734,446,431,760,
0,839,771,442,427,748,
0,826,897,439,423,738,
0,814,883,499,419,728,
0,802,868,622,415,718,
0,791,850,614,409,708,
0,780,836,606,406,699,
0,769,824,600,402,711,
0,760,812,592,448,784,
0,891,799,585,444,772,
0,871,788,577,440,759,
0,857,776,571,435,748,
0,844,766,565,431,737,
0,831,888,559,427,727,
0,819,905,553,422,717,
0,807,907,547,417,707,
0,796,887,542,413,697,
0,785,871,536,428,769,
0,839,857,531,455,780,
0,860,844,526,450,768,
0,842,830,519,446,755,
0,830,818,515,441,743,
0,817,806,510,436,734,
0,806,824,505,433,723,
0,794,903,499,428,713,
0,783,911,496,423,704,
0,772,914,491,419,696,
0,761,913,487,440,793,
0,752,891,481,435,780,
0,740,873,478,431,768,
0,731,860,472,427,755,
0,721,846,467,423,743,
0,712,833,463,419,734,
0,704,903,619,415,723,
0,696,910,610,411,713,
0,687,913,603,406,704,
0,679,915,595,402,695,
0,671,908,590,399,782,
0,831,881,583,396,769,
0,817,867,575,391,758,
0,804,853,568,389,743,
0,793,839,562,386,734,
0,782,827,556,383,723,
0,771,898,550,379,713,
0,760,908,543,376,704,
0,750,913,539,371,695,
0,739,916,534,369,686,
0,731,919,528,376,773,
0,721,919,523,371,761,
0,710,918,518,368,750,
0,700,912,511,364,736,
0,692,900,507,362,727,
0,684,909,561,359,716,
0,675,913,553,356,707,
0,668,911,547,354,697,
0,659,885,541,351,688,
0,652,871,536,348,688,
0,708,857,529,371,775,
0,829,843,524,368,764,
0,812,831,519,364,752,
0,800,818,512,361,739,
0,789,806,507,358,728,
0,778,896,524,355,719,
0,768,908,519,352,708,
0,756,912,513,348,700,
0,746,916,508,345,690,
0,736,917,502,344,755,
0,753,911,497,353,773,
0,795,883,492,350,761,
0,780,868,487,347,751,
0,769,899,482,344,737,
0,758,909,478,341,728,
0,748,913,647,339,717,
0,737,915,660,335,707,
0,728,918,652,333,697,
0,718,920,643,330,689,
0,710,920,636,335,774,
0,849,915,628,331,761,
0,882,884,621,327,750,
0,864,870,614,326,739,
0,851,856,605,323,726,
0,838,843,599,321,716,
0,825,830,591,319,707,
0,813,817,585,316,696,
0,801,803,579,314,688,
0,790,792,573,312,679,
0,780,780,568,327,769,
0,896,769,561,324,758,
0,909,759,556,321,746,
0,903,748,550,319,736,
0,883,738,543,316,723,
0,869,851,538,313,713,
0,856,903,591,311,704,
0,843,910,583,308,694,
0,830,915,577,306,685,
0,819,917,571,304,676,
0,807,918,564,321,748,
0,900,907,558,318,737,
0,887,880,551,315,727,
0,868,865,546,312,716,
0,855,896,539,310,704,
0,842,906,562,307,695,
0,830,911,628,304,685,
0,817,914,620,302,676,
0,806,918,613,300,668,
0,794,920,606,297,664,
0,783,920,600,295,740,
0,877,916,591,294,729,
0,888,888,585,292,719,
0,870,871,577,290,710,
0,856,858,572,287,697,
0,843,897,566,286,688,
0,830,908,560,284,679,
0,817,912,553,283,670,
0,806,915,547,280,662,
0,795,913,542,279,657,
0,783,888,536,276,649,
0,774,872,531,275,641,
0,763,859,526,273,635,
0,751,846,519,271,627,
0,740,831,515,270,619,
0,732,820,510,268,611,
0,722,807,505,267,604,
0,713,796,500,265,598,
0,704,782,496,263,591,
0,696,771,492,261,633,
0,688,761,487,259,624,
0,679,751,483,258,615,
0,671,740,479,255,608,
0,662,731,473,255,601,
0,655,721,469,254,591,
0,647,712,465,252,585,
0,639,856,461,250,579,
0,633,903,456,248,572,
0,627,888,453,248,567,
0,620,872,449,245,616,
0,613,858,446,243,608,
0,606,844,441,242,600,
0,600,831,438,240,593,
0,592,825,433,240,585,
0,587,812,430,238,577,
0,580,803,427,236,570,
0,575,792,423,235,563,
0,568,780,419,233,558,
0,563,767,416,231,551,
0,558,755,413,231,587,
0,551,745,409,229,579,
0,547,735,407,227,572,
0,542,726,403,227,566,
0,536,896,399,225,559,
0,530,908,444,224,551,
0,525,911,544,223,544,
0,519,915,537,221,540,
0,515,917,531,220,534,
0,511,918,526,217,528,
0,506,907,520,217,578,
0,502,907,515,216,571,
0,497,911,510,214,563,
0,493,915,504,213,557,
0,487,918,498,211,551,
0,483,915,493,211,543,
0,479,895,488,209,536,
0,475,907,483,207,531,
0,471,911,479,207,525,
0,467,916,475,206,566,
0,463,916,470,204,577,
0,459,908,465,204,571,
0,455,881,461,201,563,
0,451,867,456,200,556,
0,446,854,451,199,550,
0,443,886,560,199,543,
0,439,870,552,198,536,
0,435,856,546,196,530,
0,432,841,540,195,524,
0,428,825,534,193,580,
0,424,814,527,192,572,
0,422,801,523,192,565,
0,418,790,517,190,558,
0,415,793,512,190,551,
0,411,902,505,188,543,
0,408,909,500,187,537,
0,404,913,495,186,531,
0,401,916,491,185,525,
0,398,918,486,184,519,
0,395,912,481,183,590,
0,391,884,476,182,582,
0,389,870,472,180,574,
0,386,856,467,179,568,
0,384,842,463,179,560,
0,380,883,459,178,552,
0,377,905,624,176,546,
0,374,911,615,176,540,
0,371,914,608,175,534,
0,368,916,600,174,527,
0,366,907,593,172,593,
0,364,880,587,172,585,
0,360,866,579,171,578,
0,358,852,574,169,572,
0,355,839,568,168,564,
0,352,827,560,167,556,
0,350,814,554,167,550,
0,348,802,548,166,543,
0,345,791,543,165,537,
0,343,780,537,164,531,
0,340,766,531,163,595,
0,337,755,527,162,588,
0,335,745,521,161,580,
0,333,740,516,160,574,
0,331,885,511,159,567,
0,327,870,604,159,558,
0,326,855,625,158,551,
0,323,840,617,157,545,
0,321,828,611,156,539,
0,319,815,604,155,569,
0,317,799,596,155,591,
0,315,788,590,153,583,
0,312,776,583,152,575,
0,311,766,576,152,569,
0,308,755,571,151,563,
0,306,744,563,150,555,
0,304,735,557,149,548,
0,302,724,551,148,542,
0,300,716,545,147,536,
0,298,707,540,147,604,
0,295,696,535,145,595,
0,295,687,529,145,588,
0,292,679,524,144,580,
0,291,670,519,143,574,
0,287,662,514,143,567,
0,287,655,579,142,559,
0,284,647,572,141,551,
0,283,639,565,140,545,
0,280,632,559,140,540,
0,280,625,553,139,600,
0,278,615,547,137,592,
0,275,609,540,137,585,
0,273,603,536,136,578,
0,272,596,529,135,571,
0,270,590,524,135,564,
0,268,744,518,134,556,
0,267,733,512,134,550,
0,265,722,508,133,543,
0,263,711,502,132,537,
0,262,703,497,131,606,
0,259,689,492,131,598,
0,258,680,487,129,590,
0,257,671,483,129,583,
0,255,664,480,128,575,
0,254,716,476,127,569,
0,252,896,575,127,560,
0,250,907,568,127,554,
0,248,905,561,126,547,
0,248,884,555,125,542,
0,246,870,548,124,608,
0,244,852,543,124,600,
0,243,839,537,123,593,
0,241,825,531,122,585,
0,240,898,526,121,579,
0,238,905,520,120,572,
0,236,888,514,120,563,
0,235,872,509,120,557,
0,233,858,504,119,551,
0,231,844,499,119,581,
0,231,831,494,118,615,
0,230,816,489,117,607,
0,228,803,484,116,600,
0,227,792,480,115,591,
0,225,780,476,115,583,
0,224,819,472,115,577,
0,223,903,466,114,569,
0,221,910,462,113,563,
0,220,913,458,113,556,
0,219,908,454,112,631,
0,217,880,450,112,621,
0,216,865,446,111,612,
0,215,851,442,110,605,
0,214,838,439,110,598,
0,212,825,435,109,590,
0,211,880,432,108,583,
0,209,905,427,108,575,
0,208,911,423,107,568,
0,207,914,419,107,561,
0,206,911,416,107,637,
0,205,881,412,129,628,
0,204,867,409,127,620,
0,203,854,406,127,611,
0,201,893,403,126,604,
0,199,907,399,124,597,
0,199,911,502,124,590,
0,198,915,494,123,581,
0,196,915,487,121,574,
0,195,902,483,121,568,
0,194,879,479,148,652,
0,193,860,473,146,643,
0,192,847,468,144,636,
0,191,835,463,143,627,
0,190,822,460,142,619,
0,189,809,455,141,611,
0,188,798,450,140,604,
0,187,787,445,139,595,
0,185,775,440,137,588,
0,184,764,436,136,582,
0,184,854,433,163,657,
0,237,835,429,161,648,
0,235,822,425,159,639,
0,231,809,422,158,632,
0,231,796,417,156,624,
0,228,785,414,156,616,
0,226,881,409,154,609,
0,224,905,406,153,600,
0,222,911,402,152,592,
0,220,915,399,151,597,
0,219,915,396,152,655,
0,217,892,392,151,647,
0,216,875,390,148,638,
0,214,903,387,147,630,
0,211,911,384,146,622,
0,211,914,430,145,614,
0,208,911,444,144,607,
0,207,889,440,143,598,
0,205,873,435,142,591,
0,204,859,431,141,657,
0,202,846,427,140,660,
0,200,830,423,139,652,
0,199,817,419,138,643,
0,198,805,415,137,635,
0,196,793,411,135,627,
0,195,782,408,135,619,
0,193,771,403,134,611,
0,192,760,399,133,602,
0,190,750,396,131,595,
0,189,740,391,131,678,
0,188,731,388,133,667,
0,187,719,385,131,658,
0,185,710,391,131,649,
0,184,700,420,129,641,
0,183,736,415,128,633,
0,182,896,504,127,625,
0,180,886,496,127,617,
0,179,870,492,126,608,
0,178,856,486,125,600,
0,177,841,481,125,675,
0,176,828,476,124,664,
0,175,813,472,123,655,
0,174,801,467,122,647,
0,173,789,462,121,639,
0,172,788,457,120,632,
0,172,901,454,120,623,
0,170,909,448,119,615,
0,169,911,444,118,606,
0,167,896,440,117,600,
0,167,877,435,145,676,
0,167,862,432,143,668,
0,166,845,428,142,659,
0,164,890,423,141,649,
0,163,907,420,140,641,
0,163,912,447,139,633,
0,161,915,510,137,625,
0,160,916,502,135,617,
0,159,911,496,135,608,
0,159,885,492,135,614,
0,158,871,487,162,683,
0,157,856,481,159,672,
0,156,839,476,158,664,
0,156,827,472,157,655,
0,155,815,467,156,647,
0,153,803,463,155,638,
0,153,792,458,153,631,
0,152,780,452,152,621,
0,151,769,448,151,614,
0,151,826,444,150,674,
0,150,880,440,183,683,
0,148,865,436,181,673,
0,147,847,432,179,664,
0,147,834,428,177,655,
0,146,821,423,176,647,
0,145,808,420,175,639,
0,144,796,417,174,631,
0,143,784,412,172,621,
0,143,774,409,171,614,
0,142,763,406,169,688,
0,141,752,402,195,676,
0,140,742,399,192,668,
0,140,729,395,191,659,
0,139,720,391,189,650,
0,139,717,388,188,642,
0,137,897,385,185,633,
0,137,908,382,184,626,
0,135,908,379,183,616,
0,135,889,376,182,609,
0,135,873,373,199,696,
0,134,859,370,198,686,
0,133,845,368,195,675,
0,132,829,364,193,667,
0,131,900,361,192,658,
0,131,909,359,191,651,
0,130,913,460,188,641,
0,129,916,455,187,633,
0,128,918,448,185,624,
0,127,914,444,184,615,
0,127,889,440,184,684,
0,127,872,435,183,674,
0,126,859,431,180,665,
0,125,842,427,179,656,
0,124,891,423,178,647,
0,124,900,419,176,639,
0,123,882,415,175,632,
0,123,867,412,174,624,
0,121,854,407,172,615,
0,121,839,403,172,614,
0,120,827,399,175,671,
0,120,814,396,173,663,
0,120,803,391,172,654,
0,119,889,389,170,646,
0,118,907,385,169,637,
0,118,911,415,167,630,
0,117,907,467,167,622,
0,116,911,462,165,614,
0,115,915,455,164,604,
0,115,915,451,163,659,
0,114,903,447,176,669,
0,113,879,443,175,659,
0,113,864,439,174,651,
0,112,847,434,172,643,
0,112,834,467,171,635,
0,111,822,552,169,627,
0,111,809,563,167,619,
0,110,798,556,167,611,
0,109,786,547,166,603,
0,108,775,542,164,696,
0,108,764,536,192,685,
0,108,754,530,191,676,
0,107,743,525,189,667,
0,107,732,519,187,658,
0,105,723,514,185,649,
0,105,713,509,184,641,
0,104,704,504,183,633,
0,103,696,499,182,625,
0,103,687,493,179,616,
0,103,679,488,190,705,
0,102,670,483,199,696,
0,102,662,479,196,686,
0,101,655,475,195,676,
0,101,645,470,193,668,
0,100,849,466,192,659,
0,99,855,498,190,651,
0,99,840,492,188,642,
0,99,830,487,188,634,
0,98,817,483,185,627,
0,97,804,478,185,713,
0,97,792,472,203,703,
0,96,780,467,201,692,
0,96,769,463,199,684,
0,96,759,460,198,674,
0,95,748,455,196,668,
0,95,871,486,195,659,
0,94,904,483,193,651,
0,94,911,478,192,643,
0,94,915,473,190,635,
0,93,917,468,189,689,
0,92,918,463,217,708,
0,92,913,459,216,699,
0,91,886,455,214,689,
0,91,871,450,212,679,
0,90,857,446,210,671,
0,90,903,512,208,663,
0,89,910,506,207,654,
0,88,914,500,205,646,
0,88,916,496,204,639,
0,88,916,491,202,632,
0,88,904,486,228,719,
0,87,879,481,226,708,
0,87,864,476,224,698,
0,87,851,472,223,689,
0,86,838,468,220,679,
0,86,825,463,219,671,
0,84,816,460,217,663,
0,84,804,455,216,654,
0,83,792,451,214,646,
0,83,782,447,212,638,
0,83,771,443,216,713,
0,121,760,439,215,703,
0,222,750,435,212,693,
0,219,739,431,211,684,
0,216,728,427,209,675,
0,215,718,423,207,666,
0,213,794,419,206,657,
0,211,781,415,204,649,
0,209,803,412,203,641,
0,207,790,408,201,647,
0,206,777,406,223,710,
0,204,766,401,220,700,
0,203,755,398,219,690,
0,200,743,396,216,681,
0,199,732,391,215,671,
0,198,887,499,212,664,
0,195,905,536,211,655,
0,194,911,529,209,647,
0,193,914,523,207,639,
0,191,911,515,206,701,
0,190,886,510,217,697,
0,188,870,504,216,688,
0,187,856,499,214,679,
0,185,843,495,211,670,
0,184,827,489,209,661,
0,183,815,489,207,652,
0,182,803,483,206,644,
0,180,791,480,205,636,
0,179,780,475,203,628,
0,177,769,470,201,705,
0,176,758,464,227,695,
0,175,748,460,225,685,
0,174,737,455,224,675,
0,172,728,451,222,667,
0,171,716,448,220,659,
0,169,889,596,217,649,
0,168,873,624,216,641,
0,167,859,616,215,633,
0,166,844,609,212,625,
0,167,831,601,241,691,
0,302,819,593,240,681,
0,297,806,587,238,671,
0,295,794,580,236,663,
0,291,783,574,233,654,
0,289,768,568,231,646,
0,287,758,625,230,638,
0,284,747,633,227,630,
0,281,737,625,225,622,
0,279,728,617,224,615,
0,276,718,609,240,675,
0,379,708,601,238,665,
0,374,699,595,236,655,
0,369,691,588,233,647,
0,366,682,582,231,639,
0,363,671,575,230,632,
0,359,664,569,227,624,
0,355,655,563,225,615,
0,352,647,558,224,609,
0,348,639,551,222,601,
0,345,792,545,231,671,
0,343,779,540,230,662,
0,339,768,534,228,653,
0,336,755,528,226,644,
0,334,745,524,224,637,
0,332,891,575,222,628,
0,327,906,614,220,620,
0,326,911,606,219,613,
0,323,915,600,217,606,
0,319,915,592,216,599,
0,317,903,583,236,686,
0,315,878,577,234,676,
0,312,864,571,231,668,
0,310,851,564,231,659,
0,307,891,559,228,650,
0,305,870,553,226,642,
0,303,856,547,224,633,
0,300,842,541,222,626,
0,297,829,536,220,619,
0,295,816,531,219,664,
0,292,804,524,240,697,
0,291,793,519,238,688,
0,287,782,514,236,679,
0,286,771,509,233,669,
0,284,760,504,231,660,
0,282,851,518,230,652,
0,280,903,512,227,643,
0,278,911,507,225,636,
0,275,913,502,224,628,
0,273,911,496,233,676,
0,271,888,491,238,664,
0,269,872,487,236,655,
0,267,859,482,233,647,
0,265,845,478,231,638,
0,263,829,473,230,631,
0,262,817,519,227,622,
0,259,804,513,225,615,
0,257,793,508,224,608,
0,255,782,502,222,600,
0,254,771,497,239,688,
0,252,760,491,237,675,
0,250,750,486,235,666,
0,248,739,480,233,657,
0,247,730,476,231,649,
0,245,718,472,229,639,
0,243,708,467,227,632,
0,241,700,463,225,625,
0,240,691,459,224,617,
0,238,683,455,222,610,
0,236,675,451,240,693,
0,235,666,446,238,679,
0,233,658,442,236,671,
0,231,651,439,233,662,
0,230,643,435,231,654,
0,228,848,431,230,646,
0,227,833,428,227,637,
0,225,819,423,226,629,
0,224,807,420,224,622,
0,223,795,417,222,614,
0,220,783,414,250,697,
0,219,771,409,248,684,
0,217,760,407,245,675,
0,216,750,403,243,667,
0,215,739,399,241,658,
0,214,893,475,239,649,
0,211,878,521,236,641,
0,211,863,515,235,633,
0,209,848,510,233,625,
0,207,835,504,231,671,
0,206,822,497,260,717,
0,205,809,492,258,704,
0,204,798,487,255,695,
0,203,785,483,254,686,
0,200,775,478,252,676,
0,199,761,515,249,668,
0,199,751,509,247,659,
0,197,774,504,244,651,
0,195,763,498,243,643,
0,195,751,493,241,715,
0,193,740,487,240,704,
0,192,731,481,238,691,
0,191,721,477,236,682,
0,190,711,472,234,673,
0,188,702,467,231,664,
0,187,691,485,231,655,
0,185,703,480,228,647,
0,184,758,475,227,639,
0,184,745,470,225,632,
0,182,736,465,236,702,
0,180,724,459,234,691,
0,179,715,455,231,679,
0,179,704,451,231,671,
0,177,695,447,228,662,
0,176,686,443,227,654,
0,176,675,476,225,645,
0,174,667,471,223,637,
0,173,659,465,220,630,
0,172,651,461,219,622,
0,171,643,456,231,705,
0,169,636,451,228,695,
0,168,628,447,227,683,
0,167,621,441,225,673,
0,167,615,438,223,665,
0,166,719,455,222,656,
0,164,900,593,219,647,
0,163,905,587,217,639,
0,163,888,579,216,632,
0,161,871,572,214,624,
0,160,857,567,253,704,
0,159,844,558,251,694,
0,158,830,551,248,681,
0,158,861,546,246,672,
0,156,904,540,243,664,
0,156,911,535,242,655,
0,155,915,529,240,647,
0,153,913,524,238,639,
0,153,891,519,236,632,
0,152,873,513,234,655,
0,151,860,508,265,704,
0,150,846,502,263,694,
0,148,899,497,259,681,
0,147,909,493,257,672,
0,147,913,487,255,664,
0,146,915,645,254,655,
0,145,918,663,251,647,
0,144,919,654,248,639,
0,143,921,646,247,632,
0,143,921,638,246,719,
0,142,918,631,255,716,
0,140,887,622,254,704,
0,140,871,615,252,694,
0,139,857,608,249,684,
0,138,844,600,248,675,
0,137,831,594,246,667,
0,136,816,588,243,658,
0,135,804,582,241,650,
0,135,793,575,239,642,
0,135,782,569,268,726,
0,134,771,563,265,715,
0,132,760,556,263,702,
0,131,751,551,260,693,
0,131,740,545,259,684,
0,130,731,540,255,675,
0,129,839,535,254,665,
0,128,864,529,252,657,
0,127,850,524,249,649,
0,127,835,519,248,641,
0,126,824,515,255,729,
0,126,810,510,254,719,
0,124,798,504,252,707,
0,124,786,499,249,696,
0,124,775,494,248,688,
0,123,764,490,246,679,
0,122,753,486,243,670,
0,121,740,481,241,661,
0,120,731,477,239,652,
0,120,721,472,237,644,
0,120,711,468,239,719,
0,230,702,464,236,707,
0,227,694,459,235,696,
0,224,685,455,232,686,
0,222,862,451,231,677,
0,220,904,553,230,668,
0,218,910,546,227,659,
0,216,915,540,225,651,
0,215,917,534,224,643,
0,213,917,527,222,652,
0,211,903,523,263,710,
0,209,878,516,261,700,
0,207,864,510,259,688,
0,206,850,504,255,679,
0,204,837,499,255,670,
0,203,899,557,252,660,
0,201,908,550,250,652,
0,199,911,543,248,644,
0,198,905,537,246,636,
0,196,881,531,244,710,
0,195,867,526,254,701,
0,193,852,519,252,691,
0,192,839,513,249,679,
0,190,827,508,248,671,
0,189,818,504,246,662,
0,188,903,498,243,654,
0,187,910,493,241,645,
0,184,915,488,239,637,
0,184,918,483,237,630,
0,183,919,480,248,716,
0,181,913,474,245,705,
0,179,885,470,243,696,
0,178,870,464,240,684,
0,176,856,460,239,675,
0,176,843,455,237,665,
0,174,903,451,235,657,
0,173,910,448,233,648,
0,172,911,444,231,641,
0,171,892,440,230,633,
0,169,875,436,254,704,
0,167,860,433,252,694,
0,167,846,429,249,684,
0,166,833,425,247,672,
0,164,820,422,245,664,
0,163,808,432,243,655,
0,162,797,542,241,647,
0,161,785,536,239,639,
0,159,772,529,236,631,
0,159,761,524,235,624,
0,158,752,518,255,696,
0,172,742,512,254,686,
0,171,732,507,252,676,
0,169,891,500,249,665,
0,167,907,496,248,657,
0,167,911,491,246,648,
0,165,912,486,243,639,
0,163,899,481,241,632,
0,163,873,476,239,624,
0,161,860,472,237,636,
0,159,847,467,252,699,
0,159,832,463,249,688,
0,158,820,459,248,679,
0,156,807,454,245,668,
0,156,796,449,243,659,
0,154,807,446,241,651,
0,153,902,441,240,643,
0,152,910,438,238,635,
0,151,914,433,235,627,
0,150,912,430,236,696,
0,149,889,426,261,696,
0,148,873,422,259,687,
0,147,859,419,256,678,
0,145,846,414,255,667,
0,144,896,411,252,658,
0,143,908,408,250,649,
0,143,912,404,248,641,
0,142,915,401,246,633,
0,141,904,398,243,625,
0,140,880,396,268,704,
0,235,865,391,263,693,
0,231,851,388,262,684,
0,227,838,385,259,674,
0,225,825,382,257,663,
0,224,813,379,255,654,
0,222,801,376,253,646,
0,220,790,374,251,638,
0,218,775,371,249,630,
0,216,765,368,247,622,
0,215,755,365,264,696,
0,213,743,363,263,686,
0,211,734,359,260,676,
0,209,724,357,258,668,
0,207,715,354,255,656,
0,206,706,352,254,648,
0,204,697,376,252,639,
0,203,688,372,249,632,
0,201,678,369,248,624,
0,199,670,366,244,616,
0,199,663,362,271,696,
0,263,654,359,268,687,
0,259,647,355,265,678,
0,256,639,352,263,668,
0,254,632,350,262,657,
0,252,855,412,259,649,
0,250,903,440,257,639,
0,248,910,435,255,632,
0,246,909,431,252,625,
0,243,886,427,251,630,
0,284,871,423,271,701,
0,345,857,419,268,691,
0,342,844,415,266,681,
0,337,830,409,263,671,
0,334,817,406,262,662,
0,332,872,493,259,653,
0,327,867,528,257,644,
0,326,853,522,255,636,
0,323,836,516,253,629,
0,319,823,511,251,688,
0,317,811,505,275,704,
0,314,798,500,271,694,
0,312,787,496,270,684,
0,308,775,489,267,675,
0,306,765,484,265,664,
0,304,755,480,263,655,
0,301,743,475,260,647,
0,299,734,470,259,639,
0,295,722,465,255,632,
0,294,713,462,287,719,
0,404,704,457,285,707,
0,433,695,452,282,696,
0,428,686,448,280,688,
0,423,678,444,278,678,
0,419,670,440,275,668,
0,415,888,435,272,658,
0,411,904,432,270,650,
0,407,897,428,268,642,
0,403,873,423,266,633,
0,399,860,420,301,711,
0,396,846,417,297,702,
0,391,831,413,295,692,
0,388,819,409,291,683,
0,384,807,406,289,673,
0,381,796,402,287,663,
0,377,899,453,284,654,
0,375,908,448,282,646,
0,371,909,444,280,638,
0,368,884,440,277,630,
0,366,870,435,304,714,
0,371,856,431,300,704,
0,368,842,427,297,694,
0,364,829,423,295,684,
0,359,816,417,292,675,
0,357,836,414,290,664,
0,354,903,451,287,655,
0,352,910,446,285,647,
0,348,912,441,283,639,
0,345,901,437,280,632,
0,344,879,433,305,718,
0,344,864,428,302,707,
0,341,850,424,300,697,
0,338,837,420,297,688,
0,335,824,415,295,679,
0,332,812,419,291,667,
0,329,799,415,289,659,
0,327,788,412,287,650,
0,324,777,408,284,643,
0,321,764,403,281,689,
0,325,753,400,303,715,
0,322,743,397,300,704,
0,319,733,393,297,695,
0,317,723,391,295,685,
0,313,715,386,292,674,
0,312,812,472,289,664,
0,310,799,466,287,656,
0,307,786,461,284,647,
0,305,775,456,283,639,
0,303,760,451,300,724,
0,335,750,448,303,712,
0,345,739,443,300,703,
0,342,728,439,297,693,
0,339,719,435,295,684,
0,335,708,429,292,672,
0,332,700,533,289,664,
0,329,691,526,287,655,
0,326,683,520,285,647,
0,323,674,515,283,639,
0,320,664,510,301,723,
0,425,655,504,298,711,
0,419,647,499,295,702,
0,415,639,494,292,692,
0,411,633,488,290,683,
0,406,626,483,287,671,
0,401,619,507,286,664,
0,398,612,502,283,655,
0,395,606,496,280,647,
0,391,600,491,279,639,
0,387,591,487,289,717,
0,384,584,481,287,706,
0,380,579,476,284,696,
0,376,572,472,281,687,
0,374,567,467,280,678,
0,369,561,462,277,667,
0,366,556,457,275,658,
0,363,550,453,273,649,
0,359,543,448,271,641,
0,358,539,444,268,633,
0,403,532,441,292,711,
0,455,527,436,289,702,
0,449,522,433,287,691,
0,445,517,429,284,683,
0,440,512,425,282,673,
0,435,508,420,280,663,
0,431,503,417,278,654,
0,427,498,414,275,646,
0,423,494,410,273,638,
0,419,489,407,271,681,
0,415,483,403,306,705,
0,412,480,399,303,696,
0,408,475,396,300,685,
0,403,471,393,297,676,
0,399,467,390,295,667,
0,396,463,446,292,656,
0,391,489,440,290,648,
0,388,597,436,287,639,
0,385,588,432,286,632,
0,382,580,428,283,711,
0,380,572,423,327,700,
0,376,564,419,323,691,
0,372,558,415,320,680,
0,369,551,412,318,671,
0,366,618,408,315,664,
0,363,807,444,312,652,
0,359,792,440,310,644,
0,357,780,435,307,636,
0,354,768,430,304,628,
0,352,758,427,312,711,
0,348,743,422,326,700,
0,345,733,417,323,690,
0,343,723,414,319,680,
0,340,793,410,317,671,
0,337,861,406,314,664,
0,335,847,440,312,652,
0,332,833,435,308,644,
0,329,820,431,306,636,
0,327,807,427,304,628,
0,324,796,423,319,719,
0,445,781,419,316,707,
0,440,770,415,312,697,
0,435,759,411,310,688,
0,431,748,407,307,679,
0,425,738,403,305,670,
0,421,728,399,302,659,
0,417,719,395,300,651,
0,413,709,391,297,643,
0,409,700,388,295,635,
0,412,692,385,339,724,
0,502,679,382,333,713,
0,496,671,379,330,704,
0,490,664,376,327,695,
0,485,759,373,324,684,
0,479,821,376,321,676,
0,473,807,450,319,664,
0,468,795,445,316,655,
0,463,783,440,313,647,
0,460,771,435,311,678,
0,504,761,432,335,728,
0,519,747,427,331,718,
0,512,736,423,327,707,
0,507,727,419,324,697,
0,502,716,415,321,688,
0,495,707,412,319,679,
0,489,697,438,316,668,
0,485,688,433,313,660,
0,480,679,429,311,652,
0,476,671,425,308,739,
0,471,662,421,332,733,
0,466,653,417,327,723,
0,462,646,413,325,712,
0,457,638,409,322,703,
0,453,631,406,319,694,
0,448,624,479,316,684,
0,444,616,472,313,673,
0,440,609,466,312,664,
0,435,603,462,308,655,
0,432,596,457,313,745,
0,508,588,452,340,733,
0,501,582,448,336,722,
0,496,575,444,333,711,
0,491,569,440,331,702,
0,486,563,435,327,694,
0,479,558,465,324,684,
0,474,551,460,321,673,
0,470,546,455,319,664,
0,464,540,450,316,655,
0,460,536,446,344,743,
0,455,529,441,340,732,
0,451,524,436,336,722,
0,448,519,432,333,711,
0,443,513,428,331,702,
0,439,582,424,327,693,
0,433,628,420,324,684,
0,430,620,415,321,671,
0,425,612,412,319,664,
0,422,604,408,316,655,
0,430,598,404,315,728,
0,478,588,401,312,718,
0,472,580,398,309,708,
0,467,574,394,307,699,
0,463,568,391,304,689,
0,458,616,387,302,679,
0,452,843,384,299,671,
0,448,828,380,296,660,
0,444,814,377,295,652,
0,440,801,374,292,671,
0,435,790,371,326,719,
0,431,775,368,323,710,
0,427,764,365,319,700,
0,423,753,362,316,690,
0,419,743,359,313,681,
0,415,733,403,312,672,
0,411,830,480,308,664,
0,408,816,476,305,652,
0,403,803,470,303,644,
0,400,792,465,301,723,
0,494,780,460,331,711,
0,487,765,455,327,701,
0,481,755,451,323,691,
0,476,743,447,321,681,
0,472,734,443,318,673,
0,467,889,478,316,664,
0,460,905,471,312,655,
0,455,907,465,310,646,
0,451,888,460,307,638,
0,448,871,455,307,703,
0,555,857,451,339,692,
0,547,840,448,335,683,
0,540,828,443,332,673,
0,534,816,439,328,664,
0,527,803,434,326,655,
0,523,856,430,323,647,
0,515,842,425,319,639,
0,510,828,422,318,630,
0,504,816,417,315,622,
0,499,803,414,360,719,
0,527,792,410,357,707,
0,521,777,407,352,697,
0,515,854,403,350,688,
0,510,844,399,346,679,
0,504,830,396,344,671,
0,499,896,440,340,662,
0,493,908,433,337,653,
0,487,911,429,334,643,
0,483,904,425,332,635,
0,479,882,421,350,718,
0,535,866,417,345,707,
0,528,849,413,342,697,
0,523,836,408,339,688,
0,516,824,405,335,679,
0,511,889,406,333,670,
0,505,875,524,330,661,
0,499,860,515,327,652,
0,494,846,510,324,643,
0,489,832,504,322,654,
0,484,820,499,352,713,
0,480,807,494,349,703,
0,475,792,488,344,693,
0,471,782,483,342,684,
0,466,771,479,339,675,
0,462,760,475,335,666,
0,457,831,470,332,657,
0,451,818,463,329,649,
0,448,806,460,327,639,
0,444,793,455,324,716,
0,440,782,451,339,724,
0,436,770,447,336,713,
0,432,756,443,332,704,
0,428,745,439,329,695,
0,424,736,435,327,685,
0,422,860,536,323,675,
0,417,859,549,321,667,
0,413,844,541,318,656,
0,409,831,535,316,648,
0,406,818,529,313,723,
0,403,806,523,319,711,
0,399,793,518,316,701,
0,396,779,512,312,691,
0,392,768,507,311,683,
0,390,756,502,307,673,
0,387,747,595,305,664,
0,384,736,603,303,655,
0,380,727,593,300,646,
0,376,717,587,299,638,
0,374,707,580,332,726,
0,371,699,574,339,715,
0,368,690,568,335,705,
0,366,679,561,332,696,
0,363,671,555,327,686,
0,359,664,549,326,678,
0,357,846,543,323,668,
0,354,831,537,319,659,
0,351,818,531,317,649,
0,348,806,526,315,641,
0,345,793,519,357,733,
0,363,781,515,353,722,
0,359,769,510,350,711,
0,356,756,505,345,702,
0,353,745,500,343,692,
0,350,736,496,339,684,
0,347,725,497,336,674,
0,344,716,492,334,665,
0,340,706,486,331,655,
0,338,697,482,327,662,
0,377,689,478,346,736,
0,476,679,472,343,725,
0,471,671,468,339,715,
0,465,660,464,335,705,
0,460,738,460,332,696,
0,455,898,507,329,686,
0,451,908,510,327,677,
0,447,911,504,323,668,
0,441,910,497,321,657,
0,437,888,492,319,719,
0,477,872,487,357,736,
0,471,857,481,353,724,
0,465,844,477,350,715,
0,460,828,472,346,704,
0,455,816,467,344,695,
0,451,888,504,339,686,
0,447,879,497,337,676,
0,441,864,492,334,668,
0,436,850,486,331,657,
0,433,836,481,327,743,
0,433,824,476,357,732,
0,428,811,471,353,721,
0,423,799,466,350,711,
0,420,785,462,346,702,
0,417,774,457,344,692,
0,413,763,453,339,683,
0,409,752,449,337,675,
0,404,883,445,334,665,
0,401,867,440,332,655,
0,398,852,437,335,745,
0,493,839,432,334,734,
0,487,825,429,331,723,
0,481,813,425,327,713,
0,476,798,422,324,704,
0,471,786,419,322,695,
0,467,899,543,319,685,
0,462,909,536,316,675,
0,455,913,530,314,668,
0,451,915,523,312,657,
0,448,914,518,311,742,
0,443,889,512,308,730,
0,438,873,507,305,719,
0,434,860,501,304,710,
0,430,843,496,300,700,
0,426,830,492,298,691,
0,423,817,487,295,681,
0,419,806,481,294,673,
0,414,793,478,291,664,
0,410,783,472,289,654,
0,407,772,467,301,729,
0,403,761,463,299,719,
0,399,751,458,295,708,
0,396,741,454,294,699,
0,393,817,449,290,689,
0,390,805,500,287,679,
0,386,792,511,286,671,
0,384,780,505,284,663,
0,379,768,499,281,654,
0,376,757,493,280,696,
0,440,747,487,322,726,
0,451,736,483,319,715,
0,447,727,478,316,705,
0,442,715,473,313,696,
0,438,705,468,310,686,
0,433,799,568,307,676,
0,429,786,568,304,668,
0,424,774,561,302,659,
0,419,763,555,299,652,
0,415,752,547,297,746,
0,412,741,541,340,734,
0,408,731,536,337,723,
0,404,720,529,334,713,
0,400,708,524,331,704,
0,397,699,519,327,694,
0,393,830,513,324,684,
0,390,816,508,321,675,
0,387,803,504,319,667,
0,383,791,498,316,659,
0,380,779,492,329,753,
0,378,768,487,344,741,
0,375,756,483,341,730,
0,371,745,478,337,719,
0,368,733,473,335,710,
0,365,723,470,332,701,
0,363,895,480,327,691,
0,359,899,474,326,681,
0,356,880,469,323,673,
0,353,866,464,319,664,
0,351,852,460,360,748,
0,504,839,455,356,736,
0,497,825,451,353,726,
0,492,813,447,350,715,
0,487,798,443,346,705,
0,481,786,440,343,696,
0,476,775,435,339,687,
0,472,764,432,336,678,
0,467,753,428,334,669,
0,461,743,423,331,660,
0,476,735,419,377,753,
0,588,723,415,372,742,
0,580,714,412,369,731,
0,574,704,409,366,720,
0,568,694,406,362,711,
0,560,700,403,358,701,
0,555,691,399,355,691,
0,548,681,396,352,683,
0,543,672,393,349,674,
0,536,664,390,346,665,
0,530,657,387,380,736,
0,524,695,384,376,726,
0,519,684,380,371,716,
0,513,673,377,368,705,
0,508,663,375,365,696,
0,504,673,425,361,687,
0,499,864,423,358,678,
0,494,848,418,355,669,
0,488,835,414,352,660,
0,483,822,409,349,686,
0,496,808,405,387,739,
0,491,796,401,382,728,
0,486,784,398,379,718,
0,480,774,394,376,708,
0,476,814,391,371,699,
0,472,903,387,368,689,
0,467,908,384,364,679,
0,462,912,380,361,671,
0,458,915,376,358,663,
0,452,914,373,364,743,
0,620,894,369,387,731,
0,609,874,367,383,720,
0,601,860,364,379,711,
0,594,847,361,376,701,
0,588,831,359,371,691,
0,581,882,500,368,682,
0,574,866,514,364,673,
0,568,852,508,361,665,
0,562,839,503,359,656,
0,555,827,496,374,743,
0,663,814,491,369,728,
0,653,801,486,366,718,
0,644,790,480,362,707,
0,636,779,476,359,698,
0,629,901,472,355,689,
0,622,909,511,352,679,
0,614,913,505,349,671,
0,607,916,500,346,662,
0,600,915,495,344,654,
0,616,896,489,368,735,
0,710,875,483,364,720,
0,700,860,479,359,711,
0,691,847,473,357,700,
0,681,834,470,354,691,
0,673,819,465,350,682,
0,665,903,460,347,673,
0,656,909,455,344,664,
0,649,908,451,340,655,
0,641,886,448,338,647,
0,632,871,443,371,733,
0,624,856,438,368,719,
0,617,843,434,364,710,
0,611,830,431,360,700,
0,604,817,427,358,691,
0,598,903,495,353,681,
0,591,910,608,351,672,
0,584,914,600,348,664,
0,578,916,591,344,655,
0,572,916,585,342,670,
0,565,907,577,384,731,
0,559,880,571,380,719,
0,553,865,564,376,710,
0,547,852,559,373,700,
0,542,839,552,369,691,
0,537,904,635,365,681,
0,531,911,625,362,673,
0,526,914,617,359,664,
0,521,916,611,355,655,
0,516,911,604,353,732,
0,510,886,595,359,733,
0,505,870,588,355,723,
0,500,856,582,352,712,
0,496,843,575,350,703,
0,492,831,569,347,694,
0,487,896,563,343,684,
0,483,908,558,339,675,
0,478,912,551,337,667,
0,474,915,545,335,658,
0,470,915,540,339,742,
0,464,898,534,336,727,
0,460,876,527,334,716,
0,455,862,523,331,707,
0,452,848,518,327,696,
0,448,835,513,326,688,
0,444,819,508,322,679,
0,440,807,504,319,670,
0,437,796,499,317,661,
0,433,785,494,315,653,
0,430,775,490,343,741,
0,425,763,483,339,728,
0,422,752,480,335,716,
0,419,743,475,333,707,
0,415,733,471,330,697,
0,412,723,467,327,688,
0,408,711,463,323,679,
0,406,704,459,321,670,
0,402,695,455,318,662,
0,399,686,451,316,654,
0,396,678,447,348,736,
0,391,669,441,344,722,
0,388,661,439,340,711,
0,386,654,434,337,702,
0,384,646,431,335,692,
0,380,639,428,332,684,
0,377,630,423,327,675,
0,374,622,420,325,665,
0,371,615,416,323,657,
0,368,608,413,319,659,
0,365,602,410,328,729,
0,363,595,406,326,716,
0,359,589,402,323,706,
0,357,583,399,319,696,
0,355,576,396,317,688,
0,352,571,393,315,678,
0,350,563,390,312,669,
0,347,558,387,309,660,
0,344,551,384,307,652,
0,342,547,381,304,715,
0,339,541,378,317,726,
0,336,536,375,315,713,
0,334,759,371,312,703,
0,332,755,368,308,694,
0,329,785,366,306,684,
0,327,900,495,304,675,
0,325,910,487,300,666,
0,322,911,483,298,657,
0,319,896,477,295,649,
0,318,877,472,327,739,
0,315,862,467,323,728,
0,312,848,462,320,715,
0,311,835,456,318,704,
0,308,834,452,315,696,
0,307,820,463,312,686,
0,304,832,568,310,676,
0,303,816,561,306,668,
0,300,804,555,304,659,
0,298,792,549,301,651,
0,295,782,543,340,697,
0,355,770,537,336,688,
0,351,760,530,333,675,
0,348,749,524,331,667,
0,344,739,519,327,658,
0,341,729,513,324,649,
0,338,720,585,321,641,
0,335,708,577,318,633,
0,332,700,571,316,626,
0,329,691,564,312,619,
0,326,683,558,349,717,
0,323,673,551,345,707,
0,319,665,543,343,694,
0,317,657,539,339,685,
0,315,650,533,336,675,
0,312,668,547,334,667,
0,309,669,596,331,658,
0,307,660,590,327,650,
0,304,652,583,324,641,
0,302,643,575,321,636,
0,300,636,569,359,723,
0,299,627,563,355,711,
0,297,621,556,352,700,
0,295,624,551,348,691,
0,292,816,617,345,680,
0,291,803,609,342,671,
0,288,787,602,339,663,
0,287,775,595,335,655,
0,285,764,588,332,647,
0,283,753,582,332,700,
0,327,743,575,376,724,
0,322,732,569,372,714,
0,319,721,561,368,702,
0,316,711,556,365,692,
0,313,703,550,361,684,
0,311,876,562,359,673,
0,307,868,555,355,665,
0,305,854,549,352,656,
0,303,839,543,348,648,
0,300,827,537,384,755,
0,404,814,532,387,743,
0,408,801,527,383,732,
0,404,790,519,379,719,
0,400,779,515,376,708,
0,396,768,511,372,700,
0,392,899,537,369,689,
0,389,908,531,365,680,
0,385,900,526,361,671,
0,382,879,519,359,664,
0,379,865,515,372,747,
0,391,851,509,368,736,
0,387,838,504,364,724,
0,384,824,498,361,711,
0,380,812,494,358,702,
0,376,853,491,355,693,
0,373,903,529,352,684,
0,369,911,523,349,675,
0,367,914,518,345,667,
0,363,911,512,343,658,
0,359,887,507,344,743,
0,387,871,501,340,732,
0,383,856,495,337,721,
0,379,844,489,334,709,
0,376,830,486,332,700,
0,371,818,480,328,690,
0,368,806,476,327,681,
0,364,792,472,323,671,
0,361,780,467,320,664,
0,359,769,463,318,655,
0,355,759,460,316,721,
0,352,748,455,313,711,
0,348,739,451,311,702,
0,345,729,447,308,690,
0,343,719,443,306,680,
0,340,711,455,304,671,
0,337,702,504,301,664,
0,335,691,499,299,655,
0,332,682,494,295,647,
0,329,673,488,294,689,
0,327,665,483,291,711,
0,324,658,479,289,702,
0,320,650,472,287,691,
0,318,642,467,286,679,
0,316,636,463,284,671,
0,313,807,520,281,663,
0,311,793,515,280,654,
0,308,777,508,277,646,
0,305,825,504,275,638,
0,304,812,498,280,718,
0,301,799,492,280,706,
0,299,787,487,276,696,
0,295,775,481,275,687,
0,294,764,476,272,675,
0,291,753,472,271,667,
0,289,842,467,268,657,
0,287,828,463,267,649,
0,286,812,458,263,641,
0,284,799,454,263,633,
0,281,787,450,287,705,
0,331,775,446,284,695,
0,327,764,441,281,685,
0,323,753,436,280,675,
0,319,743,433,277,664,
0,317,852,449,275,655,
0,314,838,591,271,647,
0,312,824,583,270,639,
0,308,807,575,267,632,
0,306,796,569,265,624,
0,318,785,563,304,699,
0,425,773,557,300,688,
0,420,761,551,297,679,
0,415,751,543,295,670,
0,411,781,537,292,659,
0,407,900,556,290,650,
0,403,909,577,287,642,
0,399,913,570,285,633,
0,395,916,563,282,626,
0,391,918,558,280,619,
0,388,911,551,309,699,
0,384,882,545,306,688,
0,381,867,540,304,679,
0,376,854,532,301,668,
0,373,841,527,298,659,
0,370,828,598,295,651,
0,367,900,629,293,642,
0,364,909,621,291,635,
0,360,914,614,287,627,
0,358,916,606,286,664,
0,355,913,600,319,713,
0,352,887,592,316,704,
0,348,871,585,313,694,
0,344,857,578,311,682,
0,343,883,572,308,673,
0,339,905,655,305,664,
0,336,911,646,303,655,
0,334,915,638,300,647,
0,331,918,631,297,639,
0,327,918,623,313,726,
0,326,911,615,329,717,
0,323,883,608,327,707,
0,320,868,601,323,696,
0,318,856,593,321,685,
0,315,841,587,318,676,
0,312,835,655,316,667,
0,310,902,647,312,658,
0,307,892,639,310,649,
0,305,871,632,307,642,
0,303,857,624,323,729,
0,399,844,616,319,718,
0,454,830,609,316,707,
0,448,817,603,313,697,
0,443,806,594,312,686,
0,438,794,588,308,678,
0,433,899,618,305,668,
0,430,908,610,303,659,
0,425,913,603,300,652,
0,422,916,596,297,643,
0,417,912,590,295,718,
0,414,886,583,293,707,
0,409,871,575,291,697,
0,406,857,571,288,688,
0,401,844,563,286,676,
0,397,848,558,284,668,
0,393,902,551,281,659,
0,391,888,546,280,650,
0,387,871,540,278,642,
0,384,855,536,275,635,
0,380,841,530,294,720,
0,377,828,525,291,710,
0,374,816,519,287,700,
0,369,803,515,286,691,
0,367,792,508,283,679,
0,364,781,504,280,670,
0,359,868,499,279,662,
0,358,854,495,276,653,
0,355,839,490,274,645,
0,352,824,486,271,668,
0,367,811,481,319,717,
0,377,798,477,316,706,
0,374,786,472,313,696,
0,369,775,468,311,687,
0,366,764,463,307,675,
0,362,753,460,305,667,
0,359,743,455,302,658,
0,355,734,451,300,650,
0,352,724,448,297,641,
0,350,712,444,315,726,
0,429,704,440,332,713,
0,423,695,436,327,703,
0,419,686,432,326,694,
0,414,678,429,323,684,
0,409,670,424,319,673,
0,406,662,534,317,664,
0,401,654,527,314,655,
0,398,647,520,312,647,
0,394,637,515,308,639,
0,391,630,510,319,728,
0,387,623,504,316,716,
0,384,615,499,313,707,
0,380,609,494,312,696,
0,376,602,488,308,687,
0,372,595,483,305,676,
0,369,697,579,303,667,
0,366,687,572,300,658,
0,363,677,565,299,649,
0,359,668,559,295,641,
0,356,657,553,312,719,
0,536,647,547,308,709,
0,527,639,541,305,699,
0,520,632,536,303,689,
0,513,624,529,300,679,
0,508,615,523,298,669,
0,503,609,518,295,660,
0,497,601,512,293,652,
0,492,595,507,291,643,
0,487,587,502,288,636,
0,483,580,497,330,707,
0,478,574,492,327,696,
0,472,568,487,323,687,
0,467,563,483,321,678,
0,462,556,479,318,668,
0,457,551,560,315,658,
0,454,545,551,312,649,
0,449,540,546,310,641,
0,445,535,540,307,633,
0,440,527,534,304,657,
0,436,523,527,345,704,
0,433,597,523,342,695,
0,429,651,517,339,685,
0,425,642,512,335,675,
0,420,633,506,333,667,
0,417,625,500,330,655,
0,413,617,496,327,647,
0,409,609,490,324,639,
0,406,603,486,321,632,
0,403,593,481,319,718,
0,399,587,476,334,709,
0,396,579,472,331,699,
0,391,572,467,327,689,
0,390,567,463,325,679,
0,385,782,457,322,671,
0,382,876,454,319,660,
0,379,890,449,316,652,
0,376,873,446,313,643,
0,372,859,441,312,636,
0,369,841,438,312,714,
0,367,828,434,344,704,
0,364,816,430,339,694,
0,360,803,427,337,684,
0,358,792,423,334,675,
0,355,780,419,331,666,
0,352,889,474,327,655,
0,349,897,468,325,647,
0,347,879,463,323,639,
0,344,864,459,319,632,
0,341,847,455,328,708,
0,339,833,449,324,697,
0,335,820,446,321,688,
0,334,808,441,319,679,
0,331,796,436,316,670,
0,327,795,464,313,662,
0,325,901,543,311,650,
0,323,909,536,308,642,
0,320,913,530,305,635,
0,318,911,524,304,627,
0,316,884,519,337,703,
0,313,869,513,332,692,
0,312,856,508,329,684,
0,309,841,504,327,674,
0,307,903,497,324,665,
0,304,911,582,321,656,
0,302,913,601,318,646,
0,300,916,594,316,638,
0,297,918,587,312,630,
0,295,913,580,311,643,
0,294,883,574,323,697,
0,291,867,568,319,687,
0,289,854,561,317,678,
0,287,840,556,314,669,
0,286,828,550,312,660,
0,283,871,636,309,652,
0,281,904,625,306,641,
0,279,911,617,304,633,
0,277,914,611,301,625,
0,275,915,604,299,696,
0,333,892,596,310,689,
0,340,874,590,307,679,
0,336,860,583,304,671,
0,333,847,576,302,662,
0,330,833,571,299,653,
0,327,827,563,297,644,
0,323,814,557,295,635,
0,320,802,551,292,627,
0,318,791,545,290,619,
0,315,780,540,287,699,
0,312,766,535,313,688,
0,310,755,529,311,679,
0,307,745,524,308,670,
0,304,736,519,305,660,
0,303,726,513,303,652,
0,299,892,645,300,643,
0,296,907,636,297,633,
0,294,910,627,295,626,
0,291,903,620,292,619,
0,289,880,614,313,704,
0,324,862,606,311,693,
0,321,847,599,308,684,
0,318,835,591,305,674,
0,315,823,585,303,665,
0,312,810,579,300,656,
0,308,799,572,297,647,
0,306,787,566,295,638,
0,304,775,560,292,631,
0,300,765,553,291,623,
0,299,755,548,313,697,
0,356,742,542,308,688,
0,352,732,536,306,678,
0,349,722,531,304,668,
0,345,713,527,300,660,
0,343,856,521,299,652,
0,339,899,515,295,641,
0,335,881,510,293,633,
0,333,867,505,291,625,
0,329,853,500,288,630,
0,327,839,496,305,704,
0,324,823,491,301,695,
0,321,811,487,299,685,
0,319,798,482,295,675,
0,316,787,478,294,667,
0,313,775,473,291,658,
0,310,764,468,288,647,
0,307,754,463,286,639,
0,305,743,460,284,632,
0,303,734,455,281,690,
0,376,724,452,306,696,
0,384,711,448,302,687,
0,380,703,444,300,678,
0,376,694,440,296,668,
0,372,686,436,294,659,
0,368,678,433,291,652,
0,364,669,428,289,639,
0,360,661,425,287,632,
0,358,654,422,284,625,
0,355,646,418,283,698,
0,417,639,415,287,687,
0,412,629,411,284,678,
0,408,622,408,281,668,
0,403,615,404,279,659,
0,399,608,401,276,652,
0,396,716,398,275,643,
0,391,705,395,272,632,
0,387,696,391,271,625,
0,384,686,388,268,617,
0,380,676,386,291,691,
0,455,668,383,295,681,
0,449,656,380,292,671,
0,444,648,376,289,663,
0,440,639,374,287,654,
0,435,632,371,285,646,
0,432,624,472,283,638,
0,425,617,465,280,627,
0,422,610,460,278,620,
0,417,603,455,275,612,
0,434,597,451,307,686,
0,588,590,447,303,675,
0,580,582,441,300,667,
0,572,575,438,296,658,
0,566,570,433,294,649,
0,560,569,430,291,641,
0,551,625,441,289,633,
0,545,617,435,287,624,
0,540,609,432,284,615,
0,534,601,428,282,608,
0,588,595,423,331,687,
0,721,587,419,327,677,
0,710,578,415,323,668,
0,700,571,412,320,659,
0,691,565,408,318,650,
0,683,684,444,315,642,
0,671,702,440,312,633,
0,663,691,435,310,624,
0,655,682,430,307,616,
0,647,673,425,304,669,
0,723,664,422,335,688,
0,744,655,417,332,678,
0,734,644,414,327,669,
0,723,636,409,324,660,
0,714,628,406,322,652,
0,705,648,403,319,643,
0,693,639,399,316,635,
0,684,631,395,313,625,
0,676,623,391,311,617,
0,668,615,388,308,704,
0,662,608,384,324,694,
0,654,600,381,321,684,
0,646,591,377,318,674,
0,639,584,375,315,665,
0,632,578,371,312,656,
0,624,572,416,310,647,
0,615,566,412,307,639,
0,609,560,407,304,630,
0,603,553,402,302,622,
0,595,548,399,323,704,
0,643,543,395,335,694,
0,635,537,391,332,684,
0,627,531,387,327,675,
0,620,525,384,324,665,
0,611,519,380,322,657,
0,605,555,481,319,647,
0,595,547,475,316,639,
0,590,541,468,313,631,
0,583,534,463,311,623,
0,577,528,460,344,711,
0,664,522,455,339,702,
0,655,515,450,335,691,
0,646,511,446,332,682,
0,638,505,441,329,673,
0,631,523,438,327,665,
0,623,639,505,323,655,
0,613,630,499,319,647,
0,606,622,492,318,638,
0,600,614,487,315,630,
0,593,607,483,313,708,
0,587,599,478,311,697,
0,580,589,472,308,688,
0,574,582,467,305,679,
0,568,575,463,303,670,
0,562,639,459,300,662,
0,556,696,455,297,652,
0,550,687,450,295,644,
0,543,677,444,294,635,
0,539,668,440,291,665,
0,599,659,437,289,704,
0,679,651,432,287,694,
0,670,639,428,284,684,
0,661,632,424,281,675,
0,653,624,421,280,667,
0,645,686,470,278,658,
0,637,675,480,275,649,
0,627,667,475,273,641,
0,620,657,468,271,632,
0,613,649,463,270,713,
0,606,641,459,271,702,
0,600,632,455,269,691,
0,591,623,449,267,683,
0,585,615,445,264,673,
0,579,608,441,263,664,
0,573,686,437,260,655,
0,568,675,433,259,647,
0,560,666,428,257,639,
0,553,657,423,255,630,
0,547,648,420,258,704,
0,623,639,416,280,692,
0,615,632,412,277,683,
0,607,622,409,275,673,
0,600,615,406,271,664,
0,592,641,402,270,656,
0,585,825,427,267,647,
0,579,811,422,265,639,
0,571,798,417,263,632,
0,564,786,413,261,622,
0,559,775,409,305,708,
0,722,763,404,302,697,
0,711,752,401,299,688,
0,701,739,398,295,679,
0,691,728,394,292,670,
0,683,719,391,290,662,
0,674,771,387,287,652,
0,665,760,384,285,644,
0,655,748,380,283,636,
0,647,737,377,280,627,
0,641,728,375,321,711,
0,716,717,371,318,701,
0,707,707,368,315,691,
0,697,696,366,312,682,
0,688,687,363,308,673,
0,679,745,365,306,664,
0,671,768,423,303,655,
0,662,757,417,300,647,
0,652,745,412,298,639,
0,644,735,408,295,668,
0,695,726,404,326,718,
0,728,715,401,323,707,
0,717,704,397,319,698,
0,707,694,393,316,688,
0,697,684,390,313,679,
0,689,737,387,311,670,
0,679,726,456,307,662,
0,671,716,451,305,653,
0,661,705,446,303,645,
0,654,696,441,300,729,
0,736,687,436,335,717,
0,726,677,432,332,707,
0,716,668,428,329,696,
0,705,658,423,326,688,
0,696,651,419,323,679,
0,688,809,428,319,669,
0,679,795,423,317,660,
0,670,783,419,314,652,
0,659,771,415,312,644,
0,652,760,411,310,717,
0,709,749,408,307,706,
0,699,738,403,304,696,
0,689,728,399,302,687,
0,680,716,396,299,677,
0,671,706,392,296,668,
0,664,872,419,295,659,
0,655,856,417,292,651,
0,647,843,412,289,643,
0,638,829,408,287,635,
0,631,816,403,295,708,
0,708,803,399,292,697,
0,699,792,396,290,688,
0,689,780,391,287,679,
0,680,767,388,284,670,
0,671,755,385,283,660,
0,664,745,382,280,652,
0,655,736,379,278,644,
0,647,726,376,276,636,
0,638,716,372,274,627,
0,632,707,369,312,711,
0,624,698,366,310,700,
0,615,689,363,307,691,
0,609,680,359,304,681,
0,603,670,358,300,671,
0,596,707,355,299,664,
0,590,747,479,295,655,
0,583,736,473,293,647,
0,577,724,467,291,639,
0,569,715,462,288,657,
0,582,705,457,335,723,
0,625,695,452,331,713,
0,617,686,448,327,703,
0,609,676,444,325,694,
0,603,665,440,321,684,
0,595,764,478,319,675,
0,588,751,491,316,667,
0,582,739,485,313,657,
0,575,729,480,311,649,
0,568,719,473,307,730,
0,591,709,469,352,738,
0,586,699,463,348,728,
0,579,689,460,345,717,
0,572,680,455,342,707,
0,566,670,450,339,698,
0,560,861,504,335,688,
0,553,902,497,332,679,
0,547,889,492,329,670,
0,542,872,487,327,662,
0,536,859,480,326,751,
0,568,845,476,369,739,
0,561,831,471,366,728,
0,554,819,465,361,718,
0,548,807,461,359,707,
0,542,792,456,355,699,
0,536,867,452,352,689,
0,530,851,448,348,679,
0,525,838,444,345,671,
0,519,824,440,342,663,
0,513,812,435,374,747,
0,550,799,431,371,736,
0,543,787,427,368,725,
0,536,775,423,364,715,
0,531,766,419,360,705,
0,524,752,415,357,696,
0,519,831,412,353,686,
0,513,818,408,351,678,
0,508,805,404,348,668,
0,503,792,401,344,660,
0,498,782,397,358,739,
0,523,769,393,355,729,
0,517,759,390,351,719,
0,511,748,387,348,708,
0,505,737,384,344,699,
0,500,757,380,341,689,
0,495,815,377,338,680,
0,491,801,375,335,671,
0,486,790,371,332,664,
0,480,777,368,329,655,
0,476,767,364,366,743,
0,477,755,361,361,732,
0,472,743,359,358,722,
0,468,734,356,355,712,
0,463,724,353,352,703,
0,460,823,390,348,693,
0,455,809,408,344,684,
0,452,797,404,342,675,
0,448,784,400,339,667,
0,444,772,396,335,662,
0,444,762,391,368,743,
0,455,751,388,365,732,
0,451,740,385,361,722,
0,446,729,382,359,711,
0,441,719,377,355,702,
0,438,895,463,352,693,
0,433,907,487,348,684,
0,430,910,481,345,675,
0,427,897,476,342,666,
0,423,877,472,344,724,
0,529,863,465,390,737,
0,521,849,460,385,727,
0,515,836,455,382,716,
0,509,824,451,379,706,
0,504,811,448,375,697,
0,498,898,443,371,688,
0,492,897,439,367,679,
0,487,879,434,364,670,
0,483,864,431,361,662,
0,476,851,427,384,738,
0,472,837,422,381,723,
0,467,824,417,377,713,
0,463,812,414,374,704,
0,458,799,411,370,694,
0,454,785,407,367,685,
0,449,897,408,363,675,
0,445,882,404,359,667,
0,440,867,400,356,658,
0,436,852,397,353,650,
0,432,839,394,362,722,
0,428,826,390,359,708,
0,423,813,387,355,699,
0,420,801,384,352,689,
0,416,790,380,349,679,
0,413,820,376,346,671,
0,410,888,402,343,662,
0,407,871,398,339,654,
0,403,857,395,337,646,
0,399,843,391,335,638,
0,396,830,387,363,722,
0,393,817,382,359,708,
0,391,804,379,355,699,
0,387,793,376,352,689,
0,384,782,371,349,679,
0,382,867,371,346,671,
0,379,888,368,342,663,
0,376,871,365,339,654,
0,372,857,362,336,646,
0,370,844,359,334,638,
0,367,831,356,378,720,
0,364,817,353,374,707,
0,361,805,351,371,697,
0,359,793,348,368,688,
0,355,782,345,364,679,
0,353,881,370,360,670,
0,351,871,366,356,662,
0,348,856,363,353,653,
0,345,842,359,351,644,
0,344,829,355,348,684,
0,340,816,352,386,726,
0,337,803,348,382,711,
0,335,792,345,379,702,
0,333,780,343,376,693,
0,331,769,340,371,684,
0,327,822,402,368,675,
0,326,807,398,364,665,
0,323,796,393,359,657,
0,321,783,390,358,648,
0,319,772,386,395,741,
0,317,761,381,415,728,
0,315,750,377,412,715,
0,312,740,375,408,705,
0,310,731,371,403,696,
0,308,720,368,399,687,
0,306,857,377,396,677,
0,304,844,373,391,668,
0,302,830,369,388,659,
0,300,816,366,385,652,
0,297,804,363,448,756,
0,307,792,359,440,744,
0,304,780,355,436,731,
0,302,769,352,432,721,
0,299,758,350,428,711,
0,297,748,347,423,702,
0,295,896,344,419,691,
0,292,879,340,415,683,
0,291,864,338,411,673,
0,288,850,335,407,665,
0,287,837,334,472,760,
0,307,824,330,464,747,
0,304,811,327,460,734,
0,302,799,326,455,723,
0,299,787,323,451,713,
0,295,812,339,447,704,
0,294,899,366,440,695,
0,291,883,363,436,685,
0,288,868,359,432,676,
0,287,854,355,428,668,
0,284,840,352,480,755,
0,327,828,348,475,743,
0,323,815,345,470,731,
0,319,803,342,465,721,
0,316,791,339,460,711,
0,314,850,371,455,702,
0,312,888,366,450,691,
0,308,871,363,446,683,
0,305,856,359,441,674,
0,303,843,356,438,707,
0,300,830,353,473,749,
0,305,817,348,468,737,
0,303,804,345,463,724,
0,300,793,343,459,715,
0,297,781,339,455,705,
0,295,878,337,450,696,
0,292,907,334,444,686,
0,290,909,332,440,678,
0,287,894,328,436,668,
0,286,875,326,438,754,
0,284,861,323,438,742,
0,280,847,319,433,728,
0,279,834,318,429,718,
0,278,822,316,425,708,
0,275,809,313,422,699,
0,273,897,369,417,689,
0,271,909,366,413,679,
0,270,908,361,409,671,
0,268,888,359,406,664,
0,267,871,355,429,740,
0,265,857,352,423,728,
0,263,844,348,419,716,
0,261,831,345,415,705,
0,259,818,342,412,696,
0,258,806,339,408,687,
0,255,900,363,404,678,
0,255,904,359,399,669,
0,253,886,355,396,660,
0,252,871,352,393,652,
0,249,856,349,391,737,
0,248,843,346,389,726,
0,246,830,342,385,712,
0,244,817,339,383,703,
0,243,805,335,380,694,
0,242,816,334,376,684,
0,240,902,331,374,675,
0,239,895,327,369,667,
0,238,876,324,366,658,
0,236,862,322,364,650,
0,235,847,319,384,732,
0,254,835,317,380,720,
0,251,822,313,376,707,
0,248,809,312,372,698,
0,246,798,310,369,689,
0,244,828,345,366,679,
0,242,853,342,363,671,
0,240,835,338,359,662,
0,238,823,335,356,654,
0,236,809,332,353,678,
0,235,798,329,391,728,
0,233,785,326,387,717,
0,231,775,322,384,704,
0,230,764,319,380,696,
0,228,753,316,376,686,
0,227,888,377,373,676,
0,225,903,372,369,668,
0,224,884,369,366,659,
0,223,869,366,362,651,
0,222,856,362,368,729,
0,224,841,359,384,719,
0,248,828,355,380,709,
0,244,816,352,376,696,
0,243,803,348,372,688,
0,240,792,345,369,679,
0,239,895,365,366,670,
0,236,900,361,363,660,
0,235,878,358,359,652,
0,231,863,355,355,644,
0,231,849,352,376,739,
0,229,835,348,371,728,
0,227,823,344,368,716,
0,225,810,341,364,704,
0,223,798,337,361,695,
0,222,787,335,358,686,
0,220,898,353,355,676,
0,219,902,350,352,668,
0,217,879,347,348,659,
0,216,864,344,345,651,
0,215,851,340,376,732,
0,214,836,337,371,720,
0,211,824,334,368,710,
0,210,812,331,364,697,
0,209,799,327,360,688,
0,207,830,327,358,679,
0,207,903,371,355,671,
0,205,910,367,352,662,
0,204,913,363,348,653,
0,203,907,359,344,645,
0,202,882,356,382,731,
0,255,867,353,377,719,
0,252,854,350,374,710,
0,249,839,346,370,697,
0,248,828,344,367,688,
0,246,882,344,364,679,
0,243,905,340,359,670,
0,241,906,337,358,662,
0,239,882,335,353,653,
0,237,867,332,350,655,
0,236,854,329,347,716,
0,233,839,327,344,705,
0,231,827,323,342,696,
0,230,815,319,339,684,
0,227,803,318,335,675,
0,225,886,338,334,666,
0,224,903,335,331,657,
0,222,889,331,327,649,
0,220,869,327,326,641,
0,219,855,325,323,668,
0,217,841,322,321,663,
0,216,828,319,319,654,
0,214,816,316,316,646,
0,211,803,313,313,635,
0,210,792,311,312,627,
0,209,847,339,310,620,
0,207,833,335,307,612,
0,206,816,332,305,606,
0,204,804,329,302,600,
0,203,792,327,300,675,
0,201,780,324,298,664,
0,199,769,321,295,655,
0,199,759,318,294,647,
0,198,748,315,292,636,
0,196,739,312,290,628,
0,195,818,314,287,621,
0,194,804,312,286,614,
0,193,790,309,284,606,
0,192,777,307,281,599,
0,191,767,304,291,679,
0,190,755,302,289,669,
0,188,743,300,286,660,
0,187,734,298,284,652,
0,186,724,295,281,641,
0,185,726,294,280,633,
0,184,871,327,278,625,
0,183,857,323,275,617,
0,182,839,321,273,609,
0,180,825,318,271,603,
0,179,814,316,310,696,
0,180,801,312,307,686,
0,179,789,310,304,676,
0,178,777,307,300,668,
0,177,767,304,297,656,
0,176,820,349,295,647,
0,175,902,358,293,639,
0,174,899,355,291,632,
0,173,875,352,287,624,
0,172,861,348,286,633,
0,171,847,344,332,704,
0,203,833,342,329,694,
0,200,820,339,327,684,
0,199,807,335,323,675,
0,196,796,332,319,664,
0,195,873,348,318,655,
0,193,881,344,315,647,
0,192,866,341,312,639,
0,190,848,338,310,631,
0,189,835,335,307,693,
0,188,822,332,316,694,
0,221,809,329,313,684,
0,219,797,326,311,675,
0,216,785,323,308,665,
0,214,774,319,305,655,
0,212,892,356,303,647,
0,211,907,353,300,638,
0,209,911,350,299,630,
0,207,913,346,295,623,
0,206,898,343,307,695,
0,204,877,339,304,684,
0,202,862,336,302,675,
0,200,848,334,299,665,
0,199,835,329,295,657,
0,198,823,327,294,647,
0,195,831,359,291,638,
0,195,817,355,289,631,
0,193,806,352,287,623,
0,192,792,349,284,615,
0,190,780,346,287,688,
0,188,769,343,284,678,
0,187,758,339,281,668,
0,185,748,336,280,659,
0,184,737,332,277,651,
0,183,728,330,275,641,
0,181,888,335,273,632,
0,180,871,332,271,624,
0,179,857,327,269,617,
0,177,840,326,267,609,
0,176,828,323,288,670,
0,175,814,319,286,660,
0,174,802,318,283,652,
0,172,790,315,280,643,
0,172,779,312,278,635,
0,171,817,340,276,625,
0,169,894,353,273,617,
0,167,876,350,271,609,
0,167,862,347,269,603,
0,167,845,344,267,601,
0,166,831,340,287,681,
0,164,818,337,285,671,
0,163,806,334,283,662,
0,163,794,332,280,654,
0,161,783,327,278,645,
0,160,865,364,275,635,
0,159,889,359,273,627,
0,158,872,355,271,620,
0,158,857,352,268,611,
0,157,841,350,267,669,
0,156,828,346,304,687,
0,174,815,344,301,677,
0,173,803,340,298,668,
0,172,792,337,295,659,
0,169,780,334,293,649,
0,167,807,403,291,639,
0,167,793,398,287,632,
0,166,782,394,286,624,
0,164,769,391,284,617,
0,163,756,387,324,704,
0,185,746,384,331,692,
0,195,736,380,327,683,
0,193,726,376,324,673,
0,192,716,372,321,664,
0,190,707,368,319,654,
0,188,876,366,316,645,
0,187,860,362,313,637,
0,185,847,359,311,629,
0,184,832,355,308,622,
0,182,817,353,333,710,
0,180,804,350,329,699,
0,179,792,347,327,689,
0,177,780,344,323,679,
0,176,769,341,319,671,
0,175,758,337,318,660,
0,173,892,340,315,652,
0,172,876,337,312,643,
0,171,861,335,310,635,
0,169,847,332,307,627,
0,167,831,329,350,704,
0,244,817,326,345,693,
0,241,806,323,342,684,
0,239,793,321,339,674,
0,237,782,319,335,665,
0,235,812,339,333,655,
0,232,897,347,330,647,
0,231,880,344,327,638,
0,228,865,340,324,631,
0,227,851,337,321,623,
0,225,835,334,375,706,
0,289,822,331,371,696,
0,286,809,327,367,687,
0,283,797,325,363,677,
0,280,785,323,359,668,
0,278,886,351,356,657,
0,275,905,347,353,649,
0,272,911,344,351,641,
0,270,913,340,348,633,
0,268,903,337,344,675,
0,270,876,335,385,702,
0,325,862,331,382,691,
0,321,848,327,377,683,
0,319,835,326,374,673,
0,316,823,323,371,664,
0,312,895,339,368,654,
0,310,906,335,364,646,
0,307,897,333,361,637,
0,304,878,329,358,630,
0,302,864,327,355,732,
0,368,847,324,414,719,
0,415,833,321,409,708,
0,411,820,318,404,699,
0,407,807,316,401,689,
0,401,796,313,398,680,
0,398,896,353,394,669,
0,393,889,350,390,660,
0,391,872,347,387,652,
0,387,859,344,384,644,
0,384,845,340,417,748,
0,470,828,337,443,736,
0,465,815,334,439,724,
0,460,803,331,433,715,
0,455,792,327,430,704,
0,448,780,326,425,696,
0,444,897,375,422,684,
0,440,884,371,417,675,
0,435,869,367,414,666,
0,432,855,364,409,657,
0,428,842,360,483,764,
0,536,824,357,473,752,
0,527,812,353,467,741,
0,520,799,351,463,731,
0,515,788,348,459,720,
0,508,777,344,454,711,
0,503,794,343,449,699,
0,497,782,339,446,690,
0,492,771,336,441,681,
0,487,760,334,438,672,
0,483,751,332,486,771,
0,527,737,327,478,759,
0,520,728,326,472,748,
0,515,718,323,468,737,
0,509,709,319,463,728,
0,503,802,318,459,718,
0,497,856,382,454,705,
0,492,840,378,449,696,
0,487,827,375,446,687,
0,481,814,371,441,727,
0,478,803,368,467,768,
0,472,787,364,461,756,
0,467,775,360,456,745,
0,463,764,358,452,735,
0,459,753,355,448,724,
0,454,872,372,444,715,
0,449,873,368,439,703,
0,446,858,364,435,694,
0,441,844,361,431,684,
0,438,831,358,428,763,
0,433,815,355,423,750,
0,429,803,351,419,739,
0,425,791,348,415,728,
0,422,780,345,411,719,
0,418,768,342,408,710,
0,414,892,371,404,699,
0,409,883,366,400,688,
0,407,867,363,398,679,
0,403,853,359,394,670,
0,399,839,356,391,751,
0,396,824,353,388,739,
0,393,811,350,384,728,
0,390,799,347,382,718,
0,387,787,344,378,708,
0,384,775,340,376,700,
0,380,896,404,371,689,
0,377,881,398,369,678,
0,374,867,394,366,670,
0,371,853,391,364,661,
0,368,839,387,391,734,
0,365,823,384,388,723,
0,362,811,380,384,712,
0,359,798,376,380,703,
0,356,787,372,376,694,
0,354,780,369,373,684,
0,351,876,388,369,675,
0,348,861,384,366,664,
0,345,847,380,363,655,
0,343,834,376,359,647,
0,340,822,373,387,746,
0,337,805,369,384,735,
0,335,793,366,379,724,
0,332,782,363,376,715,
0,329,770,359,371,704,
0,327,837,356,368,696,
0,324,888,354,365,686,
0,322,871,352,362,675,
0,319,857,348,359,666,
0,318,844,345,355,692,
0,316,831,342,393,741,
0,319,814,339,390,730,
0,317,802,336,384,719,
0,314,790,334,381,710,
0,312,779,332,377,700,
0,310,885,355,374,691,
0,307,905,355,371,681,
0,304,911,351,368,671,
0,302,912,348,364,662,
0,300,900,344,361,746,
0,323,879,342,387,738,
0,352,860,339,384,728,
0,348,847,335,379,717,
0,345,833,332,376,707,
0,342,820,329,371,697,
0,339,896,382,368,688,
0,335,903,411,364,679,
0,332,888,407,361,668,
0,329,871,403,359,659,
0,326,858,399,363,752,
0,349,844,395,401,739,
0,345,828,391,397,729,
0,342,815,387,391,719,
0,339,803,384,388,708,
0,335,792,381,385,700,
0,333,899,379,381,689,
0,328,903,375,377,680,
0,326,884,371,375,670,
0,323,869,368,371,661,
0,319,856,365,422,750,
0,377,841,361,417,737,
0,372,825,359,412,728,
0,369,813,355,408,717,
0,366,800,353,403,707,
0,361,796,350,399,698,
0,359,901,368,396,688,
0,355,897,363,392,679,
0,352,878,359,390,668,
0,348,864,356,385,660,
0,345,851,353,430,752,
0,383,836,350,423,740,
0,379,820,347,419,730,
0,375,807,344,415,719,
0,371,796,340,411,710,
0,368,835,339,408,700,
0,364,903,383,403,691,
0,359,899,377,399,682,
0,356,880,375,396,671,
0,353,865,371,391,691,
0,351,851,368,435,748,
0,425,838,364,431,736,
0,420,822,361,425,726,
0,415,809,358,422,716,
0,412,797,355,417,705,
0,408,883,371,414,696,
0,404,890,400,409,687,
0,399,873,396,406,675,
0,396,859,391,402,668,
0,391,845,387,399,749,
0,431,831,384,454,743,
0,466,819,380,449,733,
0,460,803,377,444,723,
0,455,792,374,439,713,
0,451,780,370,435,704,
0,447,856,441,431,694,
0,442,841,435,426,684,
0,436,828,430,423,673,
0,432,815,425,418,664,
0,428,802,422,423,747,
0,467,790,417,467,736,
0,462,779,413,463,724,
0,455,764,409,456,715,
0,451,754,405,452,704,
0,447,743,401,448,696,
0,443,837,399,444,686,
0,438,824,396,440,677,
0,432,810,391,435,666,
0,428,797,388,431,657,
0,424,786,385,484,744,
0,505,774,382,478,732,
0,499,763,377,472,723,
0,494,750,375,466,711,
0,487,739,371,462,702,
0,483,737,368,457,694,
0,478,871,379,452,684,
0,473,856,376,448,675,
0,467,841,371,444,664,
0,463,828,368,440,655,
0,459,816,364,481,739,
0,463,803,361,476,728,
0,457,791,358,470,719,
0,453,776,355,464,708,
0,449,765,352,460,699,
0,444,812,350,455,689,
0,440,868,355,451,679,
0,436,854,352,446,671,
0,431,839,348,441,660,
0,428,827,344,438,680,
0,423,814,342,491,747,
0,476,801,339,485,736,
0,472,790,336,480,725,
0,466,775,334,473,715,
0,461,764,331,468,705,
0,456,871,328,463,696,
0,451,903,326,460,686,
0,448,890,323,455,678,
0,441,873,319,451,667,
0,438,859,318,447,743,
0,495,846,316,507,756,
0,566,831,313,502,744,
0,559,819,311,496,734,
0,551,803,308,489,723,
0,545,792,306,484,713,
0,540,892,368,480,704,
0,534,898,363,475,695,
0,527,880,359,470,686,
0,521,865,355,465,675,
0,515,851,352,467,780,
0,585,838,348,519,768,
0,579,824,345,512,755,
0,573,812,343,507,744,
0,567,797,339,500,734,
0,560,785,336,496,724,
0,553,871,358,490,713,
0,547,856,355,486,704,
0,540,842,351,480,696,
0,534,829,347,476,684,
0,528,816,344,491,780,
0,523,803,340,486,768,
0,518,792,337,480,756,
0,512,780,335,476,746,
0,508,766,332,470,736,
0,503,755,329,465,726,
0,497,884,335,460,716,
0,492,868,331,456,705,
0,487,854,327,452,696,
0,482,839,324,448,686,
0,478,828,321,446,761,
0,473,814,319,442,750,
0,468,801,316,438,739,
0,464,790,313,434,728,
0,460,775,312,430,718,
0,455,811,309,425,708,
0,451,882,380,422,699,
0,448,867,376,418,690,
0,443,852,371,415,680,
0,439,839,368,411,678,
0,435,825,364,452,764,
0,477,813,361,448,752,
0,472,800,358,443,741,
0,467,788,355,439,730,
0,462,775,351,433,720,
0,457,856,393,429,711,
0,452,843,419,424,701,
0,448,828,414,420,691,
0,443,816,410,417,683,
0,438,803,405,413,738,
0,440,792,401,463,755,
0,499,780,398,457,744,
0,494,768,393,453,734,
0,488,755,391,448,723,
0,483,743,387,443,713,
0,479,883,384,439,704,
0,473,875,380,435,694,
0,468,860,376,430,685,
0,462,846,373,426,676,
0,457,833,369,423,768,
0,509,820,366,481,755,
0,510,807,363,476,743,
0,504,795,359,471,733,
0,498,780,356,466,723,
0,493,769,353,460,713,
0,488,895,392,455,704,
0,483,883,388,451,694,
0,478,868,385,447,685,
0,472,854,381,443,676,
0,467,840,377,478,772,
0,561,827,373,487,760,
0,553,815,369,481,748,
0,547,802,366,476,738,
0,540,787,363,472,728,
0,535,776,359,466,719,
0,528,897,411,461,708,
0,523,883,407,456,699,
0,518,867,402,452,689,
0,511,854,399,448,680,
0,505,840,393,513,771,
0,535,827,390,506,760,
0,528,814,387,500,748,
0,523,802,383,495,737,
0,516,787,380,489,728,
0,511,836,376,484,718,
0,505,903,372,479,708,
0,500,908,369,473,698,
0,496,896,366,470,689,
0,489,876,363,465,680,
0,485,863,359,513,774,
0,580,848,356,507,762,
0,573,835,353,502,751,
0,566,822,350,496,740,
0,560,807,347,491,729,
0,553,895,376,484,719,
0,547,907,414,480,710,
0,542,912,409,475,700,
0,536,915,406,471,691,
0,528,911,400,466,683,
0,523,888,396,497,764,
0,522,871,393,492,752,
0,516,858,389,487,740,
0,511,845,385,481,731,
0,506,828,382,476,720,
0,502,892,401,471,711,
0,496,882,396,466,701,
0,492,867,391,462,691,
0,487,852,388,457,683,
0,481,839,384,454,723,
0,519,826,380,502,761,
0,522,813,377,496,750,
0,516,801,374,491,739,
0,511,790,371,486,729,
0,505,776,368,481,719,
0,500,887,387,475,710,
0,495,870,383,470,700,
0,489,856,379,465,691,
0,484,841,376,461,682,
0,478,829,371,501,783,
0,565,816,368,516,768,
0,557,803,364,511,755,
0,551,792,361,505,745,
0,543,780,358,499,735,
0,539,767,355,494,725,
0,532,850,399,488,715,
0,527,836,396,483,705,
0,521,823,391,479,696,
0,515,809,387,474,687,
0,510,798,384,529,785,
0,611,785,380,523,769,
0,603,774,376,516,758,
0,595,763,372,511,747,
0,588,752,369,505,736,
0,582,752,366,499,727,
0,575,833,369,494,716,
0,568,819,366,489,707,
0,562,807,363,484,697,
0,556,795,359,480,688,
0,550,783,356,534,783,
0,613,771,353,527,768,
0,605,760,350,520,757,
0,598,749,347,515,746,
0,591,739,344,510,736,
0,583,812,368,504,726,
0,577,864,383,497,716,
0,571,850,379,492,706,
0,564,836,375,487,696,
0,558,824,371,483,688,
0,568,811,368,536,776,
0,618,798,364,529,765,
0,610,786,359,524,753,
0,603,775,358,518,743,
0,595,764,354,512,732,
0,589,883,352,506,723,
0,582,888,391,500,712,
0,575,871,387,496,704,
0,569,857,384,491,694,
0,563,844,380,486,726,
0,632,831,376,548,783,
0,644,817,372,542,771,
0,636,805,369,536,760,
0,628,793,366,529,749,
0,620,782,363,524,739,
0,614,895,408,518,728,
0,607,894,403,512,719,
0,600,876,399,507,709,
0,592,861,396,502,700,
0,586,847,391,536,792,
0,654,834,387,560,790,
0,644,821,384,553,778,
0,636,808,380,547,768,
0,628,796,377,540,755,
0,621,785,374,536,745,
0,614,900,431,527,735,
0,607,904,425,522,724,
0,600,887,422,516,715,
0,593,871,417,511,705,
0,587,857,414,575,798,
0,632,843,408,568,782,
0,623,830,404,560,770,
0,615,817,400,554,760,
0,608,805,397,547,748,
0,600,793,393,542,738,
0,593,902,398,535,728,
0,587,898,393,529,718,
0,580,879,390,524,708,
0,574,864,387,519,699,
0,568,851,384,567,798,
0,620,837,379,560,782,
0,612,824,376,553,771,
0,606,811,372,547,760,
0,598,799,369,541,748,
0,591,793,367,536,738,
0,583,901,393,527,728,
0,577,888,390,523,718,
0,571,871,386,517,708,
0,565,857,383,512,700,
0,560,844,379,568,796,
0,644,830,375,560,780,
0,636,817,371,553,769,
0,627,805,368,547,758,
0,620,793,364,542,747,
0,613,852,403,536,737,
0,606,905,403,528,727,
0,599,907,399,524,717,
0,591,888,396,518,707,
0,585,871,391,512,732,
0,591,857,388,543,793,
0,593,844,384,537,778,
0,586,831,380,531,767,
0,579,818,376,525,755,
0,573,806,374,519,745,
0,568,883,452,514,735,
0,560,892,446,508,725,
0,555,874,441,503,715,
0,549,860,438,498,705,
0,543,846,433,513,787,
0,624,832,428,541,783,
0,615,819,423,535,768,
0,607,807,419,529,758,
0,600,796,415,524,747,
0,592,783,412,518,736,
0,585,893,408,512,726,
0,579,896,404,505,716,
0,572,877,400,500,706,
0,566,863,397,496,697,
0,560,849,394,551,798,
0,605,835,391,543,784,
0,598,823,386,538,769,
0,590,809,383,532,759,
0,583,798,380,526,748,
0,575,786,376,521,737,
0,570,831,406,515,728,
0,563,815,402,508,717,
0,557,802,398,504,707,
0,551,790,394,498,699,
0,545,779,391,551,799,
0,649,768,387,544,787,
0,639,756,383,539,772,
0,632,746,379,532,761,
0,625,736,376,527,751,
0,617,727,376,521,740,
0,610,851,425,515,729,
0,603,832,421,509,719,
0,596,819,417,504,711,
0,590,807,413,499,701,
0,583,795,409,548,799,
0,632,783,406,542,786,
0,624,771,400,536,772,
0,615,760,396,529,760,
0,608,750,393,524,750,
0,601,799,422,519,739,
0,594,865,450,513,729,
0,588,850,445,507,719,
0,580,836,441,502,710,
0,575,824,436,496,722,
0,568,811,432,529,792,
0,564,798,428,523,780,
0,558,787,423,518,766,
0,551,775,419,512,754,
0,546,764,415,506,743,
0,541,864,412,501,734,
0,536,881,408,496,723,
0,529,866,403,489,713,
0,524,852,399,485,704,
0,519,839,396,494,779,
0,536,825,393,523,790,
0,557,812,390,517,777,
0,551,799,385,511,763,
0,544,788,382,506,752,
0,538,777,379,500,742,
0,532,888,432,496,731,
0,526,876,427,490,721,
0,521,862,423,484,711,
0,515,847,418,480,702,
0,510,835,415,536,806,
0,571,821,410,528,792,
0,561,808,406,522,780,
0,555,796,401,516,766,
0,548,785,398,511,755,
0,542,774,394,505,744,
0,536,899,391,500,734,
0,529,905,387,496,723,
0,524,887,384,489,714,
0,519,871,380,484,705,
0,513,857,377,543,799,
0,624,843,374,537,786,
0,612,830,370,531,774,
0,605,817,367,525,760,
0,598,806,364,519,750,
0,591,793,360,515,739,
0,583,897,358,508,728,
0,577,878,355,504,719,
0,571,863,352,497,709,
0,564,849,349,492,700,
0,559,835,347,548,798,
0,625,823,344,542,785,
0,615,809,340,536,774,
0,608,798,337,529,760,
0,600,786,335,524,749,
0,593,823,332,519,738,
0,587,888,329,513,728,
0,579,867,327,508,718,
0,573,854,324,501,708,
0,568,839,323,496,713,
0,561,827,319,537,798,
0,628,813,318,531,785,
0,619,801,314,525,774,
0,611,790,312,519,760,
0,604,777,310,514,749,
0,596,860,364,508,739,
0,590,880,359,504,728,
0,583,861,356,498,719,
0,575,847,353,492,708,
0,569,833,350,499,775,
0,583,820,347,542,799,
0,624,807,344,536,787,
0,614,796,339,529,775,
0,607,783,336,524,761,
0,600,772,334,519,751,
0,592,888,408,513,739,
0,585,884,403,508,729,
0,579,865,399,501,719,
0,572,851,395,496,710,
0,567,839,391,541,806,
0,657,824,387,534,792,
0,664,812,384,527,780,
0,652,799,380,521,768,
0,643,787,376,516,755,
0,636,776,372,511,744,
0,628,891,412,505,734,
0,621,876,408,500,724,
0,614,859,404,494,715,
0,607,844,400,489,705,
0,600,831,396,518,796,
0,593,818,392,511,783,
0,587,806,388,505,772,
0,579,793,384,500,761,
0,572,782,381,495,748,
0,566,771,378,490,737,
0,560,888,415,484,727,
0,554,871,412,480,717,
0,548,854,408,475,707,
0,543,839,403,470,699,
0,537,827,399,496,787,
0,532,814,396,491,775,
0,527,801,391,485,764,
0,519,790,387,480,753,
0,515,779,384,475,739,
0,510,800,381,471,729,
0,505,876,379,466,719,
0,500,861,376,462,710,
0,496,844,371,455,700,
0,491,831,368,452,694,
0,487,818,366,489,783,
0,545,805,362,483,771,
0,539,793,359,479,760,
0,531,781,355,473,746,
0,525,770,352,468,736,
0,519,861,414,464,726,
0,514,886,408,460,716,
0,508,870,404,455,706,
0,504,852,400,449,696,
0,498,839,396,447,749,
0,494,825,393,491,775,
0,534,812,389,485,763,
0,527,800,385,480,752,
0,519,788,381,475,739,
0,514,777,378,470,728,
0,509,892,433,465,719,
0,504,900,428,460,708,
0,498,883,423,455,699,
0,493,864,419,451,690,
0,487,850,415,481,763,
0,506,836,411,478,750,
0,501,824,407,472,739,
0,496,811,403,467,729,
0,488,799,398,463,716,
0,483,787,395,459,707,
0,479,895,401,454,696,
0,475,888,398,449,688,
0,470,871,393,445,679,
0,465,853,391,440,670,
0,462,840,387,495,774,
0,540,827,384,489,761,
0,532,814,380,483,750,
0,526,801,376,479,739,
0,519,790,372,473,726,
0,513,779,369,469,716,
0,508,900,429,463,706,
0,502,908,423,460,697,
0,496,903,419,455,688,
0,492,878,415,449,679,
0,487,864,412,500,780,
0,541,849,408,495,768,
0,534,836,404,489,755,
0,527,824,399,483,745,
0,520,811,396,479,732,
0,515,824,391,474,721,
0,510,900,388,469,711,
0,504,888,385,464,702,
0,499,871,382,460,693,
0,494,854,378,455,684,
0,488,841,376,513,783,
0,568,827,371,508,771,
0,561,815,368,502,760,
0,553,802,365,496,749,
0,547,791,361,492,736,
0,541,881,422,487,726,
0,535,905,416,481,716,
0,529,903,412,476,706,
0,524,883,408,472,697,
0,518,865,404,470,748,
0,543,851,399,521,785,
0,606,838,396,515,774,
0,598,824,392,510,762,
0,589,812,389,504,751,
0,582,799,385,499,738,
0,575,888,390,494,728,
0,569,896,385,488,718,
0,563,878,382,484,707,
0,556,864,379,480,699,
0,551,846,376,524,799,
0,612,832,372,525,785,
0,610,819,369,519,774,
0,603,807,365,513,761,
0,593,796,363,508,751,
0,587,783,359,503,739,
0,579,898,403,497,728,
0,573,908,399,492,718,
0,567,904,395,487,708,
0,560,883,391,483,699,
0,555,865,387,530,807,
0,563,851,384,524,793,
0,556,838,380,518,781,
0,550,824,376,512,769,
0,542,812,373,507,759,
0,536,799,369,502,745,
0,531,900,433,496,735,
0,525,902,429,491,725,
0,519,883,424,486,715,
0,515,867,420,481,705,
0,510,851,417,534,793,
0,587,836,412,527,781,
0,579,824,408,521,769,
0,572,812,404,515,759,
0,564,799,401,510,748,
0,558,816,396,504,735,
0,551,901,392,499,724,
0,545,893,390,494,715,
0,540,875,385,489,705,
0,534,857,383,484,696,
0,528,844,379,523,785,
0,580,830,376,517,774,
0,573,817,372,511,762,
0,567,805,369,505,752,
0,558,793,366,500,740,
0,551,864,419,496,728,
0,545,900,413,490,718,
0,540,884,408,485,707,
0,534,868,404,480,699,
0,528,851,401,476,736,
0,540,838,397,524,777,
0,606,824,393,518,766,
0,598,812,390,512,754,
0,591,799,386,507,743,
0,582,788,383,501,734,
0,575,886,394,496,721,
0,568,902,390,491,711,
0,563,886,387,486,701,
0,556,870,383,481,692,
0,550,852,380,476,796,
0,611,839,376,524,787,
0,618,825,372,518,775,
0,610,813,369,512,764,
0,603,800,366,507,752,
0,594,789,363,502,743,
0,588,897,428,496,728,
0,580,908,423,491,719,
0,574,911,419,486,710,
0,568,902,414,481,700,
0,561,876,411,502,787,
0,611,861,407,519,774,
0,603,847,402,514,762,
0,595,835,399,508,751,
0,588,822,395,503,740,
0,580,809,391,498,731,
0,574,885,401,492,718,
0,567,869,398,487,708,
0,560,855,393,483,699,
0,555,841,391,478,690,
0,549,825,387,534,772,
0,590,812,384,524,760,
0,582,799,380,519,749,
0,575,788,376,513,738,
0,568,777,374,508,728,
0,560,794,385,503,718,
0,553,896,404,497,705,
0,547,880,400,492,696,
0,542,864,396,487,687,
0,536,851,392,483,679,
0,531,834,390,536,764,
0,604,820,385,527,753,
0,595,807,382,522,743,
0,588,796,379,516,732,
0,582,784,375,511,721,
0,574,840,432,505,711,
0,567,886,432,500,700,
0,560,870,428,495,690,
0,554,856,423,490,681,
0,548,841,419,486,719,
0,548,825,415,531,755,
0,590,812,412,524,743,
0,583,799,408,518,732,
0,575,788,403,512,723,
0,568,776,399,507,712,
0,561,886,460,502,703,
0,554,899,454,496,691,
0,548,882,448,491,681,
0,542,867,444,487,673,
0,536,854,440,482,770,
0,583,836,435,522,764,
0,598,824,431,516,752,
0,590,811,427,510,742,
0,583,799,423,504,731,
0,575,787,419,499,721,
0,568,894,460,495,711,
0,561,900,455,489,699,
0,555,881,451,484,690,
0,548,866,446,480,681,
0,543,852,441,476,760,
0,537,835,437,476,749,
0,531,822,433,472,738,
0,526,810,428,467,728,
0,520,798,424,463,718,
0,515,787,420,459,708,
0,509,885,415,455,698,
0,504,869,412,450,686,
0,499,855,408,446,678,
0,494,840,404,441,669,
0,489,828,401,462,745,
0,485,812,398,455,734,
0,480,799,394,450,723,
0,476,787,391,446,713,
0,472,776,387,441,704,
0,467,811,384,437,695,
0,462,902,414,433,683,
0,457,908,409,430,673,
0,454,899,406,425,665,
0,449,879,401,423,657,
0,446,865,398,452,736,
0,471,847,394,446,724,
0,465,833,391,441,713,
0,460,821,387,437,704,
0,455,807,384,432,694,
0,451,847,381,428,685,
0,445,903,391,424,673,
0,441,909,387,420,665,
0,438,903,384,417,656,
0,433,881,380,414,688,
0,430,867,377,459,737,
0,478,849,374,452,726,
0,472,836,371,448,716,
0,467,823,368,444,706,
0,462,811,365,440,696,
0,457,888,396,435,688,
0,451,897,395,431,676,
0,447,879,391,427,668,
0,443,865,387,423,659,
0,439,851,384,419,748,
0,483,838,380,420,736,
0,499,821,376,415,726,
0,493,808,372,412,716,
0,487,796,369,408,705,
0,483,785,366,405,696,
0,478,892,451,401,687,
0,472,906,444,398,675,
0,467,906,440,395,667,
0,462,886,435,391,658,
0,457,871,431,391,752,
0,491,856,427,418,740,
0,484,839,423,413,729,
0,480,827,419,408,719,
0,474,814,414,404,709,
0,469,802,411,401,700,
0,464,902,414,397,690,
0,459,910,408,393,679,
0,454,913,404,390,670,
0,449,910,400,387,662,
0,445,888,398,436,732,
0,481,871,393,438,721,
0,475,854,390,432,711,
0,470,840,387,428,702,
0,465,828,384,423,692,
0,460,831,380,419,684,
0,455,903,455,415,673,
0,449,909,449,411,663,
0,444,905,445,408,654,
0,440,883,440,403,647,
0,436,868,436,451,754,
0,476,854,432,446,743,
0,471,836,428,440,732,
0,465,824,423,436,722,
0,461,812,419,432,711,
0,455,865,415,428,702,
0,450,903,452,423,693,
0,446,905,446,419,681,
0,441,887,441,415,671,StartUp!
127,540,783,356,471,745,
0,536,775,355,467,737,
0,531,775,352,463,731,
0,527,888,369,460,723,
0,523,876,366,457,715,
0,519,864,364,454,707,
0,515,854,361,450,700,
0,511,843,359,448,694,
0,507,833,356,444,728,
0,504,824,354,486,783,
0,546,810,351,480,770,
0,540,798,348,475,760,
0,531,786,344,470,748,
0,526,775,341,465,735,
0,520,838,400,460,724,
0,515,879,396,455,715,
0,509,864,391,451,705,
0,504,846,388,446,696,
0,499,833,385,441,711,
0,494,819,382,484,764,
0,501,807,377,479,752,
0,496,795,374,473,742,
0,489,783,369,469,728,
0,484,771,367,464,718,
0,480,873,415,460,708,
0,475,871,411,455,699,
0,471,857,407,451,689,
0,466,839,402,444,679,
0,462,827,398,460,769,
0,462,814,395,470,755,
0,472,807,393,467,750,
0,471,795,390,463,739,
0,463,783,385,459,726,
0,460,771,382,454,716,
0,455,892,384,449,706,
0,451,883,381,445,696,
0,447,867,377,440,688,
0,443,849,374,435,679,
0,439,836,371,496,783,
0,545,823,368,488,771,
0,542,811,364,483,760,
0,536,798,361,478,748,
0,527,787,358,473,735,
0,523,775,355,468,726,
0,516,896,425,463,715,
0,511,884,420,460,705,
0,505,869,415,455,696,
0,500,851,412,449,687,
0,496,839,408,532,785,
1,620,824,404,525,774,
2,611,812,399,519,761,
2,604,799,396,513,751,
3,595,788,391,508,737,
3,588,798,389,504,728,
3,581,899,425,497,717,
3,574,886,420,492,707,
4,568,870,417,487,698,
4,561,852,413,481,689,
4,556,839,409,547,799,
5,629,825,404,540,787,
5,621,812,401,534,775,
5,613,800,397,527,764,
6,604,788,392,522,750,
6,597,851,440,517,739,
6,590,903,444,511,729,
6,583,905,440,505,719,
6,576,888,435,501,710,
6,571,867,431,495,747,
6,572,855,427,554,815,
6,659,840,423,547,801,
6,649,827,419,542,790,
6,641,815,415,536,778,
6,632,803,409,529,764,
6,624,887,439,524,753,
6,616,903,433,519,743,
6,609,888,430,513,732,
6,602,871,425,508,723,
6,595,855,422,536,810,
6,638,841,417,563,808,
6,655,828,413,556,796,
6,647,815,409,550,784,
6,636,803,406,543,773,
6,628,791,400,537,760,
6,622,894,441,531,748,
6,614,899,436,526,738,
6,607,880,432,520,728,
6,600,865,428,515,718,
6,593,849,423,572,819,
6,664,835,419,563,804,
5,654,822,415,557,792,
5,646,809,412,551,781,
5,635,798,408,544,769,
5,627,785,403,539,756,
5,620,899,437,533,745,
5,612,901,432,527,735,
5,606,882,428,521,725,
5,599,867,423,516,716,
4,591,850,420,564,812,
5,664,836,415,557,798,
4,654,823,412,551,785,
4,646,811,408,543,775,
5,636,799,404,538,764,
4,628,790,399,532,750,
4,621,899,423,527,739,
4,614,888,419,521,729,
4,607,871,415,515,719,
4,600,857,411,511,710,
4,593,840,408,566,809,
4,673,827,403,559,796,
4,664,814,399,551,783,
4,655,801,396,546,772,
4,645,790,391,540,761,
4,638,872,391,535,748,
3,630,904,480,528,738,
4,622,908,475,523,728,
3,615,896,470,518,718,
3,608,876,464,512,739,
3,601,859,460,565,807,
3,671,844,455,558,794,
3,664,831,451,551,783,
3,655,819,447,545,771,
3,644,807,441,540,760,
3,638,882,475,534,747,
3,630,884,469,528,736,
3,622,868,463,523,727,
3,615,855,460,518,716,
3,608,838,455,512,796,
3,635,824,450,560,792,
3,658,812,446,554,781,
3,649,799,441,547,769,
3,641,788,437,542,758,
3,632,776,433,536,748,
3,624,888,444,530,734,
3,615,876,440,524,724,
3,609,861,435,519,715,
3,603,847,431,513,705,
3,595,831,427,513,814,
3,629,817,423,551,799,
3,620,805,419,543,788,
3,612,792,415,538,775,
3,605,781,412,532,765,
3,596,770,408,527,755,
3,590,896,403,520,741,
2,583,885,399,515,731,
2,575,870,396,510,721,
2,571,855,393,505,711,
2,564,839,390,532,793,
2,559,825,387,524,781,
2,552,812,384,518,769,
2,547,799,380,512,758,
2,542,788,376,507,748,
2,535,777,374,502,737,
2,529,887,370,496,724,
2,524,871,367,492,715,
1,519,856,364,487,705,
1,514,842,361,483,696,
1,510,825,359,513,779,
1,508,812,355,505,767,
1,504,799,352,500,755,
1,499,788,350,495,744,
1,494,776,347,489,734,
1,487,819,393,486,724,
1,483,867,407,480,711,
1,480,852,403,476,702,
1,475,839,399,472,693,
1,471,825,395,467,713,
1,467,810,391,497,771,
1,508,798,387,491,760,
1,503,785,384,486,749,
1,497,774,380,480,738,
1,492,764,377,476,728,
1,486,864,419,471,718,
1,480,886,415,466,705,
1,476,870,411,462,696,
1,471,856,407,457,688,
1,465,841,403,454,766,
1,499,825,399,503,768,
1,539,812,395,496,756,
1,532,799,391,491,745,
1,527,788,387,486,736,
0,520,776,384,481,725,
1,514,886,456,476,715,
1,508,873,451,471,703,
1,503,859,446,467,694,
0,497,844,441,462,684,
1,492,831,438,467,785,
1,595,815,433,518,771,
1,588,803,428,511,760,
0,580,791,424,505,749,
1,574,779,420,499,738,
0,568,768,417,495,728,
0,559,886,456,489,718,
0,552,868,451,484,705,
0,547,855,448,480,696,
0,540,841,443,475,688,
0,535,828,439,525,792,
0,614,812,434,524,780,
0,605,799,430,519,768,
0,598,787,425,513,756,
0,590,775,422,508,746,
0,583,764,417,503,736,
0,575,873,433,497,726,
0,568,859,429,492,713,
0,562,844,424,487,704,
0,556,831,420,483,695,
0,551,819,417,546,802,
0,644,802,412,537,790,
0,636,790,408,531,777,
0,627,779,405,525,766,
0,620,768,401,519,755,
0,612,844,398,514,745,
0,604,903,423,508,734,
0,596,908,418,504,721,
0,590,899,414,498,711,
0,583,878,410,493,711,
0,577,864,407,547,799,
0,651,846,402,539,787,
0,642,833,398,532,775,
0,634,820,395,527,764,
0,627,807,391,521,753,
0,619,878,388,515,743,
0,609,902,385,511,732,
0,603,887,382,505,719,
0,595,871,379,500,710,
0,589,856,376,495,773,
0,595,844,372,545,799,
0,623,826,369,537,787,
0,615,814,366,531,775,
0,608,801,364,526,764,
0,600,790,359,519,753,
0,593,892,410,515,743,
0,584,889,404,509,730,
0,578,873,399,504,719,
0,572,859,396,499,711,
0,566,845,392,494,816,
0,615,831,388,540,802,
0,607,816,385,532,790,
0,599,803,382,527,777,
0,591,792,378,521,768,
0,584,780,375,515,755,
0,578,894,410,510,745,
0,570,883,404,505,732,
0,563,867,399,499,723,
0,558,854,396,495,712,
0,551,839,393,529,803,
0,548,827,389,531,791,
0,542,811,385,523,779,
0,536,798,382,518,768,
0,531,787,379,512,756,
0,526,775,375,507,746,
0,521,883,418,501,736,
0,515,867,412,496,723,
0,510,852,408,491,713,
0,504,839,404,487,704,
0,500,826,400,536,807,
0,579,813,396,529,795,
0,572,797,393,522,783,
0,566,785,390,516,771,
0,559,774,386,511,760,
0,552,772,383,505,750,
0,547,827,429,499,739,
0,539,814,423,495,727,
0,533,801,419,490,716,
0,527,788,415,486,722,
0,523,777,412,524,819,
0,544,766,408,518,806,
0,539,752,403,511,793,
0,532,742,399,505,782,
0,526,732,396,500,771,
0,521,844,393,495,760,
0,515,871,399,489,748,
0,508,856,393,485,736,
0,504,842,390,480,726,
0,498,828,387,476,783,
0,496,816,384,508,802,
0,519,803,380,502,790,
0,512,788,376,495,778,
0,507,776,373,489,768,
0,500,766,369,484,756,
0,496,886,406,480,745,
0,489,882,401,475,735,
0,485,867,396,471,723,
0,480,852,391,466,713,
0,476,839,388,463,811,
0,566,827,385,521,797,
0,572,814,381,515,784,
0,566,798,377,508,773,
0,559,786,374,504,761,
0,552,775,371,498,752,
0,547,897,423,493,740,
0,539,906,419,487,731,
0,532,897,414,483,718,
0,527,878,409,478,708,
0,521,864,406,519,808,
0,607,849,401,523,796,
0,598,835,398,516,783,
0,591,819,394,510,771,
0,583,807,391,504,760,
0,576,796,387,499,750,
0,570,899,429,494,739,
0,562,892,423,488,729,
0,556,874,419,483,717,
0,550,860,415,479,707,
0,543,847,411,536,786,
0,633,833,407,528,774,
0,625,820,403,523,763,
0,617,804,399,515,752,
0,610,792,396,510,740,
0,603,813,391,504,731,
0,595,880,399,499,720,
0,587,865,395,494,711,
0,580,851,390,489,699,
0,574,837,387,484,691,
0,568,825,384,517,783,
0,571,812,380,511,771,
0,564,799,376,505,760,
0,559,784,373,499,749,
0,551,773,369,493,739,
0,546,847,398,488,728,
0,540,868,454,483,719,
0,534,853,449,479,708,
0,528,839,443,473,696,
0,523,826,439,470,752,
0,533,814,434,527,791,
0,586,801,430,521,779,
0,579,786,425,516,768,
0,572,775,422,509,755,
0,566,764,418,504,745,
0,559,886,473,499,735,
0,552,878,502,493,725,
0,545,862,496,487,715,
0,539,848,489,483,703,
0,533,835,485,479,807,
0,604,822,480,516,792,
0,600,809,475,511,780,
0,593,793,470,505,769,
0,585,782,465,499,758,
0,579,771,460,494,747,
0,572,895,456,488,736,
0,566,894,452,483,727,
0,558,876,448,479,716,
0,551,861,443,473,704,
0,546,847,439,507,807,
0,632,834,435,517,793,
0,622,821,431,511,781,
0,614,806,427,505,769,
0,607,793,423,499,758,
0,600,782,419,494,748,
0,592,889,415,488,737,
0,585,873,412,483,728,
0,577,859,408,479,717,
0,571,844,403,474,705,
0,564,831,400,519,803,
0,560,818,397,513,791,
0,553,806,393,508,779,
0,547,791,391,503,768,
0,542,779,387,496,756,
0,536,796,384,491,747,
0,531,891,412,486,736,
0,525,873,408,481,726,
0,519,859,403,476,716,
0,513,845,399,472,704,
0,509,832,396,502,799,
0,524,819,391,496,786,
0,518,807,388,491,774,
0,512,792,384,486,763,
0,507,780,382,479,752,
0,502,855,382,474,742,
0,496,903,415,469,731,
0,492,903,411,465,721,
0,486,883,405,460,711,
0,481,868,401,455,753,
0,490,855,398,504,791,
0,543,840,393,498,779,
0,537,827,390,492,768,
0,531,812,387,487,755,
0,525,799,384,481,745,
0,519,888,393,476,735,
0,513,889,390,472,724,
0,508,872,386,467,715,
0,502,859,382,462,705,
0,496,844,378,457,797,
0,560,831,376,504,783,
0,581,818,371,498,771,
0,574,806,368,492,760,
0,568,792,366,487,749,
0,560,780,363,481,739,
0,554,895,388,476,728,
0,548,888,384,472,719,
0,542,871,380,467,708,
0,535,857,376,462,700,
0,528,844,373,496,800,
0,540,830,369,510,787,
0,534,817,366,504,775,
0,527,805,363,499,764,
0,521,790,359,492,753,
0,515,779,356,487,743,
0,511,900,402,482,732,
0,505,902,398,478,722,
0,500,882,393,472,712,
0,494,867,388,467,703,
0,489,854,385,511,783,
0,521,839,382,504,771,
0,515,827,378,499,760,
0,510,814,375,494,748,
0,504,799,371,487,737,
0,499,811,368,483,728,
0,494,895,379,478,718,
0,487,878,375,472,707,
0,483,863,371,467,699,
0,478,849,367,463,689,
0,473,836,364,515,766,
0,571,823,359,508,754,
0,563,809,358,503,743,
0,557,798,354,497,732,
0,551,783,352,491,723,
0,544,851,360,486,712,
0,539,876,408,480,703,
0,532,862,404,476,694,
0,527,847,400,471,684,
0,519,834,396,466,731,
0,531,822,391,519,764,
0,595,807,387,513,753,
0,588,796,384,508,742,
0,581,783,381,502,732,
0,575,770,377,496,721,
0,568,880,396,491,711,
0,561,876,396,486,702,
0,555,860,391,480,692,
0,549,847,387,476,684,
0,542,833,384,472,777,
0,583,821,380,523,764,
0,591,807,376,516,753,
0,583,796,372,511,742,
0,576,783,369,505,732,
0,570,769,366,499,721,
0,564,857,457,494,711,
0,557,841,451,488,702,
0,551,828,447,483,692,
0,545,815,441,479,684,
0,537,803,436,488,774,
0,548,790,432,505,762,
0,542,779,428,500,751,
0,536,768,423,495,740,
0,529,756,419,489,729,
0,524,743,415,483,719,
0,519,871,415,479,710,
0,513,857,410,473,700,
0,508,843,407,468,691,
0,503,829,403,464,681,
0,496,817,399,496,769,
0,495,804,395,491,757,
0,490,792,391,485,745,
0,486,780,388,480,735,
0,480,769,384,475,725,
0,476,768,382,470,716,
0,472,864,406,464,705,
0,467,849,401,460,696,
0,463,835,398,455,687,
0,459,822,393,451,678,
0,454,809,389,467,749,
0,494,797,385,462,737,
0,487,785,382,456,728,
0,483,774,379,452,717,
0,478,763,376,448,707,
0,472,824,384,443,697,
0,467,881,437,439,688,
0,463,866,432,435,679,
0,458,852,428,431,671,
0,454,839,423,428,663,
0,450,825,419,480,742,
0,523,812,414,473,731,
0,516,799,410,468,719,
0,511,788,407,463,711,
0,505,776,403,459,700,
0,499,880,399,454,691,
0,495,899,396,449,682,
0,489,881,391,444,673,
0,484,866,388,440,664,
0,478,852,385,436,686,
0,486,839,380,486,733,
0,492,825,377,480,722,
0,487,812,374,475,711,
0,482,800,371,470,702,
0,476,789,368,465,693,
0,472,894,423,460,684,
0,467,892,418,455,674,
0,462,874,414,450,665,
0,457,860,409,446,657,
0,451,846,406,472,741,
0,544,831,400,496,736,
0,536,819,397,491,724,
0,530,807,393,485,715,
0,524,795,390,480,704,
0,519,783,386,475,696,
0,513,893,390,469,686,
0,507,877,387,463,676,
0,502,862,383,460,668,
0,496,847,379,455,659,
0,491,835,376,513,755,
0,584,822,371,506,740,
0,575,809,368,500,729,
0,569,797,365,495,719,
0,563,785,361,490,710,
0,556,775,359,485,700,
0,551,894,391,479,691,
0,543,876,387,473,681,
0,538,862,384,469,672,
0,532,847,380,464,664,
0,526,835,377,518,764,
0,588,822,372,511,749,
0,580,808,369,505,738,
0,573,796,366,500,728,
0,567,785,363,495,718,
0,560,819,367,490,707,
0,553,904,391,483,697,
0,547,911,388,479,689,
0,542,908,385,473,679,
0,536,886,381,470,671,
0,529,871,377,512,738,
0,579,856,373,505,724,
0,572,843,369,500,715,
0,565,830,366,495,704,
0,558,817,363,490,695,
0,551,893,386,485,686,
0,545,907,395,479,676,
0,540,911,391,473,668,
0,534,911,387,469,659,
0,527,892,384,464,681,
0,527,874,380,497,752,
0,529,860,376,492,737,
0,523,846,371,487,727,
0,518,833,368,482,717,
0,512,820,365,477,707,
0,508,894,415,472,697,
0,502,896,411,466,688,
0,497,877,407,462,679,
0,492,862,403,457,670,
0,487,848,399,472,739,
0,546,835,395,502,748,
0,539,822,390,496,735,
0,532,809,386,491,724,
0,526,798,383,486,714,
0,520,786,380,481,704,
0,515,856,376,476,695,
0,510,841,372,470,686,
0,504,827,369,465,676,
0,499,814,366,460,668,
0,494,803,363,499,761,
0,566,790,359,492,749,
0,558,779,355,487,736,
0,551,768,353,482,725,
0,545,756,350,477,715,
0,539,747,348,472,705,
0,533,866,415,467,696,
0,527,851,412,462,686,
0,521,838,407,457,678,
0,515,824,403,452,668,
0,510,812,399,465,751,
0,504,799,395,460,739,
0,499,787,391,455,727,
0,494,775,387,451,716,
0,488,764,384,447,707,
0,483,754,380,443,697,
0,480,865,387,439,688,
0,475,851,384,433,679,
0,470,838,380,430,670,
0,465,824,376,425,662,
0,462,812,373,423,739,
0,455,799,368,419,728,
0,451,787,366,415,715,
0,448,775,363,412,704,
0,444,764,359,409,695,
0,440,787,379,406,686,
0,435,866,383,402,676,
0,432,851,379,398,668,
0,428,838,376,395,659,
0,424,824,371,391,657,
0,422,812,368,404,723,
0,417,799,364,400,713,
0,414,787,359,396,700,
0,410,775,358,392,691,
0,407,764,355,390,682,
0,403,883,364,387,672,
0,400,896,359,384,664,
0,398,878,356,380,655,
0,393,864,353,376,647,
0,391,849,350,381,713,
0,396,836,348,416,728,
0,432,823,344,412,717,
0,428,811,341,408,704,
0,423,799,339,403,695,
0,419,787,335,399,686,
0,415,896,388,396,676,
0,411,908,384,391,668,
0,407,900,380,388,659,
0,403,879,377,385,651,
0,399,865,374,440,753,
0,475,851,369,435,741,
0,492,838,366,430,730,
0,487,824,362,425,717,
0,481,812,359,422,707,
0,476,799,355,417,698,
0,472,891,356,414,688,
0,467,871,353,408,679,
0,462,856,350,404,671,
0,457,842,347,401,662,
0,452,830,344,453,771,
0,516,816,340,448,760,
0,508,803,337,443,748,
0,502,792,335,438,735,
0,496,780,332,433,724,
0,491,769,329,430,715,
0,486,897,369,425,704,
0,481,884,365,420,696,
0,476,869,361,416,686,
0,472,855,358,412,678,
0,467,841,355,460,772,
0,534,828,352,455,760,
0,526,815,348,450,749,
0,519,803,344,445,736,
0,513,791,342,441,726,
0,508,839,368,437,716,
0,503,903,386,432,706,
0,497,909,382,428,696,
0,492,894,379,423,688,
0,487,876,375,419,679,
0,483,861,371,460,763,
0,478,847,368,455,751,
0,472,834,364,451,737,
0,467,822,359,446,728,
0,463,809,357,441,717,
0,458,851,403,438,707,
0,454,856,398,432,697,
0,449,838,393,428,688,
0,445,824,390,423,679,
0,441,812,387,420,732,
0,437,799,383,449,753,
0,433,787,380,444,743,
0,428,775,375,440,729,
0,423,765,371,435,719,
0,420,755,368,431,710,
0,417,878,414,427,700,
0,413,861,409,423,690,
0,409,844,405,418,681,
0,406,830,401,414,672,
0,403,817,398,413,770,
0,399,804,393,408,758,
0,396,792,390,405,747,
0,391,781,385,401,733,
0,388,769,382,398,723,
0,385,759,379,395,713,
0,382,899,401,391,704,
0,379,905,397,387,694,
0,376,887,393,384,684,
0,374,871,390,380,675,
0,371,857,386,427,761,
0,403,843,382,422,749,
0,399,830,379,417,738,
0,393,817,374,414,725,
0,390,804,371,409,715,
0,386,835,371,406,706,
0,383,903,459,401,696,
0,379,910,454,398,686,
0,375,913,449,393,678,
0,371,908,444,390,669,
0,369,883,440,439,748,
0,449,868,435,433,737,
0,444,855,432,429,726,
0,438,841,427,424,713,
0,433,828,423,420,704,
0,430,816,447,416,694,
0,425,803,492,412,685,
0,420,792,487,408,675,
0,417,777,482,403,667,
0,413,767,478,400,664,
0,409,756,472,445,757,
0,549,746,467,440,745,
0,540,736,463,435,735,
0,534,726,457,431,721,
0,527,717,452,427,711,
0,522,773,448,423,702,
0,516,779,444,419,692,
0,511,768,440,414,684,
0,505,753,435,409,675,
0,499,742,432,406,728,
0,496,732,428,439,748,
0,515,721,423,433,737,
0,508,711,420,430,727,
0,502,702,415,425,714,
0,496,694,412,421,704,
0,492,848,463,417,695,
0,487,854,459,413,685,
0,482,839,454,409,676,
0,477,823,449,404,668,
0,472,810,445,412,768,
0,502,798,440,408,755,
0,504,785,436,403,743,
0,496,774,432,399,732,
0,492,763,427,396,719,
0,486,752,423,393,710,
0,481,742,459,390,700,
0,476,732,454,386,691,
0,472,722,449,383,682,
0,467,710,444,379,673,
0,462,701,440,395,761,
0,457,691,435,391,750,
0,453,683,432,387,739,
0,448,675,428,384,728,
0,444,667,423,380,716,
0,440,659,419,376,706,
0,435,651,440,373,696,
0,432,643,435,369,687,
0,428,636,431,367,678,
0,423,627,427,364,670,
0,420,620,423,414,766,
0,494,613,418,409,753,
0,487,606,414,405,743,
0,480,600,411,401,732,
0,476,593,406,397,719,
0,471,587,402,393,710,
0,465,580,399,390,700,
0,461,611,396,386,690,
0,456,684,391,383,681,
0,451,675,389,379,673,
0,483,667,386,436,765,
0,630,656,383,431,753,
0,621,648,380,427,743,
0,611,681,376,423,732,
0,604,892,372,418,719,
0,596,907,430,414,709,
0,590,909,423,410,700,
0,583,894,419,407,690,
0,575,871,415,403,681,
0,569,857,412,399,736,
0,604,844,408,441,776,
0,738,831,403,437,765,
0,727,818,399,432,753,
0,715,806,396,428,743,
0,705,794,391,423,730,
0,696,789,388,420,720,
0,687,901,385,415,711,
0,679,910,382,412,700,
0,670,913,377,408,691,
0,662,910,375,446,798,
0,654,885,371,452,783,
0,647,870,368,448,771,
0,639,856,365,443,760,
0,630,843,362,439,750,
0,623,830,359,434,736,
0,615,900,421,430,726,
0,609,909,423,425,716,
0,602,913,419,422,707,
0,595,916,415,417,697,
0,589,916,411,444,790,
0,583,900,406,440,777,
0,575,877,402,435,766,
0,571,863,399,430,755,
0,563,849,394,425,743,
0,557,836,391,422,731,
0,551,824,387,417,721,
0,546,811,384,414,711,
0,541,799,380,409,702,
0,536,785,376,406,692,
0,531,775,374,428,777,
0,537,764,370,423,766,
0,531,753,367,419,755,
0,526,891,364,415,743,
0,519,894,359,411,733,
0,514,876,356,408,719,
0,510,903,354,403,711,
0,504,908,352,399,701,
0,499,912,348,396,691,
0,496,916,345,392,683,
0,491,918,344,389,768,
0,487,913,340,386,755,
0,481,886,337,383,743,
0,478,871,335,380,734,
0,472,857,332,376,723,
0,468,844,347,373,711,
0,463,903,343,369,701,
0,460,910,339,367,691,
0,455,911,336,364,683,
0,451,889,334,361,713,
0,448,873,331,358,752,
0,463,860,327,355,741,
0,460,846,326,352,730,
0,455,832,323,350,719,
0,448,820,319,347,710,
0,445,888,419,344,698,
0,440,905,415,342,689,
0,436,911,410,339,679,
0,433,914,406,337,671,
0,430,911,402,334,716,
0,426,888,398,332,704,
0,423,871,395,329,695,
0,419,857,391,327,685,
0,415,892,387,324,676,
0,412,907,384,322,668,
0,408,911,508,319,656,
0,404,915,502,318,648,
0,401,917,496,316,641,
0,399,920,490,313,633,
0,395,918,486,311,700,
0,391,893,480,308,689,
0,389,874,476,306,679,
0,386,860,471,304,671,
0,384,847,466,302,662,
0,380,893,460,300,654,
0,376,907,455,298,643,
