=~=~=~=~=~=~=~=~=~=~=~= PuTTY log 2021.04.22 12:44:31 =~=~=~=~=~=~=~=~=~=~=~=
4145,3,432,
0,70,661,143,3,428,
0,,9,680,148,9,399,
0,105,673,147,9,396,
0,103,664,170,9,432,
0,103,654,169,8,427,
0,102,646,167,14,423,
0,102,639,166,15,418,
0,100,631,199,14,414,
0,99,623,163,
0,103,664,170,9,432,
0,103,654,169,8,427,
0,102,646,167,14,423,
0,102,639,166,15,418,
0,100,631,164,14,414,
0,99,623,163,14,411,
0,99,704,163,14,407,
0,98,697,161,14,403,
0,97,689,159,14,399,
0,97,679,159,14,39
0,96,670,158,13,392,
0,96,660,170,13,435,
0,95,654,16StartUp!
120,147,529,172,68,582,
0,147,525,171,68,647,
0,146,520,193,70,642,
0,145,518,192,70,636,
0,143,513,190,69,629,
0,143,508,190,68,624,
0,142,504,188,68,617,
0,142,499,187,68,614,
0,141,497,186,67,608,
0,140,513,185,67,603,
0,139,556,184,66,595,
0,137,548,182,65,588,
0,136,542,180,65,582,
0,135,535,179,65,575,
0,135,528,195,68,647,
0,134,522,192,67,639,
0,133,515,191,67,632,
0,131,510,189,67,623,
0,131,504,188,66,615,
0,130,499,186,65,608,
0,129,551,184,65,601,
0,127,544,183,64,594,
0,127,537,182,64,587,
0,126,531,180,63,582,
0,125,525,183,64,664,
0,124,519,181,67,654,
0,124,512,179,67,646,
0,123,506,179,66,638,
0,121,500,177,65,630,
0,121,495,176,65,622,
0,120,547,174,64,614,
0,119,540,172,63,607,
0,118,536,172,63,603,
0,120,529,171,63,595,
0,120,524,172,63,678,
0,119,519,201,99,667,
0,118,512,199,97,658,
0,117,506,198,96,649,
0,116,500,196,96,643,
0,115,495,195,94,635,
0,114,575,193,94,627,
0,113,567,192,93,620,
1,113,560,190,92,612,
1,152,552,188,92,605,
2,149,545,187,91,627,
3,147,539,222,99,670,
4,147,532,220,97,660,
5,145,526,219,97,652,
5,144,521,216,96,643,
6,143,515,215,96,636,
6,142,536,212,95,627,
7,140,576,211,94,620,
7,139,569,209,93,615,
7,159,562,207,92,608,
7,158,555,206,92,600,
7,157,548,224,99,671,
7,156,541,221,99,662,
8,154,535,219,97,653,
8,152,528,217,97,645,
8,152,522,216,96,636,
8,151,531,214,96,629,
9,149,582,211,95,622,
9,147,575,210,94,614,
8,147,569,207,93,607,
8,161,561,207,92,600,
8,159,555,228,102,665,
8,158,547,226,101,656,
8,157,541,224,99,647,
8,156,534,223,99,639,
8,155,528,220,98,632,
8,153,521,219,97,624,
8,152,590,216,96,619,
7,151,582,215,96,611,
7,150,574,213,95,604,
7,155,568,211,94,596,
7,153,560,212,95,662,
7,152,553,216,96,652,
7,150,546,214,96,643,
7,149,540,211,95,635,
7,147,533,209,94,627,
7,147,527,207,93,620,
7,145,604,206,92,611,
7,144,595,204,92,604,
7,143,587,203,91,598,
7,162,579,201,91,591,
7,161,572,205,90,636,
7,159,564,223,94,663,
7,158,558,221,93,654,
7,156,551,220,92,646,
7,156,544,217,91,637,
7,154,537,216,91,629,
7,153,593,214,89,622,
7,152,583,211,89,614,
7,151,577,211,88,607,
6,156,569,209,88,600,
7,155,563,207,88,615,
6,153,558,207,95,647,
6,152,551,205,95,638,
6,151,543,204,93,631,
6,150,537,201,92,624,
6,148,531,199,92,616,
6,147,543,199,91,609,
6,146,585,198,90,602,
6,145,577,196,89,595,
6,143,570,195,89,588,
6,175,563,193,88,582,
5,173,556,224,88,639,
6,172,549,221,88,632,
5,170,542,219,87,624,
5,168,536,217,87,615,
5,167,531,216,86,608,
5,166,525,214,85,600,
5,164,588,211,84,593,
5,163,580,210,84,587,
5,161,572,208,83,582,
4,172,566,207,83,575,
4,170,559,217,85,632,
4,169,551,216,84,624,
4,167,544,214,83,615,
4,166,538,211,83,608,
4,164,531,210,83,600,
4,163,526,207,82,593,
4,162,607,207,81,586,
4,161,599,205,80,579,
4,159,592,203,79,573,
4,160,584,201,79,567,
3,159,577,207,79,624,
3,158,570,220,92,615,
3,157,563,218,91,609,
3,156,556,216,89,601,
3,155,550,215,89,595,
3,153,543,213,88,588,
3,152,609,211,88,580,
3,151,600,209,87,574,
3,150,592,207,86,568,
3,159,584,207,86,561,
3,158,577,205,85,591,
3,157,570,231,86,616,
3,156,564,228,84,608,
3,154,558,226,83,600,
3,153,551,224,83,593,
3,152,543,223,83,587,
3,151,563,221,82,582,
3,150,592,219,81,575,
3,148,584,217,80,568,
3,156,577,216,80,561,
3,156,569,214,79,556,
3,154,563,212,83,625,
3,152,556,211,83,617,
3,152,548,209,81,609,
3,151,543,207,81,601,
3,149,536,206,80,594,
3,147,531,204,79,588,
2,147,600,203,79,580,
2,145,592,200,79,574,
2,144,584,199,78,568,
2,143,577,198,77,563,
2,142,570,207,77,624,
2,141,563,206,76,615,
2,140,556,204,76,608,
2,140,549,203,76,600,
2,139,543,201,75,593,
1,137,536,199,74,587,
1,135,593,198,73,579,
1,135,585,196,73,573,
2,134,577,195,72,566,
2,134,570,193,71,560,
1,133,564,192,71,639,
1,131,558,198,71,632,
1,131,551,196,71,623,
1,129,543,195,70,615,
1,129,537,193,70,609,
1,127,531,192,69,602,
1,127,614,190,68,595,
1,126,604,188,68,588,
1,125,596,188,67,582,
1,147,588,186,67,575,
1,146,581,184,67,607,
1,144,574,188,70,663,
1,143,567,186,68,654,
1,142,560,185,68,646,
1,141,555,184,67,637,
1,140,547,182,67,630,
1,139,578,180,67,622,
1,137,600,179,66,615,
1,135,592,178,65,608,
1,137,584,176,65,601,
1,135,577,175,64,595,
1,135,570,203,68,655,
0,135,563,200,67,647,
1,133,556,199,67,638,
0,132,549,198,67,630,
1,131,543,195,65,623,
0,130,551,194,65,615,
1,129,588,192,65,608,
0,127,583,191,64,600,
0,127,575,189,63,593,
0,134,568,188,63,587,
0,133,561,214,68,645,
0,131,553,211,70,638,
0,131,547,209,69,630,
0,129,540,207,68,622,
0,129,534,207,67,615,
0,127,527,205,67,607,
0,127,591,203,67,600,
0,126,583,201,66,593,
0,124,575,199,66,586,
0,127,568,198,65,579,
0,126,562,199,65,649,
0,124,556,201,65,639,
0,124,550,199,65,632,
0,123,543,198,64,624,
0,121,536,195,63,616,
0,121,531,195,63,611,
0,120,600,193,63,604,
0,119,591,192,63,596,
0,119,583,190,62,590,
0,126,575,189,62,583,
0,125,568,188,61,610,
0,124,561,201,62,632,
0,123,554,199,62,624,
0,121,547,198,61,615,
0,120,541,196,60,608,
0,120,536,195,60,601,
0,119,584,192,60,594,
0,118,611,192,60,587,
0,117,604,190,59,580,
0,129,595,188,59,575,
0,127,588,187,57,569,
0,127,580,197,59,635,
0,126,572,195,59,627,
0,125,566,194,58,619,
0,124,559,192,57,611,
0,123,551,191,57,604,
0,122,575,189,57,596,
0,121,614,188,56,589,
0,120,604,185,56,583,
0,119,597,184,56,575,
0,120,591,183,56,569,
0,119,583,212,56,636,
0,117,575,210,56,627,
0,116,568,208,56,620,
0,115,561,207,55,614,
0,115,555,204,55,606,
0,113,548,204,54,600,
0,113,594,201,54,591,
0,112,586,199,54,584,
0,112,578,199,53,578,
0,123,571,197,52,572,
0,121,564,199,58,639,
0,120,556,201,60,631,
0,120,550,199,59,623,
0,119,545,198,59,615,
0,118,539,195,58,608,
0,116,532,195,57,600,
0,116,603,192,57,593,
0,115,594,192,56,588,
0,114,587,190,56,581,
0,122,579,188,56,574,
0,121,572,187,56,611,
0,120,564,189,57,632,
0,119,558,188,56,623,
0,118,551,186,56,615,
0,117,543,184,56,608,
0,116,537,184,56,600,
0,115,622,182,55,593,
0,114,615,180,55,586,
0,113,607,179,54,579,
0,112,599,177,54,573,
0,112,591,176,53,591,
0,111,583,177,56,633,
0,110,575,176,55,624,
0,109,568,175,55,616,
0,109,562,174,54,609,
0,108,555,172,54,601,
0,107,583,172,53,595,
0,107,599,170,52,588,
0,105,591,169,52,580,
0,104,583,167,52,574,
0,105,575,166,51,568,
0,104,571,184,52,638,
0,103,563,183,52,630,
0,103,556,181,52,621,
0,102,549,179,51,614,
0,102,543,178,51,608,
0,100,536,176,51,600,
0,99,600,176,51,593,
0,99,591,174,50,587,
0,99,585,172,49,579,
0,103,577,172,49,573,
0,103,570,179,49,650,
0,103,563,182,56,643,
0,102,556,180,56,635,
0,100,550,179,55,627,
0,99,543,178,54,619,
0,99,536,176,54,611,
0,99,611,175,54,604,
0,97,601,174,53,598,
0,97,593,172,52,591,
0,99,585,171,52,584,
0,99,580,169,52,577,
0,98,574,198,56,660,
0,97,566,195,56,652,
0,96,559,194,55,643,
0,96,553,192,55,635,
0,95,547,191,54,628,
0,94,540,189,54,622,
0,94,605,188,54,614,
0,93,599,186,53,606,
0,92,591,185,52,601,
0,93,583,184,52,594,
0,93,575,182,51,606,
0,92,570,182,51,644,
0,92,563,180,51,636,
0,91,556,179,51,630,
0,90,549,177,50,622,
0,89,543,176,50,615,
0,88,537,175,49,607,
0,88,636,174,49,601,
0,88,627,172,49,595,
0,87,620,172,48,588,
0,95,613,170,48,580,
0,94,605,184,48,650,
0,94,597,182,54,639,
0,93,590,180,53,632,
0,92,583,179,53,624,
0,91,576,177,52,618,
0,91,569,176,51,611,
0,90,632,175,51,603,
0,89,624,173,51,596,
0,89,615,172,51,591,
0,98,608,171,50,583,
0,97,600,169,50,577,
0,96,594,188,52,643,
0,96,585,185,52,637,
0,95,579,184,51,628,
0,94,572,183,51,620,
0,93,567,181,51,613,
0,92,560,179,50,608,
0,92,606,179,50,600,
0,91,597,177,49,593,
0,90,591,175,49,587,
0,96,583,174,48,579,
0,96,575,173,48,575,
0,95,569,175,49,632,
0,94,561,173,49,624,
0,93,556,172,48,615,
0,92,550,171,48,610,
0,92,543,169,48,603,
0,91,537,167,47,595,
0,90,603,167,47,588,
0,89,595,166,47,583,
0,89,587,164,46,576,
0,89,579,163,46,570,
0,88,574,164,46,642,
0,88,567,168,47,635,
0,88,560,167,46,627,
0,87,552,167,46,619,
0,86,547,165,46,611,
0,86,541,163,45,606,
0,85,593,163,45,599,
0,84,608,161,44,591,
0,83,603,160,44,583,
0,108,595,159,44,577,
0,106,587,158,44,572,
0,105,579,188,50,625,
0,103,572,185,49,616,
0,103,565,184,49,608,
0,102,558,184,48,601,
0,102,551,182,48,594,
0,100,545,179,47,587,
0,99,615,179,47,579,
0,99,608,177,47,574,
0,98,600,176,46,568,
0,100,591,175,46,562,
0,99,584,173,46,625,
0,99,577,184,46,615,
0,97,572,182,46,608,
0,97,564,179,46,603,
0,96,558,179,45,595,
0,96,551,177,44,588,
0,95,568,176,44,581,
0,94,611,175,44,575,
0,94,603,174,44,569,
0,94,595,172,44,563,
0,99,589,171,43,557,
0,99,582,198,44,620,
0,98,574,195,46,612,
0,97,568,194,46,604,
0,96,561,192,46,596,
0,96,555,191,45,591,
0,94,548,189,44,583,
0,94,631,188,44,577,
0,93,624,187,44,571,
0,92,615,185,44,564,
0,92,607,184,43,560,
0,92,599,183,43,553,
0,91,591,190,56,615,
0,90,585,188,55,607,
0,89,577,186,54,601,
0,88,571,185,54,593,
0,88,563,184,54,587,
0,88,559,183,53,579,
0,87,654,180,52,575,
0,86,643,179,52,568,
0,86,635,178,51,561,
0,110,627,176,51,556,
0,108,620,176,51,625,
0,107,612,192,56,615,
0,106,604,190,55,608,
0,105,596,188,55,600,
0,104,589,187,54,595,
0,103,582,185,54,588,
0,103,664,184,53,581,
0,102,653,182,52,575,
0,101,643,181,52,568,
0,103,635,179,51,561,
0,103,627,178,51,560,
0,102,618,178,52,607,
0,101,610,176,52,599,
0,99,604,175,51,591,
0,99,596,174,51,585,
0,98,589,173,51,579,
0,97,594,172,51,572,
0,97,622,170,50,566,
0,96,614,168,49,560,
0,100,605,167,49,555,
0,108,597,167,49,548,
0,108,590,172,53,601,
0,107,582,171,52,593,
0,105,575,169,52,586,
0,104,568,167,51,579,
0,103,561,167,51,572,
0,103,555,166,51,566,
0,102,619,164,50,559,
0,101,612,163,50,552,
0,100,604,161,49,547,
0,100,596,160,49,541,
0,99,589,180,49,587,
0,99,582,192,54,595,
0,99,574,190,52,588,
0,97,568,188,52,581,
0,97,561,186,51,575,
0,96,555,185,51,568,
0,96,657,184,51,563,
0,95,687,182,50,556,
0,94,676,180,50,551,
0,100,667,179,49,545,
0,100,657,178,49,540,
0,99,649,198,51,616,
0,99,639,195,50,608,
0,98,633,194,50,601,
0,97,625,192,49,595,
0,96,617,191,49,588,
0,96,609,190,48,582,
0,95,665,188,48,575,
0,94,655,186,48,569,
0,93,647,185,48,563,
0,106,638,184,47,557,
0,105,630,182,47,582,
0,103,621,261,51,618,
0,103,613,258,51,610,
0,102,607,255,51,603,
0,101,600,254,50,595,
0,100,591,251,49,588,
0,99,612,249,50,583,
0,99,620,248,49,575,
0,98,611,245,49,569,
0,99,605,243,48,563,
0,102,598,241,48,556,
0,100,590,239,48,604,
0,99,583,238,48,596,
0,99,575,236,48,589,
0,98,571,234,47,582,
0,97,563,231,47,575,
0,96,557,231,46,570,
0,96,571,229,46,563,
0,95,563,227,46,557,
0,94,558,225,46,551,
0,119,551,224,45,544,
0,118,545,222,45,540,
0,116,539,220,57,608,
0,115,533,219,57,600,
0,115,527,217,56,593,
0,113,521,216,56,585,
0,112,515,214,56,579,
0,112,510,212,55,572,
0,111,505,211,55,566,
0,110,499,209,54,559,
0,113,495,207,54,552,
0,112,491,206,53,547,
0,111,486,204,54,614,
0,110,481,204,54,606,
0,110,476,201,52,598,
0,108,472,199,52,591,
0,108,467,199,51,585,
0,107,462,198,51,579,
0,106,519,196,51,572,
0,105,513,195,51,566,
0,103,507,193,50,559,
0,111,501,192,50,552,
0,110,496,192,56,630,
0,109,489,191,56,621,
0,108,484,189,55,613,
0,107,480,188,54,605,
0,105,475,186,54,598,
0,104,470,185,53,591,
0,103,515,184,52,583,
0,103,509,182,52,579,
0,103,503,181,51,572,
0,118,497,179,51,566,
0,116,492,179,51,638,
0,115,486,180,55,628,
0,115,480,179,55,620,
0,113,475,177,54,612,
0,112,470,176,54,604,
0,112,464,175,54,598,
0,111,553,174,52,591,
0,110,548,173,52,583,
0,108,541,172,51,577,
0,116,534,170,51,570,
0,115,527,169,51,627,
0,114,521,167,56,623,
0,113,515,167,55,615,
0,112,509,166,54,608,
0,111,504,164,54,600,
0,110,497,163,54,592,
0,109,528,163,53,585,
0,108,521,161,52,579,
0,108,515,160,52,572,
0,108,508,159,51,566,
0,107,503,158,51,560,
0,106,499,204,59,632,
0,105,492,201,57,624,
0,103,487,199,57,615,
0,103,481,199,56,608,
0,103,476,196,56,603,
0,102,497,195,56,595,
0,101,602,193StartUp!
121,87,455,170,51,604,
0,87,451,169,50,601,
0,86,449,167,50,596,
0,85,445,167,49,591,
0,85,441,167,49,585,
0,84,439,166,49,583,
0,84,436,165,49,647,
0,83,432,170,49,639,
0,83,429,169,48,636,
0,83,427,167,48,630,
0,82,423,167,48,622,
0,81,419,166,48,615,
0,81,415,164,47,609,
0,80,478,163,47,601,
0,79,472,162,47,594,
0,79,467,161,46,589,
0,79,462,159,46,582,
0,78,455,159,46,575,
0,78,453,163,45,639,
0,77,448,161,45,634,
0,76,443,161,44,625,
0,76,438,159,44,617,
0,75,434,158,44,611,
0,75,430,156,44,604,
0,73,440,156,43,598,
0,73,434,155,43,591,
0,72,431,153,43,583,
0,84,425,152,42,579,
0,83,422,152,42,572,
0,83,417,157,41,628,
0,82,414,156,41,623,
0,82,412,156,41,617,
0,81,408,155,40,609,
0,81,404,153,40,601,
0,79,411,152,39,595,
0,79,509,151,39,588,
0,79,503,150,39,583,
0,83,496,149,39,575,
0,116,491,147,39,569,
0,115,486,176,48,642,
0,115,480,182,49,633,
0,113,475,180,49,625,
0,112,470,179,48,617,
0,112,464,177,48,609,
0,111,460,176,48,603,
0,110,580,174,47,596,
0,108,572,173,47,590,
0,108,564,172,46,583,
0,109,557,171,46,575,
0,108,551,169,57,626,
0,108,543,199,57,631,
0,107,536,198,57,623,
1,105,531,195,56,615,
1,104,524,194,56,608,
1,103,519,192,56,600,
1,103,514,191,55,593,
1,102,508,189,54,586,
1,109,503,188,54,579,
1,162,497,187,54,572,
1,159,492,184,56,568,
2,158,487,214,59,625,
2,156,481,212,58,617,
2,156,476,211,57,609,
2,154,472,209,57,602,
2,152,466,207,56,595,
2,152,483,205,56,588,
2,151,477,204,56,581,
3,150,472,202,55,575,
3,147,466,199,55,568,
3,147,462,199,55,561,
2,145,457,216,59,636,
3,144,452,212,58,628,
3,143,448,211,57,620,
3,142,443,209,57,614,
3,141,440,207,56,607,
3,140,471,206,56,600,
3,139,588,204,56,592,
3,137,579,203,55,585,
3,136,572,201,55,579,
2,135,564,199,55,572,
3,135,558,231,57,635,
3,134,551,227,57,626,
3,132,543,225,56,618,
3,131,537,224,56,611,
3,131,533,222,56,603,
3,129,527,220,55,595,
3,128,567,217,55,588,
2,127,559,216,54,582,
2,127,551,214,54,576,
2,126,545,212,54,570,
2,125,539,211,55,623,
2,124,531,210,54,628,
2,124,526,208,54,620,
2,123,519,207,53,613,
2,121,514,205,52,606,
2,120,508,204,52,598,
2,120,550,202,51,591,
2,119,543,199,51,583,
2,118,537,199,51,577,
2,118,531,198,51,571,
2,116,524,196,51,604,
2,115,519,195,54,628,
2,115,512,193,54,623,
2,114,507,192,53,615,
2,113,501,191,52,607,
2,112,496,190,52,600,
2,112,494,188,51,593,
2,111,487,187,51,585,
3,110,483,185,51,579,
2,109,478,184,51,572,
2,108,472,183,50,566,
2,108,467,188,51,560,
2,107,463,186,51,553,
2,106,460,184,50,547,
2,105,455,183,49,542,
2,104,450,182,49,536,
3,103,484,180,49,532,
2,103,608,179,48,527,
2,102,600,177,48,521,
2,102,592,176,48,515,
2,102,584,175,48,511,
3,100,577,193,51,583,
2,100,569,191,51,575,
3,99,563,189,50,569,
2,99,558,188,50,563,
2,97,551,186,49,558,
2,97,543,185,49,551,
3,96,588,184,48,544,
3,96,582,182,48,539,
3,95,574,180,48,534,
2,100,568,179,48,528,
2,99,560,178,47,523,
2,99,553,198,47,588,
2,98,547,195,47,582,
2,97,541,193,47,575,
2,96,535,192,46,569,
2,96,529,191,45,563,
2,95,537,190,45,556,
2,94,674,188,45,551,
2,94,664,187,44,545,
2,93,655,185,44,539,
1,94,647,184,44,534,
2,93,639,190,44,582,
2,92,631,198,44,595,
2,92,622,195,43,587,
2,91,615,194,43,579,
1,90,608,192,43,575,
2,89,601,192,42,568,
1,89,593,190,41,561,
1,88,588,188,41,555,
1,88,580,187,41,550,
1,96,574,185,40,543,
1,95,568,184,40,538,
1,94,563,199,40,587,
1,94,556,197,41,580,
1,92,550,195,39,574,
1,92,543,194,39,567,
1,91,539,192,39,560,
1,91,532,191,39,553,
1,89,622,190,39,548,
1,89,612,188,39,543,
1,88,604,187,39,536,
1,95,599,185,38,531,
1,94,591,184,38,527,
1,94,583,184,39,593,
1,92,575,182,39,585,
1,92,571,180,39,578,
1,91,563,179,39,573,
1,89,557,178,38,567,
1,89,550,177,38,560,
1,88,622,175,37,553,
1,88,613,174,37,549,
1,88,604,173,36,543,
1,143,596,172,36,536,
0,141,589,171,36,607,
1,140,582,179,36,599,
1,138,574,177,36,591,
1,137,568,176,35,583,
0,135,562,174,35,577,
1,135,555,173,35,570,
1,134,548,172,35,563,
1,132,542,170,35,557,
0,131,536,169,34,551,
1,130,529,167,34,546,
0,129,524,167,34,540,
0,129,519,198,35,579,
0,127,512,196,34,572,
0,126,507,194,34,565,
0,125,502,192,33,559,
0,124,496,191,33,551,
0,124,577,190,33,545,
0,123,568,188,33,540,
0,121,563,187,32,534,
0,126,556,184,32,527,
0,124,548,184,31,522,
0,124,542,199,34,586,
0,122,536,196,34,580,
0,121,529,195,33,574,
0,120,523,193,33,567,
0,120,516,192,33,560,
0,119,511,191,32,553,
0,118,504,189,32,547,
0,116,499,188,31,541,
0,115,494,185,31,536,
0,115,488,184,31,529,
0,115,484,190,33,595,
0,114,480,188,33,588,
0,113,475,185,32,580,
0,112,470,184,31,574,
0,112,465,183,31,567,
0,111,461,182,31,562,
0,110,500,179,31,556,
0,109,495,178,31,550,
0,108,488,177,31,543,
0,135,483,176,31,536,
0,133,478,175,30,595,
0,132,472,206,30,586,
0,131,467,204,30,579,
0,129,462,202,30,572,
0,128,457,199,30,565,
0,127,454,199,29,559,
0,127,585,197,29,551,
0,126,575,195,29,546,
0,124,568,193,28,540,
0,124,561,192,28,536,
0,123,554,191,28,534,
0,121,547,196,29,589,
0,120,540,195,29,582,
0,120,534,193,29,575,
0,119,527,192,28,568,
0,118,521,190,28,561,
0,117,615,188,28,555,
0,116,624,187,28,548,
0,115,615,185,28,542,
0,131,607,184,28,536,
0,130,601,183,28,531,
0,129,593,201,30,588,
0,127,585,199,30,581,
0,127,578,198,30,574,
0,126,571,196,29,569,
0,124,564,194,29,563,
0,124,558,193,28,556,
0,123,590,192,28,550,
0,122,582,190,28,543,
0,121,574,188,28,537,
0,120,568,187,28,531,
0,119,560,206,31,596,
0,118,553,204,31,588,
0,117,547,201,31,581,
0,116,542,199,30,574,
0,115,536,199,30,568,
0,114,529,197,30,561,
0,113,685,195,30,554,
0,112,674,193,29,549,
0,112,664,192,29,543,
0,111,655,191,28,537,
0,110,647,190,33,616,
0,109,638,190,34,608,
0,108,630,189,33,600,
0,108,621,188,33,592,
0,107,613,185,33,585,
0,106,606,184,32,579,
0,105,773,183,32,572,
0,104,763,182,32,565,
0,103,751,180,31,559,
0,103,739,179,31,552,
0,102,728,177,31,598,
0,102,718,178,35,599,
0,100,707,176,34,591,
0,99,698,176,34,583,
0,99,688,174,33,576,
0,98,681,173,33,569,
0,97,731,172,33,565,
0,97,769,171,32,559,
0,96,758,169,32,551,
0,96,748,167,31,546,
0,95,737,167,31,542,
0,94,728,172,34,606,
0,94,716,189,35,598,
0,93,708,187,34,591,
0,92,699,185,33,583,
0,92,689,184,33,578,
0,91,679,183,33,571,
0,90,671,181,33,564,
0,89,664,180,32,558,
0,89,655,178,31,553,
0,90,647,177,31,547,
0,89,639,176,31,542,
0,89,633,179,36,604,
0,88,625,177,35,598,
0,88,617,176,35,590,
0,87,610,174,35,583,
0,87,604,173,35,575,
0,86,598,172,35,571,
0,86,590,171,34,564,
0,84,583,169,34,558,
0,84,578,167,33,551,
0,83,572,167,33,547,
0,83,566,166,33,557,
0,83,560,167,35,600,
0,81,554,165,35,593,
0,81,548,163,35,588,
0,81,542,163,35,580,
0,80,536,161,34,574,
0,79,547,160,34,567,
0,79,620,159,33,562,
0,79,612,159,33,556,
0,78,604,158,33,550,
0,79,599,156,33,543,
0,79,591,175,33,608,
0,78,583,173,35,601,
0,78,575,172,34,594,
0,77,568,169,34,587,
0,76,563,167,33,579,
0,76,556,167,33,575,
0,76,551,166,33,568,
0,75,543,164,33,561,
0,75,539,163,33,555,
0,81,533,162,32,551,
0,81,527,161,32,543,
0,80,521,190,38,618,
0,79,518,188,37,610,
0,79,512,185,37,604,
0,78,507,184,36,596,
0,78,502,183,35,590,
0,77,497,181,35,583,
0,76,496,179,35,577,
0,76,491,179,35,571,
0,75,486,177,35,564,
0,87,483,176,35,558,
0,86,478,175,34,553,
0,85,473,185,35,558,
0,84,468,184,34,551,
0,83,465,182,34,545,
0,83,460,180,34,540,
0,82,455,179,34,535,
0,81,492,177,33,528,
0,80,531,176,33,523,
0,79,524,175,33,518,
0,81,518,174,32,514,
0,108,512,172,31,508,
0,107,505,171,34,571,
0,106,499,180,33,563,
0,105,494,179,33,556,
0,103,488,177,33,550,
0,103,483,176,33,543,
0,103,489,174,32,537,
0,102,687,172,32,531,
0,101,718,172,31,526,
0,100,707,170,31,519,
0,99,696,168,31,515,
0,99,687,167,31,519,
0,97,677,167,31,566,
0,97,670,166,31,559,
0,96,660,164,31,553,
0,95,652,163,31,547,
0,95,643,162,31,540,
0,94,638,161,30,535,
0,94,629,159,30,530,
0,92,621,159,30,524,
0,92,614,158,30,518,
0,92,608,156,29,513,
0,91,600,171,33,579,
0,90,593,179,36,583,
0,89,586,177,36,575,
0,88,580,176,35,568,
0,88,574,174,35,563,
0,88,568,173,35,556,
0,87,636,172,35,550,
0,86,629,170,34,543,
0,86,620,168,34,537,
0,88,612,167,33,533,
0,87,604,167,33,527,
0,86,596,167,36,591,
0,86,591,167,37,583,
0,84,583,165,37,579,
0,84,575,164,36,572,
0,83,568,163,36,565,
0,83,563,161,35,558,
0,82,563,160,35,553,
0,81,556,159,35,547,
0,81,550,158,35,541,
0,83,545,157,35,536,
0,81,539,156,35,531,
0,81,534,191,39,596,
0,80,527,188,39,589,
0,79,523,187,39,582,
0,79,518,185,39,575,
0,79,512,184,39,569,
0,78,507,183,38,563,
0,78,530,180,38,556,
0,77,524,179,38,551,
0,78,517,178,37,545,
0,87,511,177,36,540,
0,86,506,176,39,600,
0,86,501,184,38,593,
0,85,496,184,38,585,
0,84,491,182,38,579,
0,83,487,180,38,572,
0,83,482,179,37,565,
0,82,536,177,36,560,
0,81,537,176,36,553,
0,81,531,175,35,547,
0,92,526,173,35,542,
0,91,519,172,35,537,
0,91,513,185,39,608,
0,89,508,184,39,599,
0,88,503,182,39,591,
0,88,497,180,39,585,
0,88,492,179,38,579,
0,87,486,177,38,572,
0,86,584,176,37,566,
0,85,575,175,37,560,
0,84,568,174,36,555,
0,123,561,172,36,548,
0,121,554,171,36,542,
0,120,547,185,39,604,
0,119,540,184,38,595,
0,118,534,182,38,588,
0,116,529,180,38,582,
0,115,524,179,38,575,
0,115,545,177,37,568,
0,113,587,176,36,563,
0,113,579,175,36,556,
0,112,571,173,36,550,
0,111,564,172,35,543,
0,110,557,184,37,605,
0,110,550,183,36,596,
0,108,543,181,36,590,
0,108,537,179,36,583,
0,107,531,178,35,575,
0,106,572,176,35,568,
0,105,638,175,35,562,
0,103,631,174,35,556,
0,103,622,172,35,550,
0,109,614,171,34,543,
0,108,606,187,45,615,
0,107,598,184,46,610,
0,106,590,183,45,602,
0,105,583,181,45,595,
0,104,575,179,44,588,
0,103,568,178,44,581,
0,103,624,177,44,574,
0,102,615,176,44,568,
0,102,607,174,43,560,
0,106,599,172,43,555,
0,105,591,171,46,615,
0,103,585,178,45,607,
0,103,578,176,44,599,
0,103,571,175,44,591,
0,102,564,174,44,583,
0,101,558,172,44,579,
0,99,623,171,43,572,
0,99,614,169,43,566,
0,99,607,167,42,559,
0,103,600,167,42,553,
0,103,591,166,42,547,
0,102,583,194,46,607,
0,100,576,192,45,601,
0,100,569,191,45,593,
0,99,563,189,44,586,
0,99,556,188,44,579,
0,98,551,186,44,572,
0,97,551,184,44,568,
0,96,544,184,43,561,
0,96,538,182,43,555,
0,100,531,180,42,548,
0,99,527,183,42,602,
0,99,521,182,41,595,
0,98,516,180,41,588,
0,97,510,179,41,582,
0,96,505,177,40,574,
0,96,500,176,39,569,
0,95,556,175,39,563,
0,94,548,174,39,556,
0,94,543,172,39,550,
0,110,536,171,39,543,
0,108,530,169,39,537,
0,108,524,185,46,608,
0,107,518,184,45,600,
0,105,511,182,45,591,
0,105,505,181,44,585,
0,103,499,179,44,578,
0,103,494,178,44,571,
0,102,538,176,43,564,
0,102,531,175,43,558,
0,100,524,174,42,551,
0,101,518,172,43,545,
0,100,512,189,56,615,
0,99,508,187,56,608,
0,99,502,185,55,601,
0,98,496,184,55,594,
0,97,491,183,54,587,
0,96,487,181,54,580,
0,96,481,179,53,575,
0,95,476,178,52,568,
0,94,472,177,52,561,
0,96,468,176,51,556,
0,96,463,174,51,551,
0,95,460,206,52,615,
0,95,455,204,51,606,
0,94,451,202,51,599,
0,93,448,199,51,593,
0,92,443,199,50,586,
0,92,440,198,50,579,
0,91,486,195,49,572,
0,90,480,194,49,568,
0,89,473,193,49,561,
0,89,468,192,48,555,
0,88,464,190,51,617,
0,88,459,201,51,620,
0,87,454,199,51,611,
0,87,449,198,51,604,
0,86,446,196,50,596,
0,86,440,195,50,589,
0,84,464,193,49,583,
0,84,498,192,49,577,
0,83,492,191,48,571,
0,85,487,189,48,564,
0,99,481,188,48,559,
0,99,476,200,49,627,
0,98,471,217,48,619,
0,97,467,216,48,611,
0,96,462,214,48,605,
0,96,456,212,47,598,
0,95,451,211,47,591,
0,94,508,209,46,583,
0,93,502,207,46,579,
0,92,496,206,46,572,
0,115,489,204,45,566,
0,114,483,202,45,559,
0,113,479,206,45,610,
0,112,473,204,44,603,
0,111,467,203,44,595,
0,110,463,201,44,588,
0,109,459,199,44,581,
0,108,459,198,43,574,
0,107,527,196,43,569,
0,106,521,195,43,563,
0,105,515,193,41,556,
0,104,509,192,41,551,
0,103,504,202,47,611,
0,103,497,199,47,603,
0,103,492,199,46,595,
0,102,486,196,46,588,
0,100,480,195,45,580,
0,99,476,193,45,574,
0,99,585,192,44,569,
0,98,577,191,44,563,
0,97,569,190,44,556,
0,99,564,188,44,550,
0,98,557,187,45,547,
0,97,551,198,46,601,
0,96,543,196,45,593,
0,96,539,195,45,587,
0,95,532,193,44,579,
0,94,526,192,44,574,
0,94,569,190,44,568,
0,92,607,188,44,561,
0,92,600,187,43,555,
0,95,592,185,43,550,
0,103,584,184,43,543,
0,102,578,210,41,583,
0,100,570,208,41,575,
0,99,563,207,41,569,
0,99,558,205,41,563,
0,98,551,203,40,558,
0,97,544,201,39,551,
0,97,649,199,39,544,
0,96,641,199,39,539,
0,95,633,197,39,535,
0,109,624,195,39,528,
0,108,615,194,39,523,
0,107,608,201,39,577,
0,106,600,199,38,571,
0,105,592,198,38,563,
0,103,585,196,38,557,
0,103,577,195,38,551,
0,103,671,193,37,543,
0,102,711,192,36,537,
0,101,704,190,36,531,
0,102,693,188,35,526,
0,100,684,187,35,520,
0,99,674,185,36,582,
0,99,664,184,35,574,
0,98,655,184,35,568,
0,97,648,182,35,560,
0,96,639,180,35,555,
0,96,632,179,35,549,
0,95,679,178,34,543,
0,94,671,177,34,536,
0,94,663,176,33,531,
0,93,654,175,33,526,
0,92,645,173,35,529,
0,92,639,209,36,583,
0,91,630,207,35,577,
0,90,622,206,35,571,
0,89,614,204,35,564,
0,89,608,202,35,557,
0,88,601,199,34,552,
0,88,593,199,34,546,
0,87,587,198,33,540,
0,86,582,195,33,534,
0,86,575,195,33,527,
0,85,568,193,33,560,
0,84,561,192,33,553,
0,83,556,190,33,546,
0,83,551,188,33,540,
0,83,543,187,32,536,
0,82,538,186,31,529,
0,81,638,184,31,523,
0,81,630,184,31,518,
0,80,620,182,31,513,
0,79,612,180,31,508,
0,79,604,179,32,504,
0,79,600,184,48,574,
0,78,591,182,48,568,
0,78,583,180,47,561,
0,77,575,179,47,555,
0,76,571,177,46,548,
0,76,563,176,46,543,
0,76,628,175,46,537,
0,75,620,174,45,531,
0,75,613,172,45,526,
0,79,605,171,44,521,
0,79,598,170,44,515,
0,78,590,184,44,597,
0,77,583,182,44,590,
0,77,576,180,44,583,
0,76,569,179,44,576,
0,76,563,177,43,569,
0,75,558,176,43,563,
0,75,564,175,42,557,
0,73,556,174,41,551,
0,73,550,172,41,545,
0,80,543,171,41,540,
0,79,539,169,44,611,
0,79,532,183,44,604,
0,78,527,182,44,595,
0,78,521,180,43,588,
0,77,517,179,43,581,
0,76,511,177,42,575,
0,76,550,176,41,569,
0,75,551,174,41,563,
0,75,545,173,41,556,
0,76,539,172,40,551,
0,77,531,171,40,545,
0,76,526,181,40,615,
0,76,520,179,39,607,
0,76,515,177,39,601,
0,75,508,176,39,593,
0,74,503,175,39,587,
0,73,499,174,39,579,
0,73,508,172,39,575,
0,72,502,171,38,568,
0,71,496,169,38,561,
0,71,492,168,38,555,
0,71,487,167,37,551,
0,71,482,203,37,600,
0,71,477,200,36,593,
0,70,473,199,36,585,
0,70,469,198,36,578,
0,69,464,196,35,573,
0,68,460,195,35,567,
0,68,583,193,35,560,
0,67,577,192,35,553,
0,69,569,190,35,549,
0,71,563,188,35,543,
0,70,556,187,39,591,
0,70,551,191,39,612,
0,68,543,189,39,607,
0,67,537,188,39,600,
0,67,531,186,39,591,
0,67,526,184,38,584,
0,67,558,184,38,579,
0,66,628,182,38,573,
0,66,620,180,38,567,
0,70,614,179,37,560,
0,83,606,177,36,556,
0,82,598,177,41,621,
0,81,590,187,41,611,
0,81,584,185,40,604,
0,79,577,184,39,599,
0,79,570,183,39,591,
0,79,563,181,39,583,
0,78,675,179,39,577,
0,78,664,177,39,572,
0,77,655,177,39,566,
0,79,646,176,38,559,
0,80,639,174,38,553,
0,79,632,191,39,616,
0,79,622,190,39,610,
0,79,614,188,39,602,
0,78,606,186,38,595,
0,77,600,184,38,588,
0,76,593,183,38,583,
0,76,712,182,37,575,
0,75,702,180,37,569,
0,75,694,179,36,563,
0,91,684,177,36,558,
0,89,674,176,36,551,
0,89,664,184,36,612,
0,88,658,182,35,604,
0,88,649,180,35,599,
0,87,639,179,35,591,
0,86,632,177,35,583,
0,86,627,176,35,577,
0,84,620,175,35,572,
0,84,611,174,34,566,
0,83,604,172,34,560,
0,83,599,171,33,553,
0,83,591,176,38,608,
0,82,583,177,37,620,
0,81,577,176,36,611,
0,80,572,174,36,604,
0,79,566,172,36,599,
0,79,559,172,35,591,
0,79,552,170,35,584,
0,78,548,168,35,577,
0,78,542,167,35,571,
0,79,536,167,35,567,
0,79,530,166,34,560,
0,78,524,173,35,616,
0,78,519,172,35,608,
0,76,515,170,35,603,
0,76,509,169,35,595,
0,76,504,167,34,588,
0,75,499,166,34,581,
0,75,495,165,34,575,
0,74,489,164,33,569,
0,73,484,163,33,563,
0,106,480,161,33,556,
0,104,476,160,33,568,
0,103,472,169,33,607,
0,103,467,167,33,600,
0,102,462,167,32,591,
0,100,457,165,32,587,
0,99,472,164,31,579,
0,99,467,163,31,573,
0,98,463,161,31,567,
0,97,457,159,31,561,
0,97,454,159,31,555,
0,98,449,158,31,548,
0,97,446,184,31,610,
0,96,441,182,31,601,
0,96,438,180,31,596,
0,95,433,179,31,589,
0,94,429,177,31,582,
0,93,427,176,31,575,
0,92,499,175,30,569,
0,92,492,174,30,563,
0,92,486,172,30,557,
0,118,481,171,30,551,
0,116,476,169,30,544,
0,115,471,179,31,602,
0,114,465,178,31,595,
0,112,460,176,31,590,
0,112,455,175,31,582,
0,111,450,174,31,575,
0,110,467,172,31,568,
0,109,504,171,30,561,
0,108,498,169,30,556,
0,108,492,167,30,549,
0,112,487,167,30,543,
0,111,481,188,35,615,
0,110,476,186,35,606,
0,109,471,184,35,599,
0,108,466,183,35,591,
0,107,461,182,34,584,
0,107,455,180,33,577,
0,105,563,178,33,571,
0,104,556,177,33,566,
0,103,548,176,32,559,
0,104,542,175,32,552,
0,103,536,173,36,596,
0,103,528,172,36,588,
0,102,523,172,35,582,
0,102,516,170,35,574,
0,100,510,168,35,568,
0,99,506,167,35,561,
0,99,500,166,34,556,
0,98,495,165,34,550,
0,97,489,163,33,543,
0,131,484,162,33,537,
0,129,480,161,39,556,
0,128,475,189,45,596,
0,127,470,188,44,590,
0,127,465,185,44,582,
0,125,460,184,44,575,
0,124,455,183,43,570,
0,123,472,181,43,563,
0,122,476,179,42,557,
0,121,471,179,42,551,
0,120,465,177,41,544,
0,126,460,176,41,539,
0,124,455,194,52,599,
0,124,450,192,52,591,
0,122,445,191,51,583,
0,121,440,189,51,576,
0,120,438,187,51,569,
0,120,433,185,50,563,
0,118,550,184,49,556,
0,117,542,183,49,551,
0,116,536,181,48,546,
0,132,529,179,48,540,
0,131,523,201,54,608,
0,130,516,199,53,600,
0,129,510,198,52,591,
0,127,504,195,51,584,
0,127,498,194,51,577,
0,126,493,192,51,571,
0,125,508,191,50,563,
0,124,502,189,50,558,
0,123,496,188,50,551,
0,131,492,186,49,545,
0,130,487,184,51,593,
0,129,481,185,51,585,
0,127,476,184,51,579,
0,127,471,183,51,573,
0,126,465,181,50,567,
0,124,460,179,49,560,
0,124,455,179,49,553,
0,123,451,177,49,547,
0,121,447,176,48,541,
0,124,442,175,48,536,
0,124,438,173,50,555,
0,123,433,184,51,595,
0,121,429,182,51,588,
0,120,426,180,51,581,
0,120,422,179,50,574,
0,119,419,177,49,568,
0,118,459,176,49,560,
0,116,463,175,48,556,
0,115,459,173,48,550,
0,126,454,172,48,543,
0,125,448,171,48,537,
0,124,443,186,48,606,
0,123,439,184,48,598,
0,122,433,183,48,590,
0,121,429,181,47,583,
0,120,424,179,47,575,
0,119,476,178,47,569,
0,118,552,176,46,563,
0,117,545,175,46,556,
0,117,539,174,45,551,
0,119,531,172,45,544,
0,118,526,199,56,625,
0,117,519,196,56,616,
0,115,513,195,56,608,
0,115,507,194,56,601,
0,114,501,192,55,594,
0,113,496,191,54,587,
0,112,515,189,54,579,
0,112,510,187,53,573,
0,111,504,185,52,567,
0,115,497,184,52,560,
0,115,494,184,54,641,
0,113,487,188,54,632,
0,113,483,186,53,624,
0,112,477,185,52,615,
0,111,472,184,52,611,
0,110,467,182,51,604,
0,109,508,180,51,596,
0,108,502,179,51,589,
0,108,496,177,50,582,
0,109,490,176,50,575,
0,108,484,175,50,595,
0,107,479,193,53,632,
0,106,473,192,52,624,
0,105,468,190,52,616,
0,104,463,188,51,609,
0,103,460,187,51,601,
0,103,487,185,51,594,
0,102,481,184,50,587,
0,101,476,183,50,582,
0,127,471,181,49,575,
0,126,465,179,49,568,
0,125,460,189,49,626,
0,124,455,187,49,618,
0,123,449,185,48,610,
0,122,446,184,48,603,
0,121,440,182,48,595,
0,120,484,181,47,588,
0,119,498,179,47,582,
0,118,492,178,46,575,
0,119,487,176,46,568,
0,121,482,175,46,562,
0,120,477,216,46,626,
0,120,472,214,45,617,
0,119,466,211,45,611,
0,118,460,210,44,604,
0,116,455,207,44,597,
0,116,451,207,44,590,
0,115,593,205,43,583,
0,114,585,204,43,575,
0,113,577,202,43,569,
0,148,569,199,43,563,
0,147,563,199,44,643,
0,146,556,197,44,634,
0,144,551,195,44,626,
0,143,543,194,43,618,
0,142,537,192,43,611,
0,141,531,191,43,603,
0,140,543,190,43,598,
0,139,536,188,41,591,
0,137,529,187,41,583,
0,136,524,185,41,577,
0,135,518,184,41,602,
0,135,512,183,41,625,
0,134,506,182,39,617,
0,132,500,180,39,609,
0,131,496,179,39,602,
0,130,490,177,39,595,
0,129,515,176,39,588,
0,127,508,175,39,581,
0,127,503,173,39,575,
0,126,496,172,38,568,
0,126,491,171,38,563,
0,124,486,176,45,624,
0,124,480,174,45,615,
0,123,475,173,44,608,
0,121,470,172,44,600,
0,121,465,170,44,593,
0,120,502,169,43,586,
0,120,497,167,43,579,
0,118,492,167,42,572,
0,118,486,165,41,566,
0,116,482,163,42,560,
0,115,476,169,47,632,
0,115,471,167,47,623,
0,114,465,167,46,615,
0,113,460,165,46,609,
0,112,455,163,45,602,
0,112,451,163,44,595,
0,111,447,161,44,588,
0,110,442,160,44,580,
0,109,438,159,44,575,
0,125,433,159,44,568,
0,124,430,159,46,624,
0,123,425,166,45,615,
0,121,422,163,45,608,
0,120,417,163,44,600,
0,120,415,161,44,592,
0,119,411,159,44,585,
0,118,460,159,43,579,
0,116,455,158,43,572,
0,115,449,156,43,568,
0,120,444,155,42,561,
0,118,440,155,44,609,
0,118,435,190,50,623,
0,116,430,188,49,615,
0,115,425,187,49,607,
0,115,421,185,48,600,
0,113,416,184,48,593,
0,113,508,182,48,585,
0,112,500,180,48,579,
0,111,496,179,47,572,
0,111,491,177,46,566,
0,110,484,176,47,596,
0,109,480,192,48,622,
0,108,473,190,48,615,
0,107,468,188,47,608,
0,107,463,187,47,600,
0,105,458,185,46,593,
0,105,491,184,46,586,
0,103,484,182,46,579,
0,103,479,181,45,572,
0,108,473,179,45,566,
0,122,467,177,44,560,
0,121,463,178,45,626,
0,120,459,177,45,618,
0,119,454,176,44,611,
0,118,448,174,44,603,
0,116,444,172,44,595,
0,115,451,171,44,590,
0,115,524,170,43,583,
0,113,518,168,43,575,
0,113,511,167,43,570,
0,135,504,167,41,563,
0,134,499,204,41,595,
0,133,493,215,41,588,
0,131,487,211,41,580,
0,131,482,210,40,574,
0,129,476,208,39,568,
0,128,472,207,39,560,
0,127,516,205,39,553,
0,126,509,203,39,548,
0,126,503,201,39,542,
0,129,497,199,39,537,
0,127,491,199,39,583,
0,127,486,197,39,587,
0,126,480,196,39,579,
0,125,475,194,39,572,
0,124,470,193,39,566,
0,123,464,192,38,559,
0,121,512,190,38,552,
0,121,505,188,38,546,
0,120,499,187,37,540,
0,120,496,185,37,534,
0,120,489,184,37,577,
0,119,483,183,38,604,
0,118,478,182,38,596,
0,116,473,179,38,591,
0,115,467,178,37,583,
0,115,463,177,36,577,
0,114,545,176,36,570,
0,113,544,175,36,563,
0,112,537,173,35,557,
0,112,531,172,35,551,
0,111,524,171,35,544,
0,111,519,171,35,606,
0,110,512,169,35,598,
0,109,506,167,35,591,
0,108,502,167,34,583,
0,107,496,166,34,576,
0,107,491,164,33,569,
0,105,486,163,33,563,
0,104,480,162,33,559,
0,129,475,161,33,551,
0,131,470,159,32,546,
0,129,465,188,33,614,
0,128,460,185,32,606,
0,127,455,184,32,598,
0,126,451,183,31,591,
0,125,446,181,31,583,
0,124,441,179,31,576,
0,123,511,178,31,569,
0,122,506,176,31,563,
0,121,500,175,30,557,
0,120,495,174,30,551,
0,120,489,174,38,619,
0,118,483,172,37,611,
0,117,478,171,36,604,
0,116,472,169,36,596,
0,115,467,167,35,590,
0,115,462,167,35,583,
0,114,532,166,35,575,
0,113,525,164,35,569,
0,112,519,163,35,563,
0,112,513,161,34,556,
0,111,507,160,34,579,
0,110,502,159,34,583,
0,109,496,159,34,577,
0,108,491,157,33,569,
0,108,485,156,33,563,
0,107,480,155,33,558,
0,105,474,153,32,551,
0,104,469,152,32,545,
0,103,463,152,32,540,
0,108,459,151,31,534,
0,107,455,150,31,528,
0,106,449,158,31,550,
0,105,445,156,31,543,
0,103,440,155,31,537,
0,103,435,153,31,531,
0,103,433,152,30,525,
0,102,428,151,30,519,
0,101,515,150,30,514,
0,100,509,148,30,509,
0,137,503,147,29,505,
0,135,497,146,29,500,
0,135,492,161,29,568,
0,133,486,159,29,560,
0,132,480,158,29,553,
0,131,474,157,28,547,
0,130,470,156,28,541,
0,129,463,155,28,535,
0,127,496,153,28,528,
0,127,491,152,28,523,
0,126,484,151,27,517,
0,125,480,150,27,511,
0,124,475,156,27,568,
0,123,470,155,27,560,
0,121,463,153,27,555,
0,121,459,152,26,547,
0,120,455,151,25,542,
0,119,449,150,25,536,
0,118,504,148,25,529,
0,117,496,147,25,524,
0,116,491,147,25,518,
0,115,485,145,25,512,
0,114,480,144,25,563,
0,113,474,176,25,568,
0,112,468,174,24,561,
0,112,464,172,24,555,
0,111,460,171,24,548,
0,110,455,169,24,542,
0,109,551,167,24,536,
0,108,583,167,24,531,
0,108,575,165,24,525,
0,107,568,163,24,519,
0,106,560,163,23,514,
0,105,554,161,23,580,
0,103,547,160,23,573,
0,103,540,159,23,566,
0,103,534,158,23,560,
0,102,527,156,22,552,
0,101,579,156,22,546,
0,100,575,154,22,540,
0,99,568,153,22,534,
0,99,560,152,22,529,
0,99,553,151,22,524,
0,98,548,152,21,582,
0,97,541,151,22,574,
0,96,536,151,22,568,
0,96,528,148,22,562,
0,96,523,147,21,556,
0,95,518,146,22,548,
0,94,532,145,21,543,
0,93,526,145,20,537,
0,92,519,143,20,531,
0,92,515,143,20,526,
0,92,508,142,20,521,
0,91,504,176,20,591,
0,91,497,174,20,583,
0,89,494,172,20,577,
0,89,487,171,19,572,
0,88,483,170,19,565,
0,88,478,168,20,559,
0,88,555,167,19,551,
0,87,547,166,19,547,
0,86,540,165,19,541,
0,86,534,163,19,536,
0,86,528,162,19,583,
0,84,522,161,19,577,
0,84,516,159,19,570,
0,83,510,159,18,563,
0,83,505,158,18,557,
0,82,500,156,18,550,
0,82,531,156,18,545,
0,81,600,154,17,540,
0,80,592,152,17,533,
0,80,587,152,17,527,
0,84,579,151,17,523,
0,83,572,156,17,582,
0,83,564,158,17,574,
0,82,560,156,17,567,
0,81,553,156,17,561,
0,81,546,155,16,555,
0,80,540,153,17,548,
0,79,606,152,16,543,
0,79,599,151,16,537,
0,79,591,150,16,531,
0,83,583,148,15,526,
0,83,577,147,15,520,
0,82,571,158,16,580,
0,81,563,156,15,573,
0,81,556,155,15,566,
0,80,551,154,15,560,
0,79,544,152,15,554,
0,79,538,152,15,548,
0,79,575,151,15,542,
0,78,569,149,15,536,
0,77,562,148,15,531,
0,125,556,147,15,526,
0,123,548,151,15,547,
0,122,542,169,15,563,
0,121,536,167,15,556,
0,120,529,166,15,550,
0,120,523,164,14,543,
0,118,517,163,14,536,
0,118,607,162,14,531,
0,116,598,160,14,524,
0,115,591,159,14,519,
0,115,583,158,14,513,
0,113,575,156,14,526,
0,112,569,161,14,569,
0,112,562,159,14,563,
0,111,555,158,14,557,
0,110,548,157,14,551,
0,109,542,156,13,543,
0,108,551,155,13,537,
0,108,590,153,13,531,
0,107,583,152,13,526,
0,105,575,152,13,519,
0,105,568,150,12,515,
0,105,561,167,15,577,
0,103,553,166,14,570,
0,103,548,164,15,563,
0,102,542,163,14,556,
0,102,536,161,14,550,
0,100,529,160,14,543,
0,99,574,159,14,539,
0,99,566,158,14,532,
0,99,559,156,13,527,
0,98,553,156,13,521,
0,97,547,173,13,571,
0,96,540,180,15,571,
0,96,534,179,15,563,
0,95,529,177,14,557,
0,94,523,176,14,551,
0,94,517,175,14,545,
0,93,547,173,14,540,
0,92,542,172,14,534,
0,92,536,171,14,529,
0,112,529,169,13,524,
0,113,523,167,13,518,
0,112,516,169,13,575,
0,111,510,168,13,567,
0,110,504,167,13,560,
0,109,499,166,12,553,
0,108,494,164,12,547,
0,107,487,163,12,540,
0,106,551,161,12,535,
0,105,543,160,12,528,
0,103,537,159,12,523,
0,103,531,158,12,517,
0,103,524,161,12,575,
0,102,518,159,12,568,
0,102,512,158,12,561,
0,100,505,157,12,555,
0,99,500,156,12,547,
0,99,496,155,12,542,
0,98,574,153,12,536,
0,97,565,152,12,531,
0,97,558,152,11,526,
0,96,551,150,11,519,
0,95,546,150,11,521,
0,95,540,172,15,583,
0,94,532,171,15,575,
0,93,527,169,14,569,
0,92,521,167,14,563,
0,92,515,167,14,558,
0,91,510,166,14,551,
0,91,507,164,13,545,
0,89,503,163,13,539,
0,89,496,161,13,535,
0,89,491,161,13,528,
0,89,486,173,13,566,
0,88,482,172,14,572,
0,88,477,170,14,567,
0,87,472,169,13,560,
0,86,467,167,13,553,
0,86,463,166,13,547,
0,85,508,165,13,542,
0,84,591,163,12,536,
0,83,583,163,12,530,
0,83,579,161,12,524,
0,83,572,159,12,519,
0,83,564,163,12,590,
0,82,557,183,12,581,
0,81,551,181,12,574,
0,80,545,179,12,568,
0,79,539,178,12,562,
0,79,532,177,12,556,
0,79,610,175,12,548,
0,79,603,174,12,543,
0,78,595,172,12,538,
0,77,587,172,11,532,
0,76,579,169,11,527,
0,76,575,186,11,580,
0,76,568,184,11,575,
0,75,560,183,11,568,
0,75,553,182,11,561,
0,74,548,179,11,555,
0,73,542,179,11,550,
0,72,676,177,11,543,
0,72,666,176,10,537,
0,71,659,174,10,531,
0,75,650,173,10,527,
0,73,641,172,9,527,
0,73,635,174,14,583,
0,72,627,172,14,575,
0,71,619,171,13,569,
0,71,611,169,13,563,
0,71,603,167,13,556,
0,71,597,167,12,550,
0,70,691,166,12,545,
0,70,679,164,12,539,
0,70,671,163,12,534,
0,93,664,162,12,527,
0,92,655,170,12,588,
0,92,646,170,12,584,
0,91,637,168,12,577,
0,89,632,167,12,571,
0,89,623,166,12,566,
0,88,615,164,12,559,
0,88,664,163,11,551,
0,87,655,162,11,546,
0,86,647,161,11,541,
0,88,638,159,11,536,
0,87,630,159,11,529,
0,86,624,163,11,595,
0,86,615,161,11,590,
0,84,608,159,11,583,
0,84,600,159,11,575,
0,83,595,158,11,568,
0,83,588,156,11,563,
0,82,737,155,10,557,
0,81,724,154,10,551,
0,81,716,152,10,544,
0,97,705,152,10,539,
0,96,696,151,10,534,
0,96,686,150,10,590,
0,95,676,148,10,582,
0,94,669,147,10,575,
0,93,660,147,10,569,
0,92,652,145,9,563,
0,92,646,145,9,556,
0,91,679,143,10,551,
0,91,670,143,9,545,
0,90,663,142,9,540,
0,91,654,141,9,535,
0,90,644,140,9,540,
0,89,639,179,9,575,
0,89,630,177,9,569,
0,88,624,176,9,564,
0,88,615,175,9,558,
0,87,611,172,8,551,
0,86,603,172,9,546,
0,86,654,171,8,540,
0,85,646,168,8,536,
0,84,637,167,8,529,
0,91,631,167,8,526,
0,90,622,166,7,519,
0,89,614,164,11,570,
0,88,608,163,11,563,
0,88,600,161,10,558,
0,87,593,160,10,551,
0,87,586,159,10,545,
0,86,581,158,10,539,
0,85,616,157,9,534,
0,85,608,156,9,527,
0,84,601,155,9,524,
0,84,594,154,9,518,
0,83,588,153,9,513,
0,83,581,198,9,577,
0,82,574,196,9,569,
0,81,569,195,9,564,
0,81,562,193,9,558,
0,80,558,192,9,551,
0,79,551,190,9,547,
0,79,600,188,9,540,
0,79,593,187,9,536,
0,78,585,185,9,529,
0,79,579,184,8,525,
0,79,572,184,8,519,
0,79,565,188,9,566,
0,78,560,186,9,560,
0,78,552,185,9,553,
0,77,547,184,9,548,
0,76,542,183,9,542,
0,76,537,181,9,536,
0,75,580,179,9,531,
0,75,575,179,8,525,
0,74,569,177,9,521,
0,88,562,176,9,515,
0,88,556,174,8,510,
0,87,550,177,9,575,
0,87,543,188,12,568,
0,86,538,186,11,561,
0,85,531,184,11,556,
0,84,526,184,11,550,
0,83,520,182,11,543,
0,83,621,180,11,537,
0,82,695,179,11,532,
0,81,684,177,11,527,
0,81,674,176,10,521,
0,80,667,175,10,515,
0,79,658,175,12,577,
0,79,648,174,15,569,
0,79,639,172,15,563,
0,78,633,172,15,556,
0,77,625,170,15,551,
0,76,617,169,14,545,
0,76,657,167,14,539,
0,76,649,166,14,532,
0,75,639,165,14,527,
0,92,632,164,14,523,
0,91,624,163,14,517,
0,89,615,167,14,536,
0,89,610,166,14,529,
0,88,603,164,14,525,
0,88,595,163,14,519,
0,87,588,162,14,513,
0,87,583,161,13,508,
0,86,630,159,13,504,
0,84,621,159,13,499,
0,84,613,158,13,494,
0,83,607,156,13,489,
0,83,600,155,13,547,
0,82,591,156,19,563,
0,81,583,155,18,556,
0,81,579,153,18,549,
0,79,572,152,17,543,
0,79,565,152,17,537,
0,79,620,150,17,531,
0,79,612,149,17,526,
0,78,604,148,17,521,
0,77,596,147,17,515,
0,77,588,146,16,511,
0,76,583,188,20,598,
0,76,575,185,25,591,
0,75,568,184,24,584,
0,74,561,183,24,577,
0,74,556,181,24,571,
0,73,550,179,24,564,
0,72,608,179,24,560,
0,71,600,177,23,552,
0,71,591,176,23,546,
0,71,585,175,23,540,
0,71,578,172,23,536,
0,70,571,220,24,607,
0,70,563,216,24,600,
0,69,559,215,24,591,
0,68,551,212,23,585,
0,67,545,211,23,579,
0,67,539,209,23,572,
0,67,583,207,22,566,
0,67,575,206,23,561,
0,66,568,204,22,555,
0,67,560,203,22,548,
0,66,556,201,22,614,
0,65,548,201,22,611,
0,65,542,199,22,604,
0,64,536,198,22,596,
0,63,531,196,21,590,
0,63,525,195,21,583,
0,63,542,194,21,577,
0,63,583,192,20,571,
0,63,578,191,20,563,
0,78,571,189,20,559,
0,79,563,188,20,553,
0,78,556,187,20,616,
0,78,551,185,22,608,
0,76,543,184,21,600,
0,76,537,184,20,595,
0,76,531,182,20,588,
0,75,525,180,20,581,
0,74,569,179,20,574,
0,73,562,177,20,569,
0,73,555,177,19,563,
0,76,547,176,19,556,
0,75,543,174,19,551,
0,74,536,183,20,609,
0,73,529,182,19,601,
0,73,524,179,19,593,
0,71,519,179,19,587,
0,71,513,177,19,581,
0,71,508,176,19,574,
0,71,503,174,19,568,
0,70,499,173,19,561,
0,70,494,172,19,556,
0,70,488,171,19,550,
0,70,483,169,19,574,
0,68,480,223,23,604,
0,68,476,220,23,598,
0,67,471,219,23,590,
0,67,465,217,23,583,
0,67,463,215,22,575,
0,66,459,213,22,571,
0,65,531,211,22,564,
0,65,525,210,21,558,
0,64,519,207,21,551,
0,71,513,207,21,545,
0,71,508,205,21,608,
0,71,502,204,29,599,
0,71,496,201,28,591,
0,70,492,199,28,583,
0,69,486,199,28,579,
0,68,480,198,28,572,
0,68,542,196,27,564,
0,67,536,195,27,558,
0,67,528,193,27,553,
0,67,523,192,26,547,
0,67,515,190,26,542,
0,67,512,189,30,597,
0,66,505,188,30,591,
0,65,499,187,29,583,
0,65,494,184,29,577,
0,65,489,184,29,570,
0,63,484,182,28,565,
0,63,526,181,28,559,
0,63,519,179,28,551,
0,63,514,178,28,546,
0,71,508,177,28,542,
0,70,502,176,27,536,
0,70,496,185,27,556,
0,69,492,184,27,550,
0,68,486,183,27,545,
0,67,480,182,27,539,
0,67,476,180,26,532,
0,66,472,179,25,527,
0,66,560,177,25,521,
0,65,551,176,25,518,
0,65,545,175,25,512,
0,68,539,173,25,507,
0,67,534,172,25,552,
0,67,527,172,27,547,
0,66,520,171,27,540,
0,65,515,169,26,534,
0,65,510,168,26,527,
0,64,504,167,26,524,
0,63,553,167,25,518,
0,63,563,165,25,512,
0,63,558,163,25,507,
0,86,551,163,25,503,
0,83,543,162,25,497,
0,83,537,180,37,575,
0,82,532,179,37,568,
0,81,526,177,36,562,
0,81,519,176,35,556,
0,80,513,174,35,549,
0,79,509,173,35,543,
0,79,504,172,35,537,
0,78,499,171,34,532,
0,78,493,169,34,526,
0,92,489,167,34,519,
0,92,483,167,33,528,
0,91,479,203,37,583,
0,90,473,200,37,575,
0,89,468,199,36,568,
0,88,464,197,36,562,
0,88,460,195,35,556,
0,87,459,194,35,551,
0,86,560,192,35,543,
0,86,555,191,35,537,
0,84,547,190,34,534,
0,89,541,188,34,527,
0,88,535,187,34,588,
0,88,529,185,36,588,
0,87,523,184,35,583,
0,87,517,184,35,575,
0,86,511,182,35,568,
0,85,507,180,34,562,
0,84,509,179,35,557,
0,83,561,177,33,551,
0,83,555,176,33,543,
0,82,549,175,33,539,
0,82,542,174,33,534,
0,81,536,172,33,588,
0,81,529,172,33,580,
0,79,524,169,32,573,
0,79,518,168,31,568,
0,79,512,167,31,561,
0,78,506,167,31,555,
0,78,572,165,31,548,
0,77,602,164,31,542,
0,76,593,163,31,537,
0,79,586,162,31,531,
0,79,579,161,30,526,
0,78,574,160,31,598,
0,78,566,159,31,591,
0,77,560,158,30,584,
0,76,552,157,30,577,
0,76,547,156,30,571,
0,75,540,155,30,566,
0,74,616,153,29,559,
0,73,608,152,29,552,
0,73,601,152,29,547,
0,83,594,151,28,542,
0,81,586,150,28,536,
0,81,579,174,28,573,
0,80,573,172,28,567,
0,79,566,170,28,561,
0,79,560,169,27,555,
0,78,552,167,27,548,
0,78,547,167,27,542,
0,77,646,165,27,537,
0,76,636,163,26,531,
0,76,628,163,26,526,
0,77,622,161,26,519,
0,76,614,167,25,583,
0,76,605,165,28,574,
0,75,598,163,27,567,
0,74,591,163,27,560,
0,73,584,161,27,553,
0,73,577,159,26,548,
0,72,692,159,26,542,
0,71,683,158,25,536,
0,71,675,156,25,530,
0,72,665,155,25,526,
0,71,656,154,25,519,
0,71,647,171,25,582,
0,71,641,169,25,575,
0,70,633,167,25,569,
0,70,624,167,25,563,
0,69,616,165,25,556,
0,68,611,163,24,550,
0,68,628,162,24,544,
0,67,619,161,24,539,
0,67,611,159,24,532,
0,81,605,159,24,527,
0,79,598,158,24,523,
0,79,590,161,24,584,
0,79,583,159,24,577,
0,78,577,159,24,570,
0,78,571,157,24,564,
0,77,564,156,24,558,
0,76,558,155,24,551,
0,76,569,153,23,545,
0,75,563,152,23,541,
0,74,556,152,23,535,
0,74,549,151,23,529,
0,73,544,150,23,599,
0,72,539,174,26,591,
0,71,532,172,25,584,
0,71,527,171,25,577,
0,71,521,169,25,571,
0,71,516,167,25,564,
0,70,558,167,25,559,
0,70,582,166,24,552,
0,68,574,164,24,547,
0,71,568,163,24,540,
0,72,561,161,24,536,
0,71,555,185,25,593,
0,71,547,184,25,585,
0,71,542,182,25,578,
0,70,536,180,25,574,
0,69,529,179,24,567,
0,68,524,177,24,560,
0,68,604,176,24,553,
0,67,595,175,24,548,
0,67,587,174,24,543,
0,86,579,172,24,536,
0,84,574,171,24,534,
0,83,567,176,27,586,
0,83,560,175,27,579,
0,83,552,174,27,572,
0,82,547,172,26,565,
0,81,541,171,26,560,
0,80,536,169,25,553,
0,79,575,167,25,547,
0,79,568,167,25,540,
0,79,561,166,25,535,
0,89,555,164,24,531,
0,88,547,163,24,569,
0,88,541,179,27,560,
0,87,536,178,27,554,
0,86,529,176,26,549,
0,86,524,176,25,543,
0,84,518,174,25,536,
0,84,515,172,25,530,
0,83,599,171,25,526,
0,83,590,170,24,519,
0,82,582,168,24,515,
0,83,576,167,24,510,
0,82,569,176,28,590,
0,81,562,176,33,582,
0,81,556,174,32,575,
0,80,551,172,32,568,
0,79,543,171,31,563,
0,79,537,169,31,556,
0,79,650,167,31,550,
0,78,642,167,31,543,
0,77,632,166,31,539,
0,85,624,164,30,533,
0,84,615,163,30,527,
0,83,611,187,30,583,
0,83,603,184,30,577,
0,82,594,184,29,570,
0,81,587,182,29,563,
0,81,582,180,28,557,
0,79,574,179,28,551,
0,79,612,177,28,545,
0,79,604,176,28,540,
0,78,595,175,28,534,
0,95,590,173,28,527,
0,94,583,172,28,537,
0,94,575,180,30,578,
0,92,568,179,29,571,
0,92,563,177,29,563,
0,91,556,176,29,559,
0,89,550,175,28,552,
0,89,548,174,28,546,
0,88,574,172,28,540,
0,88,567,171,28,536,
0,91,560,169,27,529,
0,105,551,167,27,524,
0,103,546,187,29,583,
0,103,539,189,30,575,
0,102,533,188,29,568,
0,101,527,185,29,562,
0,100,522,184,28,555,
0,99,516,183,28,551,
0,99,521,182,28,543,
0,97,515,180,28,538,
0,97,511,179,28,532,
0,111,505,177,27,526,
0,110,499,176,27,575,
0,109,495,195,30,585,
0,108,489,193,30,580,
0,107,484,192,30,573,
0,106,480,190,29,566,
0,105,475,189,29,560,
0,104,531,187,28,553,
0,103,545,185,28,547,
0,103,538,184,28,540,
0,103,531,183,28,535,
0,103,525,182,28,529,
0,103,519,184,31,587,
0,102,512,182,31,579,
0,100,508,180,30,572,
0,99,502,179,30,568,
0,99,496,178,30,561,
0,98,491,176,30,554,
0,97,566,175,29,547,
0,96,558,174,29,542,
0,96,551,172,28,537,
0,98,543,172,28,531,
0,97,537,170,28,626,
0,97,532,190,41,618,
0,96,527,188,40,611,
0,95,519,187,39,604,
0,94,514,185,39,597,
0,94,509,184,39,590,
0,93,524,183,39,584,
0,92,543,182,39,578,
0,92,536,180,38,571,
0,91,531,179,38,564,
0,94,524,177,38,560,
0,93,518,177,39,615,
0,92,512,176,39,607,
0,92,508,174,39,600,
0,91,502,173,39,593,
0,90,496,172,38,587,
0,89,491,170,38,579,
0,88,520,169,38,573,
0,88,514,167,37,568,
0,88,508,167,37,561,
0,89,502,166,36,555,
0,88,497,164,36,550,
0,88,492,176,37,609,
0,87,486,175,36,601,
0,87,480,173,36,593,
0,86,476,172,36,587,
0,86,472,170,35,579,
0,84,467,169,35,575,
0,83,551,167,35,568,
0,83,544,166,35,561,
0,83,539,165,35,555,
0,86,532,163,34,551,
0,84,526,163,34,584,
0,84,519,182,34,595,
0,83,515,179,34,588,
0,83,509,178,33,583,
0,82,504,177,33,575,
0,81,497,175,33,569,
0,80,494,174,33,563,
0,79,534,172,32,558,
0,79,527,172,31,551,
0,79,519,170,31,545,
0,106,514,169,31,539,
0,104,509,187,33,590,
0,103,504,184,39,583,
0,103,497,183,38,575,
0,102,492,181,38,568,
0,101,486,179,37,563,
0,100,481,178,37,556,
0,99,477,177,36,550,
0,99,472,176,36,543,
0,97,468,174,35,538,
0,106,463,172,35,532,
0,104,459,172,36,600,
0,103,454,178,36,592,
0,103,449,177,35,585,
0,102,445,175,35,578,
0,102,441,174,35,571,
0,100,437,172,35,564,
0,100,561,171,34,558,
0,99,556,169,34,551,
0,98,551,167,34,545,
0,99,543,167,33,540,
0,99,537,166,33,535,
0,98,531,187,34,595,
0,97,526,185,33,588,
0,96,519,184,33,583,
0,96,514,182,33,575,
0,95,508,180,33,568,
0,94,504,179,33,563,
0,93,569,177,32,557,
0,93,561,176,31,551,
0,92,554,175,31,544,
0,110,547,174,31,539,
0,109,540,172,31,591,
0,108,536,199,41,595,
0,107,529,197,40,588,
0,105,523,195,39,581,
0,105,516,193,39,574,
0,103,511,192,39,569,
0,103,575,190,39,563,
0,103,584,189,38,556,
0,102,575,188,38,550,
0,102,569,185,38,543,
0,100,562,184,38,537,
0,99,556,185,39,602,
0,99,550,184,39,595,
0,98,543,182,39,589,
0,97,536,181,39,582,
0,96,531,179,38,575,
0,96,526,178,38,568,
0,95,688,177,38,563,
0,94,677,176,37,557,
0,94,668,174,36,551,
0,120,658,172,36,543,
0,118,649,172,36,607,
0,117,642,176,37,599,
0,115,633,175,36,591,
0,115,625,173,36,583,
0,113,617,172,36,577,
0,112,609,170,35,572,
0,112,625,169,35,565,
0,111,616,167,35,559,
0,110,608,167,35,551,
0,109,600,166,35,546,
0,108,593,164,35,551,
0,107,586,177,39,607,
0,106,579,176,39,599,
0,105,572,174,39,591,
0,104,566,172,39,583,
0,103,561,171,39,577,
0,103,555,169,39,571,
0,102,577,167,38,564,
0,102,569,167,38,558,
0,102,563,166,37,553,
0,101,556,164,37,547,
0,100,549,169,55,604,
0,99,543,167,54,596,
0,99,536,167,54,589,
0,98,532,166,53,582,
0,97,526,164,52,576,
0,96,520,163,52,570,
0,96,636,162,51,563,
0,96,630,160,51,556,
0,95,621,159,51,551,
0,99,613,159,50,546,
0,99,605,158,49,603,
0,98,599,198,52,633,
0,97,591,195,51,627,
0,96,583,195,51,620,
0,96,576,193,50,611,
0,95,572,192,50,604,
0,94,564,190,49,599,
0,93,568,188,49,591,
0,93,560,187,49,584,
0,92,556,185,49,578,
0,92,549,184,48,572,
0,91,542,184,48,649,
0,90,536,204,48,639,
0,89,529,202,48,632,
0,88,525,200,48,624,
0,88,519,199,48,617,
0,88,513,198,47,610,
0,87,574,195,47,603,
0,86,568,194,47,595,
0,86,560,192,46,591,
0,85,553,192,46,583,
0,84,547,190,45,577,
0,83,542,189,47,647,
0,83,535,188,47,639,
0,82,528,187,46,632,
0,82,522,185,46,624,
0,81,518,184,46,615,
0,80,511,183,45,610,
0,79,726,181,45,603,
0,79,713,179,44,595,
0,118,703,178,44,588,
0,124,692,177,44,582,
0,123,686,176,44,639,
0,121,675,182,47,639,
0,120,667,179,47,631,
0,120,657,179,46,624,
0,119,649,177,46,617,
0,118,639,175,46,609,
0,116,632,174,45,602,
0,115,624,172,44,595,
0,115,615,172,44,588,
0,113,608,170,44,582,
0,113,601,169,44,575,
0,112,595,167,48,655,
0,111,587,167,48,647,
0,110,580,166,47,639,
0,109,575,164,47,631,
0,108,568,163,46,623,
0,108,562,161,46,615,
0,107,594,160,46,608,
0,105,586,159,45,602,
0,105,579,158,44,595,
0,103,572,157,44,588,
0,103,564,188,51,647,
0,103,558,185,51,639,
0,102,551,184,50,631,
0,101,544,183,49,623,
0,100,539,180,49,615,
0,99,534,179,49,608,
0,99,556,177,49,603,
0,98,550,177,48,595,
0,97,543,175,48,588,
0,96,537,174,48,582,
0,96,531,177,47,646,
0,95,526,206,54,638,
0,94,519,204,53,630,
0,94,514,203,53,622,
0,93,510,200,52,615,
0,92,504,199,51,608,
0,92,499,198,51,601,
0,91,494,195,51,594,
0,90,491,194,51,588,
0,191,486,193,50,580,
0,198,480,192,49,575,
0,195,476,195,54,633,
0,193,471,193,54,624,
0,192,466,192,53,616,
0,190,462,191,52,609,
0,188,457,190,52,601,
0,187,453,188,51,595,
0,184,448,186,51,588,
0,184,444,184,51,580,
0,182,440,184,51,574,
0,180,437,182,50,568,
0,179,433,184,49,620,
0,177,429,182,49,611,
0,176,424,180,49,604,
0,175,421,179,48,598,
0,173,417,177,48,591,
0,172,422,176,48,583,
0,171,622,175,47,577,
0,169,612,174,47,571,
0,167,604,172,47,564,
0,167,596,171,46,558,
0,166,588,169,46,591,
0,164,580,175,46,588,
0,163,574,174,45,582,
0,162,568,172,45,574,
0,161,561,171,45,568,
0,159,555,169,44,561,
0,159,600,167,44,555,
0,157,593,167,44,550,
0,156,585,166,44,543,
0,155,577,164,43,538,
0,154,571,163,43,532,
0,153,563,198,43,599,
0,152,556,195,42,591,
0,151,551,194,42,583,
0,150,543,192,41,577,
0,148,537,191,41,570,
0,147,531,189,41,563,
0,147,527,188,41,557,
0,145,521,185,40,551,
0,144,515,184,39,545,
0,143,510,183,39,539,
0,143,504,183,48,622,
0,142,499,181,48,614,
0,140,493,179,47,606,
0,139,487,179,47,598,
0,139,483,177,46,591,
0,137,478,176,46,583,
0,136,541,175,45,577,
0,135,534,173,44,570,
0,135,527,172,44,563,
0,134,521,171,44,558,
0,132,515,174,44,624,
0,131,510,176,49,615,
0,131,504,175,48,607,
0,129,498,173,48,600,
0,129,493,172,48,591,
0,127,487,171,47,587,
0,127,556,169,47,579,
0,127,548,167,46,573,
0,126,541,167,46,567,
0,124,535,166,46,560,
0,124,527,164,45,601,
0,123,521,175,47,619,
0,122,515,173,46,611,
0,121,510,171,46,604,
0,120,504,170,46,596,
0,120,499,168,45,588,
0,119,574,167,44,582,
0,118,576,166,44,575,
0,117,569,164,44,568,
0,116,562,163,44,563,
0,115,555,162,44,558,
0,115,547,161,48,635,
0,114,542,159,48,626,
0,113,535,159,47,619,
0,112,528,158,47,611,
0,112,523,156,46,603,
0,111,595,155,46,596,
0,110,650,154,46,589,
0,109,639,153,46,582,
0,115,634,152,45,575,
0,113,625,151,44,569,
0,112,617,191,51,630,
0,112,609,189,51,622,
0,111,601,187,50,615,
0,110,594,185,50,608,
0,108,587,184,49,600,
0,108,627,183,49,593,
0,107,617,182,49,586,
0,107,609,179,48,579,
0,105,601,178,48,572,
0,105,593,177,47,566,
0,103,587,192,48,627,
0,103,579,190,47,619,
0,103,574,188,47,611,
0,102,568,186,47,603,
0,101,560,184,46,595,
0,100,553,183,46,588,
0,100,547,182,45,583,
0,99,540,180,45,575,
0,99,535,179,44,570,
0,118,529,177,44,563,
0,116,523,176,44,615,
0,115,517,175,45,612,
0,114,513,173,44,605,
0,113,508,172,44,598,
0,112,502,171,44,591,
0,111,496,169,44,583,
0,111,562,167,43,578,
0,109,568,167,43,571,
0,108,561,165,43,565,
0,110,553,164,42,559,
0,110,547,163,41,552,
0,108,540,162,47,628,
0,108,534,161,46,620,
0,107,527,159,46,612,
0,105,521,158,45,605,
0,105,515,157,45,598,
0,103,511,156,44,591,
0,103,504,155,44,583,
0,102,499,153,44,577,
0,126,494,152,43,570,
0,128,488,152,43,566,
0,127,484,190,56,642,
0,126,479,188,55,633,
0,125,474,187,55,625,
0,124,470,184,54,617,
0,123,464,183,54,609,
0,122,460,182,53,603,
0,121,543,180,52,595,
0,120,536,179,52,588,
0,120,529,177,51,582,
0,119,524,176,51,575,
0,118,519,185,51,632,
0,116,512,184,51,624,
0,115,506,182,50,615,
0,115,500,180,50,611,
0,114,495,179,49,603,
0,113,489,177,49,595,
0,112,664,176,49,588,
0,112,654,175,48,582,
0,111,644,174,48,575,
0,110,636,172,47,568,
0,109,627,171,47,631,
0,108,619,184,50,621,
0,107,611,183,49,613,
0,106,605,182,49,606,
0,105,598,180,48,598,
0,104,590,179,48,591,
0,103,768,177,48,583,
0,103,860,176,47,579,
0,103,844,174,47,572,
0,106,831,172,46,566,
0,105,817,172,46,559,
0,104,804,177,48,623,
0,103,792,175,48,615,
0,103,780,174,47,608,
0,102,768,172,47,600,
0,101,758,171,46,592,
0,100,746,169,46,585,
0,99,739,167,46,579,
0,99,728,167,45,574,
0,172,718,166,45,567,
0,169,708,164,44,560,
0,167,699,167,51,639,
0,167,689,166,51,630,
0,164,680,164,50,622,
0,163,671,163,49,614,
0,161,664,161,49,607,
0,160,655,160,49,600,
0,159,734,159,48,591,
0,158,722,158,48,584,
0,156,711,156,48,578,
0,156,701,156,47,572,
0,155,691,239,47,625,
0,152,681,238,47,616,
0,152,671,236,47,608,
0,151,663,233,46,601,
0,150,654,231,46,594,
0,148,771,230,46,587,
0,147,899,227,45,579,
0,146,888,225,45,573,
0,145,871,224,44,567,
0,143,856,222,44,560,
0,143,846,220,44,620,
0,142,831,219,44,611,
0,140,819,216,43,604,
0,140,807,215,43,596,
0,139,795,214,43,591,
0,137,783,211,43,583,
0,136,771,210,42,577,
0,135,760,209,41,570,
0,135,750,207,41,563,
0,134,739,206,41,558,
0,132,729,204,40,551,
0,131,719,203,39,611,
0,131,710,201,39,604,
0,129,700,199,39,596,
0,129,694,198,39,589,
0,127,684,196,39,582,
0,127,802,195,39,575,
0,126,903,193,38,568,
0,125,910,192,38,563,
0,168,910,191,38,557,
0,167,888,189,37,551,
0,166,872,207,43,614,
0,164,857,204,43,605,
0,163,844,203,43,598,
0,161,831,200,41,591,
0,159,817,199,41,583,
0,159,806,198,41,575,
0,158,793,195,41,569,
0,156,782,194,40,563,
0,155,774,192,39,556,
0,153,763,191,39,551,
0,152,752,231,39,613,
0,151,742,228,39,605,
0,150,731,227,39,600,
0,148,721,224,39,591,
0,147,711,223,39,584,
0,147,702,222,39,577,
0,145,692,220,38,571,
0,144,684,217,38,564,
0,143,675,216,37,558,
0,142,668,215,37,551,
0,141,659,227,36,616,
0,140,651,269,43,608,
0,139,644,266,42,600,
0,138,637,263,41,591,
0,137,630,262,41,585,
0,135,622,259,41,579,
0,135,756,257,40,574,
0,134,743,255,39,567,
0,133,732,253,39,560,
0,132,721,251,39,553,
0,131,711,249,39,557,
0,131,701,248,41,615,
0,129,691,245,41,607,
0,128,681,243,41,600,
0,127,671,241,40,592,
0,127,664,239,40,585,
0,126,679,238,39,578,
0,124,708,236,39,572,
0,124,698,233,39,565,
0,123,688,231,39,559,
0,121,678,230,39,553,
0,121,669,228,44,615,
0,120,659,227,44,607,
0,120,651,225,44,600,
0,119,643,224,44,591,
0,118,634,222,43,584,
0,117,668,220,43,577,
0,116,707,219,42,571,
0,115,696,217,41,564,
0,115,686,216,41,558,
0,113,679,214,41,551,
0,113,670,254,41,609,
0,112,660,251,46,601,
0,111,651,248,45,593,
0,110,643,247,45,588,
0,110,634,244,44,582,
0,108,657,243,44,575,
0,108,837,241,44,568,
0,108,823,239,43,561,
0,107,809,238,43,555,
0,154,796,235,43,548,
0,152,784,249,42,612,
0,151,772,271,44,604,
0,150,760,269,44,596,
0,148,752,267,43,588,
0,147,742,263,43,582,
0,145,731,262,43,575,
0,144,766,259,42,568,
0,143,753,257,41,563,
0,142,742,255,41,557,
0,141,731,253,41,551,
0,140,719,252,40,560,
0,139,710,249,41,609,
0,138,700,248,41,601,
0,137,691,246,40,594,
0,135,681,243,39,587,
0,135,672,241,39,580,
0,134,664,240,39,574,
0,132,655,238,39,567,
0,131,649,236,39,560,
0,131,641,254,39,553,
0,129,633,252,38,547,
0,128,625,249,39,608,
0,127,617,248,39,601,
0,127,610,246,39,594,
0,126,604,243,39,587,
0,125,596,241,38,580,
0,124,668,240,38,573,
0,123,858,238,37,566,
0,122,843,236,37,560,
0,149,829,234,36,553,
0,185,815,231,36,547,
0,184,803,255,44,604,
0,182,793,254,48,595,
0,180,781,252,47,588,
0,179,769,249,47,581,
0,177,758,248,46,574,
0,176,748,245,46,569,
0,174,737,243,45,562,
0,172,727,241,45,556,
0,172,716,240,44,550,
0,214,707,247,44,543,
0,211,697,244,44,590,
0,209,688,242,48,582,
0,207,679,240,48,575,
0,206,670,238,47,568,
0,204,728,236,47,561,
0,203,719,233,47,555,
0,199,710,231,46,548,
0,199,699,231,46,542,
0,198,689,228,45,536,
0,204,679,227,45,532,
0,202,670,225,44,557,
0,199,662,224,46,580,
0,199,653,222,46,573,
0,197,644,220,45,566,
0,195,636,219,44,560,
0,194,628,217,44,553,
0,192,693,216,44,547,
0,191,682,214,44,540,
0,189,672,212,43,535,
0,188,665,300,43,528,
0,187,656,344,42,537,
0,185,647,340,43,583,
0,184,639,337,43,575,
0,183,630,334,42,571,
0,181,623,331,41,564,
0,179,615,327,41,558,
0,178,743,326,41,551,
0,177,734,323,40,545,
0,176,723,319,39,539,
0,174,711,317,39,533,
0,178,702,350,39,527,
0,176,692,346,47,596,
0,175,682,343,47,588,
0,174,803,339,46,582,
0,172,902,335,46,574,
0,171,910,333,46,568,
0,169,912,331,45,560,
0,167,903,327,44,556,
0,167,880,324,44,550,
0,236,865,358,44,543,
0,280,851,371,43,537,
0,278,838,368,44,610,
0,275,824,364,46,601,
0,271,812,360,46,594,
0,270,799,358,44,587,
0,268,788,354,44,579,
0,265,776,351,44,573,
0,263,766,348,44,567,
0,260,758,345,43,560,
0,259,747,342,43,553,
0,255,736,339,43,547,
0,254,727,336,42,610,
0,252,716,334,44,603,
0,249,707,331,44,595,
0,248,697,327,43,588,
0,246,688,326,43,581,
0,244,679,323,42,574,
0,243,671,320,41,568,
0,240,663,318,41,560,
0,239,654,315,41,555,
0,237,647,312,40,548,
0,235,639,311,40,553,
0,233,632,307,44,600,
0,231,625,305,44,592,
0,230,798,303,43,584,
0,227,783,301,43,577,
0,226,771,299,42,572,
0,224,867,295,41,566,
0,223,900,294,41,560,
0,221,882,292,41,552,
0,220,867,290,40,547,
0,218,852,287,39,540,
0,216,839,286,48,573,
0,215,825,284,48,566,
0,214,813,281,47,560,
0,211,817,280,47,552,
0,210,896,278,47,546,
0,208,880,275,46,540,
0,207,865,273,46,534,
0,206,851,271,45,527,
0,204,837,270,45,524,
0,203,824,268,44,519,
0,201,812,361,47,593,
0,199,799,358,49,584,
0,199,787,354,48,577,
0,197,775,351,48,571,
0,195,764,348,48,563,
0,194,753,344,47,557,
0,193,898,341,47,551,
0,192,908,339,47,544,
0,191,911,335,46,539,
0,189,903,332,46,532,
0,188,880,329,46,595,
0,186,865,327,60,587,
0,185,851,323,59,581,
0,184,838,321,58,574,
0,183,824,319,57,568,
0,181,882,316,57,560,
0,180,867,314,56,554,
0,179,851,312,56,547,
0,177,838,309,56,542,
0,176,824,307,55,536,
0,176,812,304,55,560,
0,175,799,302,54,594,
0,173,787,299,54,586,
0,172,835,296,54,579,
0,171,903,295,53,572,
0,169,910,292,52,566,
0,167,914,290,52,560,
0,167,916,287,51,554,
0,166,916,286,51,547,
0,165,903,284,51,542,
0,164,879,281,51,536,
0,163,864,280,57,605,
0,162,850,278,57,598,
0,161,903,275,56,590,
0,159,910,273,56,583,
0,159,913,271,55,575,
0,158,911,270,55,569,
0,156,906,268,54,563,
0,156,890,265,54,556,
0,155,873,263,54,550,
0,153,859,262,53,543,
0,152,846,260,52,611,
0,152,831,258,52,603,
0,151,819,255,51,595,
0,150,807,255,51,588,
0,148,795,253,51,582,
0,147,783,252,51,575,
0,147,847,249,50,568,
0,145,833,248,50,561,
0,145,819,246,49,555,
0,174,807,244,49,548,
0,172,798,243,48,628,
0,171,785,350,60,619,
0,169,773,345,60,611,
0,167,762,342,59,604,
0,167,752,339,58,598,
0,165,742,335,58,591,
0,163,731,333,57,583,
0,163,721,331,57,577,
0,161,711,327,56,571,
0,248,825,327,56,563,
0,261,811,324,56,594,
0,258,798,322,56,625,
0,255,785,319,56,616,
0,254,774,316,56,609,
0,251,764,313,55,601,
0,248,753,312,54,594,
0,247,743,308,54,588,
0,244,870,306,54,580,
0,243,856,304,53,575,
0,240,841,301,52,569,
0,239,828,299,52,563,
0,236,815,305,56,635,
0,235,801,302,56,626,
0,233,789,299,56,618,
0,231,777,296,55,611,
0,230,766,294,55,603,
0,227,755,292,54,595,
0,226,743,290,54,588,
0,224,734,287,53,582,
0,223,800,285,52,575,
0,247,787,283,52,568,
0,244,775,281,58,633,
0,242,763,279,59,627,
0,240,751,276,58,620,
0,238,896,274,57,611,
0,236,908,273,57,604,
0,235,908,271,56,596,
0,231,888,268,56,590,
0,231,905,267,56,583,
0,229,911,264,55,575,
0,231,915,263,55,569,
0,251,915,261,54,625,
0,248,897,259,54,616,
0,247,880,257,53,609,
0,244,865,255,53,601,
0,242,903,254,52,594,
0,240,910,252,51,587,
0,238,914,249,51,582,
0,236,915,248,51,575,
0,233,907,247,51,568,
0,232,881,245,50,562,
0,231,866,243,50,603,
0,229,852,241,50,625,
0,227,839,240,49,617,
0,225,825,238,49,609,
0,224,813,236,49,603,
0,222,800,235,48,595,
0,220,888,233,48,588,
0,218,907,231,48,581,
0,216,911,230,47,574,
0,215,911,228,47,568,
0,214,896,241,47,563,
0,211,876,239,51,624,
0,210,862,237,51,615,
0,208,847,236,51,608,
0,207,900,233,51,600,
0,206,910,231,50,593,
0,204,914,230,50,586,
0,203,915,227,49,579,
0,201,913,226,48,572,
0,199,887,225,48,566,
0,198,875,224,48,560,
0,197,861,276,48,628,
0,195,847,274,48,620,
0,194,833,271,48,611,
0,192,820,269,48,606,
0,192,807,267,47,599,
0,190,796,263,46,591,
0,189,784,263,46,584,
0,188,774,260,46,577,
0,186,762,259,45,571,
0,185,752,255,45,564,
0,184,742,314,45,637,
0,182,731,310,45,628,
0,181,721,307,44,620,
0,179,714,304,44,612,
0,178,704,301,44,605,
0,177,696,299,44,598,
0,176,835,295,43,591,
0,175,821,294,43,585,
0,174,807,291,42,579,
0,172,795,288,41,572,
0,171,782,287,41,622,
0,170,771,284,43,627,
0,169,759,282,43,619,
0,167,748,280,42,610,
0,167,737,278,41,603,
0,166,727,275,41,595,
0,164,716,273,41,588,
0,163,709,271,40,582,
0,162,700,268,40,575,
0,161,691,267,40,568,
0,159,681,264,39,601,
0,159,673,263,48,614,
0,158,664,260,48,607,
0,156,655,259,47,599,
0,156,647,257,47,591,
0,155,639,255,46,584,
0,153,632,253,46,577,
0,153,625,251,45,571,
0,152,618,249,45,565,
0,215,624,249,44,559,
0,321,615,248,44,551,
0,317,608,246,50,610,
0,313,602,243,49,603,
0,311,719,241,49,595,
0,307,743,240,49,588,
0,304,732,238,48,580,
0,302,721,236,48,575,
0,300,711,235,47,569,
0,297,700,232,47,562,
0,295,691,231,47,556,
0,292,681,230,46,550,
0,290,672,269,48,617,
0,287,663,280,49,609,
0,285,654,278,49,601,
0,283,646,275,48,593,
0,280,637,272,48,587,
0,278,632,270,47,579,
0,275,623,268,47,573,
0,274,734,265,47,567,
0,271,797,263,46,560,
0,286,783,261,46,556,
0,284,771,259,45,621,
0,280,760,257,45,612,
0,279,749,255,44,604,
0,276,737,253,44,597,
0,274,728,252,44,590,
0,271,784,249,44,583,
0,269,771,248,43,575,
0,267,759,245,43,569,
0,265,748,243,42,563,
0,307,739,241,42,556,
0,304,728,240,41,606,
0,302,718,238,43,622,
0,299,707,236,42,614,
0,295,697,234,41,608,
0,294,688,231,41,601,
0,291,679,231,41,594,
0,288,811,230,41,587,
0,286,797,227,39,579,
0,284,783,226,39,573,
0,281,772,323,39,567,
0,280,760,319,39,560,
0,277,749,316,44,630,
0,275,738,312,44,621,
0,272,731,310,44,613,
0,270,719,307,43,606,
0,268,710,304,43,599,
0,265,762,302,42,591,
0,263,900,299,41,585,
0,262,909,295,41,579,
0,259,911,294,41,572,
0,257,899,292,40,566,
0,255,878,289,41,615,
0,254,863,287,39,607,
0,252,849,285,39,600,
0,250,870,283,39,591,
0,248,855,280,39,584,
0,247,856,278,39,578,
0,244,841,275,39,571,
0,243,831,273,38,564,
0,241,817,271,38,558,
0,239,806,270,38,551,
0,238,793,299,38,614,
0,236,782,295,43,607,
0,234,770,292,42,600,
0,231,760,291,41,591,
0,231,749,287,41,584,
0,230,738,286,40,577,
0,227,840,284,40,571,
0,226,850,280,39,564,
0,224,835,279,39,558,
0,223,822,276,39,551,
0,221,809,274,39,603,
0,220,799,271,39,611,
0,217,787,270,39,603,
0,216,796,268,39,595,
0,215,813,265,39,588,
0,214,799,263,39,583,
0,211,824,262,38,575,
0,210,810,259,38,569,
0,209,798,258,38,563,
0,265,785,255,37,556,
0,301,773,254,37,551,
0,299,761,361,38,590,
0,295,790,356,38,582,
0,292,784,353,37,575,
0,290,772,350,37,568,
0,287,764,347,37,562,
0,285,840,344,36,555,
0,282,826,340,36,548,
0,280,812,337,36,543,
0,278,799,364,35,539,
0,275,787,440,35,532,
0,273,775,435,41,609,
0,271,764,432,41,601,
0,269,752,427,40,593,
0,267,742,423,39,586,
0,264,731,419,39,579,
0,263,721,415,39,572,
0,260,796,411,39,566,
0,258,783,408,39,559,
0,255,774,403,39,553,
0,254,763,399,38,547,
0,252,751,396,38,610,
0,250,739,392,38,601,
0,248,789,390,38,596,
0,247,775,386,37,588,
0,244,821,383,37,582,
0,243,807,380,36,575,
0,241,793,376,36,568,
0,239,781,374,36,561,
0,238,769,371,35,555,
0,236,758,368,35,548,
0,233,746,364,35,609,
0,231,736,376,41,600,
0,231,728,372,41,592,
0,228,717,369,40,585,
0,227,707,366,39,578,
0,225,699,363,39,572,
0,224,896,359,39,566,
0,222,903,356,39,560,
0,220,886,354,39,553,
0,219,870,352,39,547,
0,217,856,349,38,541,
0,216,841,347,40,584,
0,215,828,344,40,577,
0,213,815,340,39,571,
0,211,803,338,39,563,
0,209,790,335,39,557,
0,208,779,332,39,551,
0,207,770,330,39,543,
0,206,760,327,39,539,
0,204,748,326,38,532,
0,203,738,323,38,527,
0,201,728,320,39,594,
0,199,718,318,39,587,
0,199,707,316,39,579,
0,198,699,313,38,572,
0,196,689,312,38,566,
0,195,680,309,38,559,
0,193,797,307,37,551,
0,192,783,304,36,546,
0,191,771,302,36,540,
0,190,760,300,36,534,
0,188,751,298,35,601,
0,187,739,295,36,593,
0,185,729,294,35,586,
0,184,779,291,35,579,
0,184,901,289,35,574,
0,182,909,287,35,568,
0,180,912,285,35,560,
0,180,904,284,34,554,
0,179,880,281,34,547,
0,177,865,280,33,542,
0,176,851,278,33,620,
0,176,896,275,35,609,
0,174,884,274,35,602,
0,173,869,271,35,595,
0,172,857,270,34,588,
0,171,844,268,34,580,
0,169,830,267,34,574,
0,167,889,264,33,568,
0,289,904,263,33,563,
0,299,910,261,33,556,
0,295,910,259,33,551,
0,293,889,258,38,624,
0,290,872,255,38,615,
0,287,858,254,37,608,
0,285,844,252,36,600,
0,283,831,251,36,592,
0,280,818,249,36,585,
0,278,806,248,35,579,
0,275,796,246,35,572,
0,273,785,244,35,566,
0,271,774,242,35,560,
0,269,763,241,41,627,
0,267,752,239,41,620,
0,263,742,238,40,612,
0,262,731,236,39,605,
0,260,721,235,39,598,
0,259,711,233,39,591,
0,255,702,231,39,583,
0,254,693,230,39,577,
0,252,684,229,39,570,
0,250,675,227,38,563,
0,248,667,226,39,621,
0,247,660,224,39,612,
0,244,652,223,38,605,
0,243,644,222,38,598,
0,241,742,220,38,590,
0,239,739,219,37,584,
0,237,728,217,36,578,
0,235,717,216,36,571,
0,233,706,215,36,565,
0,231,696,213,35,558,
0,231,687,254,35,620,
0,306,678,335,53,611,
0,302,668,332,51,603,
0,299,723,327,51,595,
0,295,839,326,51,588,
0,294,899,322,51,581,
0,291,901,319,50,574,
0,288,881,316,49,568,
0,286,867,313,49,561,
0,284,852,312,49,555,
0,281,839,308,48,550,
0,279,824,306,48,565,
0,276,812,304,48,558,
0,275,799,302,47,551,
0,272,787,299,47,545,
0,270,849,297,46,539,
0,268,903,295,46,534,
0,265,910,291,46,527,
0,263,913,289,45,522,
0,267,908,287,45,517,
0,264,888,285,44,512,
0,263,871,283,44,583,
0,260,856,280,44,575,
0,258,843,279,44,569,
0,255,895,276,43,564,
0,254,899,275,43,558,
0,252,880,271,43,551,
0,251,864,270,42,545,
0,248,850,268,41,539,
0,247,836,267,41,532,
0,245,824,263,41,527,
0,243,811,263,41,594,
0,241,799,260,41,587,
0,240,787,259,39,579,
0,238,777,255,39,572,
0,236,768,255,39,565,
0,233,755,253,39,559,
0,231,896,251,39,552,
0,231,908,249,39,547,
0,229,907,247,39,541,
0,227,886,290,38,536,
0,225,870,287,38,612,
0,224,856,285,41,604,
0,223,841,283,41,595,
0,221,828,280,40,588,
0,220,816,278,39,582,
0,217,803,275,39,575,
0,216,902,273,39,568,
0,215,908,270,39,561,
0,213,913,268,39,555,
0,211,915,266,39,548,
0,210,911,263,38,624,
0,208,886,268,39,617,
0,207,870,265,38,609,
0,205,856,263,38,602,
0,204,900,262,37,595,
0,203,908,259,37,587,
0,201,904,257,37,580,
0,199,882,255,36,574,
0,199,867,253,36,567,
0,198,853,252,35,560,
0,196,839,249,35,555,
0,195,826,255,39,615,
0,193,816,253,39,608,
0,192,804,251,39,600,
0,191,887,248,38,593,
0,190,906,247,38,588,
0,188,911,244,38,580,
0,187,915,243,37,574,
0,185,913,241,36,567,
0,184,891,240,36,561,
0,184,873,271,36,555,
0,182,860,268,36,613,
0,180,846,265,36,604,
0,179,831,263,35,598,
0,178,819,260,35,590,
0,177,807,259,35,583,
0,176,798,255,35,575,
0,175,786,254,35,569,
0,174,775,252,35,563,
0,172,764,274,34,556,
0,238,753,300,34,551,
0,236,743,322,33,628,
0,233,732,319,36,620,
0,231,722,316,35,611,
0,230,822,313,35,604,
0,227,843,311,35,596,
0,226,828,307,35,590,
0,224,903,305,35,583,
0,222,900,302,34,575,
0,220,880,300,34,569,
0,219,868,388,33,563,
0,216,854,384,33,626,
0,215,839,380,34,617,
0,214,827,376,33,609,
0,211,814,373,33,604,
0,210,894,369,33,595,
0,207,904,366,32,588,
0,207,891,364,31,582,
0,206,873,359,31,575,
0,204,858,358,31,568,
0,202,844,355,31,562,
0,200,831,352,31,556,
0,199,818,348,31,595,
0,198,805,345,31,588,
0,196,796,342,31,580,
0,195,784,339,30,574,
0,193,900,336,30,568,
0,192,909,334,30,560,
0,190,912,331,30,556,
0,188,903,327,30,550,
0,187,880,326,29,543,
0,246,865,323,29,537,
0,243,851,321,35,605,
0,240,838,319,35,598,
0,239,824,316,34,590,
0,236,812,313,34,583,
0,235,799,312,33,575,
0,231,787,308,33,569,
0,231,779,306,33,563,
0,228,768,304,33,556,
0,227,756,302,32,550,
0,229,747,358,31,543,
0,227,736,435,31,624,
0,225,726,430,32,615,
0,224,716,425,31,607,
0,221,707,422,31,600,
0,220,697,418,31,591,
0,218,868,415,31,584,
0,216,892,411,31,578,
0,215,876,407,31,571,
0,213,862,403,30,565,
0,211,847,470,30,558,
0,209,833,464,30,592,
0,207,847,460,35,584,
0,207,904,455,35,577,
0,204,911,450,35,571,
0,203,911,446,34,563,
0,201,892,441,34,559,
0,199,874,436,33,551,
0,199,860,434,33,546,
0,198,845,430,33,540,
0,196,831,425,32,535,
0,195,819,423,32,541,
0,193,807,418,39,587,
0,192,795,415,39,579,
0,191,783,411,38,572,
0,189,771,407,38,566,
0,188,764,403,38,559,
0,186,752,399,37,552,
0,184,742,396,36,547,
0,184,732,393,36,540,
0,182,721,390,36,536,
0,180,711,387,35,530,
0,179,703,384,38,594,
0,179,693,381,38,587,
0,177,684,377,37,579,
0,176,675,375,36,572,
0,174,667,371,36,566,
0,173,659,368,36,559,
0,172,651,366,35,552,
0,171,643,363,35,546,
0,204,637,359,35,540,
0,201,630,357,35,535,
0,199,623,354,35,605,
0,198,615,352,35,598,
0,196,659,348,35,591,
0,195,788,345,34,583,
0,193,775,344,34,577,
0,192,764,341,33,571,
0,190,804,339,33,564,
0,188,806,335,33,558,
0,187,793,334,33,551,
0,185,781,331,32,545,
0,184,769,332,32,593,
0,183,758,352,36,585,
0,182,748,350,36,578,
0,179,738,346,36,571,
0,178,728,343,35,564,
0,177,851,339,35,558,
0,176,835,337,35,552,
0,174,822,334,35,547,
0,173,808,331,34,540,
0,172,796,329,34,535,
0,171,783,327,34,557,
0,169,772,323,35,595,
0,167,760,321,34,587,
0,167,773,319,34,579,
0,166,819,316,33,573,
0,165,807,315,33,566,
0,163,797,312,33,560,
0,163,784,310,33,553,
0,161,772,307,32,547,
0,160,760,305,31,540,
0,159,750,303,31,536,
0,159,739,300,36,601,
0,158,728,299,36,593,
0,156,718,296,35,586,
0,156,743,295,35,579,
0,155,795,292,35,572,
0,153,783,291,35,566,
0,152,771,288,34,559,
0,152,760,287,34,552,
0,151,748,284,33,547,
0,150,736,283,33,540,
0,149,728,280,37,597,
0,148,718,279,39,590,
0,147,707,276,39,582,
0,146,796,275,39,575,
0,145,790,273,39,569,
0,144,776,271,38,563,
0,143,764,269,38,556,
0,143,753,268,37,550,
0,142,742,266,36,543,
0,141,731,263,36,538,
0,140,721,263,39,595,
0,139,710,260,43,587,
0,138,700,259,42,580,
0,137,894,257,41,573,
0,135,905,255,41,566,
0,135,911,254,41,560,
0,135,915,252,40,553,
0,134,908,250,39,547,
0,133,883,248,39,542,
0,134,867,247,39,536,
0,133,854,245,39,566,
0,132,839,243,39,596,
0,131,827,242,38,589,
0,131,897,240,38,582,
0,129,908,239,38,575,
0,129,913,238,37,568,
0,127,916,236,37,561,
0,127,915,234,36,555,
0,127,905,232,36,548,
0,126,880,231,36,542,
0,125,865,230,35,558,
0,124,851,228,36,608,
0,124,838,227,35,602,
0,123,841,225,35,595,
0,121,904,224,35,588,
0,121,908,223,35,580,
0,120,895,222,35,574,
0,120,876,220,34,567,
0,119,861,219,34,560,
0,118,847,300,33,553,
0,118,833,295,33,547,
0,116,820,293,33,575,
0,116,811,290,33,568,
0,115,799,287,33,560,
0,114,787,286,32,554,
0,113,775,283,31,547,
0,113,765,280,31,543,
0,112,754,278,31,536,
0,112,743,275,31,531,
0,111,734,274,31,526,
0,111,723,271,31,519,
0,110,775,270,38,591,
0,109,762,268,39,583,
0,108,750,265,39,575,
0,108,739,263,38,569,
0,107,728,261,38,562,
0,107,718,259,38,556,
0,106,871,257,37,550,
0,105,905,255,37,543,
0,103,904,253,36,536,
0,103,883,251,36,531,
0,103,867,249,36,572,
0,103,854,248,38,591,
0,102,839,246,38,583,
0,102,826,243,37,577,
0,100,813,242,37,569,
0,99,801,240,37,563,
0,99,792,239,36,556,
0,99,780,236,35,551,
0,98,769,236,35,545,
0,97,758,233,35,540,
0,97,750,231,35,534,
0,96,740,395,39,601,
0,96,729,390,39,593,
0,95,719,386,38,586,
0,95,711,382,38,579,
0,94,703,378,38,574,
0,94,694,376,37,568,
0,93,766,371,36,560,
0,93,756,368,36,554,
0,92,745,365,36,548,
0,125,734,362,35,543,
0,126,723,359,35,551,
0,125,712,355,36,596,
0,124,702,353,35,589,
0,123,692,351,35,582,
0,121,684,348,35,575,
0,121,675,344,35,568,
0,120,722,342,34,561,
0,119,777,339,34,555,
0,118,765,335,33,548,
0,117,756,333,33,543,
0,115,744,331,33,536,
0,115,734,327,33,558,
0,114,723,325,33,551,
0,113,711,323,33,546,
0,112,703,319,32,540,
0,112,692,318,32,534,
0,111,683,316,31,527,
0,110,742,313,31,523,
0,109,731,311,31,517,
0,114,719,323,31,511,
0,115,709,335,31,507,
0,114,699,333,33,574,
0,113,688,329,32,568,
0,112,681,327,32,560,
0,111,671,323,32,553,
0,110,664,321,31,547,
0,109,736,318,31,540,
0,108,894,316,31,536,
0,108,878,312,31,530,
0,107,862,310,31,524,
0,106,847,308,31,519,
0,105,835,306,30,598,
0,103,821,304,32,589,
0,103,807,301,31,582,
0,103,808,299,31,575,
0,102,903,296,31,568,
0,102,910,294,31,561,
0,100,908,292,30,555,
0,99,890,289,30,548,
0,99,873,287,30,543,
0,98,859,286,30,537,
0,97,845,284,30,551,
0,97,835,282,36,588,
0,96,898,280,35,583,
0,96,908,279,35,575,
0,95,908,276,35,568,
0,94,892,274,35,561,
0,94,898,272,34,557,
0,93,908,271,34,551,
0,92,913,269,34,543,
0,92,915,267,33,539,
0,105,918,265,33,532,
0,104,916,263,33,596,
0,103,894,262,38,590,
0,103,874,259,38,583,
0,102,860,257,37,575,
0,101,846,255,37,568,
0,100,833,254,36,563,
0,99,901,252,35,556,
0,99,908,251,36,550,
0,98,912,249,35,545,
0,253,910,248,35,539,
0,251,886,246,35,535,
0,248,870,257,36,596,
0,246,856,255,35,589,
0,243,896,252,35,582,
0,241,908,251,35,575,
0,239,906,248,35,568,
0,237,884,246,35,561,
0,235,868,244,34,555,
0,233,857,242,34,548,
0,231,844,240,33,542,
0,229,831,239,33,536,
0,227,818,248,37,591,
0,225,806,244,36,585,
0,224,793,243,36,578,
0,222,782,241,36,572,
0,220,770,239,35,564,
0,219,760,238,35,558,
0,217,749,236,35,551,
0,216,739,234,35,545,
0,214,728,231,35,540,
0,212,719,300,34,534,
0,211,710,345,35,592,
0,208,703,340,34,584,
0,207,694,337,34,577,
0,206,684,334,33,571,
0,204,675,331,33,563,
0,203,667,327,33,559,
0,200,781,325,32,552,
0,259,901,322,32,546,
0,259,910,319,32,540,
0,297,913,317,31,534,
0,295,913,315,31,613,
0,291,896,316,33,604,
0,288,876,313,33,596,
0,287,896,311,32,589,
0,284,908,307,32,582,
0,281,911,305,31,575,
0,279,915,303,31,568,
0,276,916,300,31,561,
0,274,911,298,31,556,
0,271,884,295,31,551,
0,270,868,294,30,545,
0,268,855,291,31,611,
0,265,840,289,31,604,
0,263,828,287,31,595,
0,262,815,285,31,588,
0,259,803,283,30,582,
0,257,791,280,30,575,
0,255,780,279,30,568,
0,253,902,276,30,561,
0,252,908,274,29,555,
0,250,908,271,29,549,
0,248,888,270,35,611,
0,246,871,268,34,604,
0,244,857,265,33,598,
0,242,843,263,33,590,
0,240,830,262,33,583,
0,239,816,260,33,575,
0,237,804,258,32,569,
0,236,792,255,32,563,
0,233,780,255,31,557,
0,231,769,253,31,551,
0,231,759,251,35,613,
0,228,748,249,35,604,
0,227,737,248,34,597,
0,225,729,246,34,590,
0,224,719,243,33,583,
0,222,711,241,33,575,
0,220,701,240,33,569,
0,219,692,239,33,564,
0,217,684,323,32,558,
0,216,675,327,31,551,
0,214,667,371,31,609,
0,212,657,411,36,600,
0,211,649,407,35,592,
0,209,641,402,35,585,
0,207,634,398,35,579,
0,207,627,395,35,572,
0,205,711,391,34,566,
0,204,860,387,34,559,
0,202,847,384,33,551,
0,200,831,380,33,546,
0,199,819,376,33,620,
0,198,806,374,38,612,
0,196,793,370,38,605,
0,195,781,367,38,597,
0,194,769,364,37,590,
0,193,758,361,36,583,
0,192,747,358,36,575,
0,190,737,355,36,569,
0,189,726,352,35,563,
0,203,716,350,35,556,
0,199,707,347,35,550,
0,199,699,344,35,619,
0,197,689,341,35,611,
0,195,680,338,35,604,
0,193,671,335,35,596,
0,192,664,333,34,591,
0,191,887,329,33,583,
0,189,903,327,33,575,
0,188,887,326,33,569,
0,187,871,323,33,563,
0,185,856,320,32,557,
0,184,842,318,34,563,
0,183,828,316,33,556,
0,182,816,313,33,550,
0,180,803,311,33,543,
0,179,794,308,33,537,
0,177,782,306,32,531,
0,176,901,304,31,526,
0,175,910,301,31,519,
0,174,911,299,31,516,
0,173,896,296,31,511,
0,172,876,436,31,557,
0,171,861,435,37,550,
0,169,847,430,37,543,
0,168,833,425,36,536,
0,167,820,421,35,531,
0,167,807,417,35,524,
0,166,796,412,35,519,
0,164,783,408,35,513,
0,163,772,405,35,508,
0,162,764,401,34,503,
0,161,753,398,34,565,
0,159,743,394,36,556,
0,159,732,391,35,551,
0,158,723,387,35,545,
0,156,713,384,35,539,
0,156,704,381,35,532,
0,155,775,379,35,527,
0,153,892,375,35,521,
0,162,875,372,33,515,
0,160,860,369,33,510,
0,159,845,366,33,508,
0,158,831,363,33,568,
0,156,819,359,33,561,
0,155,809,356,32,554,
0,154,841,354,32,547,
0,152,826,351,31,542,
0,152,813,348,31,536,
0,151,799,345,31,531,
0,150,787,343,31,524,
0,166,775,340,31,519,
0,164,764,338,31,513,
0,163,753,335,35,593,
0,161,743,332,35,586,
0,159,732,330,35,579,
0,159,722,327,35,572,
0,158,712,324,34,565,
0,156,755,323,33,559,
0,155,894,319,33,551,
0,153,908,318,33,545,
0,152,912,315,33,540,
0,152,913,312,32,534,
0,150,903,311,33,599,
0,148,879,308,33,590,
0,147,864,305,33,583,
0,147,881,304,32,575,
0,146,905,302,31,568,
0,145,911,300,31,562,
0,143,909,297,31,556,
0,143,886,295,31,549,
0,142,871,293,31,543,
0,141,856,291,31,537,
0,140,846,289,30,600,
0,140,832,287,32,591,
0,139,839,284,32,584,
0,137,903,283,31,578,
0,136,899,280,31,572,
0,135,879,279,31,566,
0,135,864,276,31,560,
0,134,849,275,31,552,
0,134,835,273,31,547,
0,133,823,271,30,540,
0,132,810,269,30,560,
0,131,798,268,35,600,
0,130,786,265,35,591,
0,129,775,263,34,585,
0,128,766,262,34,578,
0,127,755,259,34,571,
0,127,745,258,33,564,
0,126,735,255,33,558,
0,125,724,255,33,553,
0,124,715,253,32,547,
0,124,705,251,32,541,
0,123,696,308,38,623,
0,122,687,305,37,615,
0,121,678,302,37,607,
0,120,670,300,36,600,
0,120,662,296,36,591,
0,120,653,294,35,584,
0,119,645,291,35,578,
0,118,731,289,35,572,
0,178,723,287,35,565,
0,214,711,284,35,559,
0,211,701,282,34,610,
0,209,691,280,35,602,
0,207,681,278,35,596,
0,205,671,275,34,589,
0,204,663,273,34,583,
0,202,680,271,33,575,
0,199,894,269,33,568,
0,199,906,267,33,562,
0,197,899,318,32,556,
0,195,878,318,32,550,
0,193,863,315,31,606,
0,192,848,312,32,598,
0,191,838,309,32,591,
0,189,824,307,31,583,
0,188,812,304,31,575,
0,186,799,301,31,569,
0,184,788,299,31,564,
0,184,777,295,31,559,
0,235,766,294,31,551,
0,231,755,291,30,545,
0,230,743,289,30,568,
0,228,734,287,38,604,
0,226,723,285,38,595,
0,224,792,283,38,588,
0,222,780,280,37,581,
0,220,768,278,37,574,
0,219,759,275,36,568,
0,248,748,273,36,561,
0,319,736,271,35,555,
0,316,726,269,35,548,
0,313,715,267,35,543,
0,310,705,265,41,601,
0,307,696,263,39,593,
0,305,687,262,39,586,
0,303,678,259,39,579,
0,300,670,257,39,572,
0,297,660,255,39,566,
0,295,652,254,38,559,
0,292,644,252,38,552,
0,289,637,249,38,546,
0,287,632,248,38,540,
0,285,624,246,39,598,
0,283,615,244,41,590,
0,280,609,243,41,583,
0,278,601,241,41,577,
0,275,668,240,39,570,
0,273,659,238,39,563,
0,271,649,237,39,557,
0,270,639,236,39,551,
0,268,632,233,39,544,
0,317,624,231,38,539,
0,313,615,231,39,596,
0,311,608,230,39,588,
0,307,600,227,38,580,
0,305,595,226,38,574,
0,302,588,224,38,567,
0,300,582,223,38,560,
0,297,575,222,37,554,
0,295,569,220,36,549,
0,292,563,219,36,543,
0,289,557,217,35,536,
0,287,551,216,35,566,
0,286,545,275,38,587,
0,283,540,273,37,579,
0,280,534,271,37,572,
0,279,568,268,36,566,
0,276,700,265,36,559,
0,273,690,263,36,552,
0,271,679,261,35,546,
0,270,671,259,35,540,
0,268,664,257,35,534,
0,265,654,255,35,551,
0,263,646,252,49,586,
0,261,637,251,49,580,
0,259,628,248,48,573,
0,257,620,247,48,567,
0,255,613,245,47,560,
0,254,605,243,47,553,
0,252,598,241,46,547,
0,249,590,240,46,540,
0,248,583,238,46,535,
0,279,575,236,45,529,
0,276,570,233,50,605,
0,273,591,231,51,597,
0,271,641,231,50,590,
0,269,632,228,49,583,
0,267,624,227,49,575,
0,263,615,225,48,570,
0,262,608,224,48,563,
0,259,600,222,48,557,
0,258,591,220,47,551,
0,255,583,219,47,544,
0,254,577,219,47,596,
0,252,570,217,47,588,
0,249,563,216,46,581,
0,248,557,214,46,574,
0,246,551,212,45,568,
0,244,545,211,45,560,
0,242,540,209,44,553,
0,240,534,208,44,547,
0,238,527,207,44,542,
0,236,523,206,43,536,
0,235,517,204,43,575,
0,233,512,203,43,585,
0,231,507,202,43,578,
0,230,502,200,43,572,
0,228,497,199,42,564,
0,227,492,198,41,558,
0,225,568,197,41,551,
0,224,823,195,41,544,
0,222,807,195,40,539,
0,269,798,193,40,532,
0,265,784,192,39,557,
0,263,772,191,39,583,
0,261,760,190,39,575,
0,259,750,188,39,569,
0,255,739,188,39,563,
0,254,728,187,39,556,
0,252,718,185,39,551,
0,251,870,184,38,543,
0,248,854,184,38,537,
0,247,839,225,38,531,
0,244,826,233,38,526,
0,243,813,238,44,572,
0,240,799,236,44,566,
0,238,788,233,43,559,
0,236,779,231,43,551,
0,235,768,229,42,546,
0,233,756,227,42,540,
0,231,745,225,41,534,
0,230,897,224,41,529,
0,227,903,222,41,523,
0,226,883,220,40,518,
0,224,868,219,43,572,
0,223,854,217,43,564,
0,221,839,216,43,558,
0,220,827,214,42,551,
0,217,814,211,41,544,
0,216,801,210,41,538,
0,215,790,208,40,532,
0,215,881,207,40,527,
0,374,905,205,39,520,
0,368,909,204,39,515,
0,364,899,202,39,574,
0,360,878,199,42,568,
0,357,863,199,41,561,
0,353,848,198,41,554,
0,352,835,196,40,547,
0,348,822,195,39,541,
0,344,895,193,39,536,
0,342,902,192,39,529,
0,339,883,191,39,524,
0,335,867,190,39,518,
0,333,854,188,39,557,
0,329,843,187,39,583,
0,327,829,185,39,575,
0,324,816,184,38,568,
0,321,803,183,38,561,
0,319,792,182,38,556,
0,316,780,180,38,550,
0,313,769,179,37,543,
0,312,758,178,36,538,
0,310,748,177,36,531,
0,307,737,176,36,526,
0,304,728,175,39,593,
0,302,717,174,39,585,
0,300,707,173,39,579,
0,297,698,172,38,572,
0,295,691,171,38,564,
0,292,683,169,37,558,
0,290,673,168,37,551,
0,287,665,167,37,545,
0,286,657,166,36,541,
0,284,649,166,36,535,
0,281,641,220,36,599,
0,279,633,217,35,590,
0,278,625,215,35,583,
0,275,618,213,35,575,
0,273,611,211,35,569,
0,271,673,209,35,563,
0,269,768,207,34,556,
0,267,756,206,33,550,
0,265,748,204,34,543,
0,263,736,204,33,537,
0,262,726,203,33,614,
0,259,715,200,39,606,
0,257,704,199,39,600,
0,255,696,198,39,592,
0,254,686,195,38,585,
0,252,675,195,38,578,
0,251,809,193,38,572,
0,248,795,192,37,564,
0,247,782,191,37,559,
0,246,770,224,36,552,
0,243,759,391,36,585,
0,241,747,435,43,615,
0,240,736,430,42,608,
0,238,728,425,41,600,
0,236,718,421,41,593,
0,235,707,417,41,586,
0,233,839,412,39,579,
0,231,824,408,39,574,
0,230,809,405,39,568,
0,228,797,402,39,561,
0,227,784,399,39,555,
0,225,772,395,39,619,
0,224,761,391,39,611,
0,223,750,387,39,603,
0,221,739,384,39,595,
0,220,728,381,39,588,
0,217,719,377,39,582,
0,216,711,375,38,575,
0,215,701,371,38,568,
0,214,691,368,38,561,
0,211,682,365,37,555,
0,211,673,361,38,625,
0,209,664,359,38,615,
0,207,655,355,38,608,
0,206,647,353,37,601,
0,205,639,351,37,594,
0,204,826,348,36,587,
0,202,903,345,36,580,
0,201,906,343,35,573,
0,199,888,339,35,567,
0,252,871,337,35,560,
0,248,860,335,35,636,
0,246,846,332,39,627,
0,243,831,329,39,619,
0,241,889,327,39,611,
0,240,907,324,38,606,
0,238,911,321,38,599,
0,236,910,319,38,591,
0,234,888,318,38,583,
0,231,871,315,37,577,
0,230,857,312,36,571,
0,228,844,310,36,614,
0,227,830,307,38,623,
0,224,885,305,38,615,
0,223,891,303,38,607,
0,221,877,301,37,600,
0,220,862,299,37,592,
0,217,847,296,36,585,
0,216,834,295,36,579,
0,214,820,292,35,574,
0,212,808,291,35,568,
0,211,902,287,35,561,
0,209,906,336,39,617,
0,207,888,332,39,609,
0,206,871,329,39,601,
0,205,856,327,39,594,
0,204,900,323,39,587,
0,201,909,321,38,579,
0,199,913,318,38,573,
0,199,915,315,38,567,
0,198,910,312,38,560,
0,196,884,310,37,554,
0,195,870,307,39,625,
0,193,855,304,41,620,
0,192,841,302,40,611,
0,191,828,300,39,604,
0,190,815,297,39,596,
0,188,803,295,39,590,
0,188,792,293,39,583,
0,186,780,291,39,575,
0,185,768,288,38,569,
0,184,758,286,38,563,
0,183,748,284,39,632,
0,182,736,282,39,624,
0,180,729,280,39,615,
0,179,719,278,39,608,
0,178,710,276,38,600,
0,176,700,274,38,593,
0,175,691,271,37,588,
0,175,682,270,37,581,
0,174,673,268,36,575,
0,172,665,267,36,568,
0,172,657,265,35,620,
0,170,649,305,39,620,
0,169,641,302,39,611,
0,167,724,300,39,604,
0,167,796,295,39,597,
0,166,783,294,38,590,
0,165,774,291,38,583,
0,163,762,289,38,575,
0,170,751,287,37,569,
0,212,739,284,37,563,
0,210,729,281,36,558,
0,208,719,280,41,632,
0,207,896,277,40,624,
0,205,903,275,39,615,
0,204,885,273,39,608,
0,201,870,271,39,600,
0,199,855,269,39,593,
0,199,840,267,39,587,
0,196,828,264,39,579,
0,195,815,263,38,573,
0,193,806,274,38,567,
0,192,794,336,46,646,
0,191,782,332,47,637,
0,189,770,329,46,629,
0,188,760,327,46,623,
0,186,748,323,46,615,
0,184,737,321,45,608,
0,184,895,319,44,600,
0,182,908,316,44,593,
0,180,911,313,44,586,
0,179,911,310,43,579,
0,177,893,307,45,639,
0,176,874,305,44,631,
0,175,860,303,44,623,
0,174,849,300,44,615,
0,172,835,297,43,608,
0,171,823,295,43,600,
0,169,810,292,43,592,
0,168,798,290,42,588,
0,167,786,287,41,580,
0,167,775,286,41,574,
0,165,764,284,41,639,
0,164,753,281,43,633,
0,163,742,280,42,625,
0,162,839,278,41,617,
0,161,892,275,41,609,
0,159,875,273,41,602,
0,159,860,271,40,595,
0,158,845,269,39,588,
0,157,835,267,39,582,
0,181,822,264,39,575,
0,179,808,263,39,622,
0,177,796,313,39,632,
0,176,784,311,39,624,
0,174,772,307,39,615,
0,172,761,305,39,608,
0,172,751,303,38,600,
0,170,740,300,38,593,
0,169,729,297,38,587,
0,167,719,295,38,580,
0,166,711,292,37,574,
0,165,701,290,37,567,
0,163,691,287,45,632,
0,162,685,285,44,623,
0,161,676,283,44,615,
0,159,668,280,44,608,
0,159,659,279,44,600,
0,158,651,276,43,595,
0,156,643,274,43,588,
0,156,636,271,42,580,
0,155,627,270,41,575,
0,153,620,268,41,568,
0,152,614,342,51,631,
0,152,606,348,51,622,
0,151,600,344,51,614,
0,150,591,340,51,606,
0,148,585,337,50,599,
0,147,581,335,50,591,
0,147,574,332,49,584,
0,146,568,327,49,577,
0,145,562,326,49,571,
0,143,556,323,48,567,
0,143,550,320,48,627,
0,188,543,317,56,617,
0,186,538,316,56,609,
0,184,532,312,55,601,
0,183,527,311,54,595,
0,181,521,307,54,588,
0,179,696,305,54,580,
0,178,706,303,53,574,
0,176,696,300,52,568,
0,175,688,297,52,561,
0,174,679,295,51,624,
0,172,669,308,54,615,
0,171,659,305,53,607,
0,169,651,303,52,601,
0,167,642,300,52,594,
0,167,634,297,51,587,
0,166,625,295,51,580,
0,164,617,293,51,573,
0,163,610,291,50,567,
0,162,603,287,50,560,
0,161,595,286,49,554,
0,159,588,284,54,611,
0,159,581,281,54,603,
0,157,575,280,54,595,
0,156,569,278,53,588,
0,155,563,275,52,582,
0,153,556,273,51,575,
0,152,635,271,51,569,
0,152,724,268,51,563,
0,162,713,267,50,556,
0,160,704,265,50,551,
0,159,694,263,56,629,
0,158,683,262,56,620,
0,156,673,259,55,612,
0,156,664,257,55,605,
0,154,655,255,54,598,
0,152,647,254,54,590,
0,152,639,252,53,583,
0,151,632,251,52,576,
0,201,624,249,52,570,
0,248,616,248,51,563,
0,244,609,246,51,644,
0,242,647,243,51,638,
0,240,638,242,51,629,
0,238,628,240,50,621,
0,236,719,239,50,614,
0,234,740,238,49,606,
0,231,729,236,49,599,
0,230,718,235,49,591,
0,228,708,359,48,584,
0,227,697,401,48,578,
0,225,688,397,48,639,
0,223,680,393,49,644,
0,221,671,389,48,636,
0,220,663,385,48,628,
0,217,654,382,48,620,
0,216,844,379,47,615,
0,214,830,375,47,607,
0,212,816,371,46,600,
0,211,802,369,46,593,
0,209,790,366,46,587,
0,207,778,440,46,579,
0,206,767,435,53,653,
0,204,861,430,52,643,
0,203,845,426,51,636,
0,201,831,422,51,627,
0,199,821,417,51,620,
0,199,807,414,51,612,
0,197,795,409,49,605,
0,195,783,406,49,598,
0,194,771,402,49,592,
0,192,760,399,48,586,
0,192,750,396,55,675,
0,190,739,392,55,664,
0,189,728,389,54,655,
0,188,719,385,54,647,
0,186,708,383,53,639,
0,184,699,379,52,632,
0,184,689,376,52,624,
0,182,680,372,51,615,
0,180,673,369,51,609,
0,179,665,367,51,601,
0,178,657,364,51,672,
0,177,648,359,56,664,
0,176,639,358,56,657,
0,174,632,355,56,647,
0,173,624,352,55,639,
0,172,617,350,55,632,
0,171,795,347,54,624,
0,169,782,344,53,617,
0,167,769,342,53,609,
0,167,758,339,52,603,
0,166,747,335,52,668,
0,165,736,334,56,657,
0,163,728,331,55,649,
0,163,717,327,54,639,
0,161,707,326,54,632,
0,160,697,323,54,624,
0,159,688,320,52,620,
0,158,679,318,52,611,
0,157,670,316,51,605,
0,284,661,342,51,598,
0,280,652,339,51,591,
0,277,643,335,52,644,
0,275,636,332,52,636,
0,271,627,329,51,627,
0,270,620,327,51,620,
0,267,612,323,51,612,
0,264,606,321,51,605,
0,263,600,318,50,598,
0,260,593,316,49,591,
0,258,587,399,49,583,
0,255,579,395,49,577,
0,254,574,391,60,652,
0,252,567,387,59,643,
0,249,639,384,59,635,
0,248,790,380,57,626,
0,246,776,377,57,619,
0,244,764,374,56,611,
0,242,752,371,56,604,
0,240,742,367,56,596,
0,239,731,364,56,590,
0,236,719,360,55,583,
0,235,712,358,55,646,
0,233,703,355,57,638,
0,231,693,352,57,630,
0,229,684,348,56,621,
0,227,694,345,56,615,
0,225,896,343,56,608,
0,224,902,339,55,600,
0,223,884,337,55,593,
0,221,868,335,54,587,
0,220,854,332,54,580,
0,217,840,344,54,647,
0,216,827,406,68,637,
0,215,814,401,67,629,
0,213,893,397,67,621,
0,211,905,393,67,614,
0,209,910,390,66,606,
0,208,903,386,65,599,
0,207,880,383,65,591,
0,205,865,379,64,586,
0,204,851,376,63,579,
0,202,838,372,63,580,
0,200,899,399,70,643,
0,199,891,395,69,636,
0,199,873,391,68,627,
0,196,859,387,67,620,
0,195,844,384,67,611,
0,194,897,380,67,604,
0,192,908,376,66,597,
0,191,911,372,65,590,
0,190,914,369,65,583,
0,188,903,367,63,576,
0,188,880,363,63,646,
0,185,864,359,63,639,
0,184,851,356,63,631,
0,183,837,353,62,623,
0,182,824,352,62,615,
0,181,811,348,61,608,
0,179,799,345,61,600,
0,178,787,343,60,593,
0,177,775,340,60,587,
0,176,765,337,60,579,
0,175,754,335,60,647,
0,174,743,332,59,639,
0,172,736,329,59,631,
0,171,726,327,58,623,
0,169,716,324,57,615,
0,168,707,321,57,609,
0,167,697,319,57,601,
0,167,688,316,56,595,
0,165,679,315,56,588,
0,164,671,312,56,581,
0,163,663,310,55,642,
0,162,655,307,60,633,
0,161,646,305,59,624,
0,159,639,303,59,616,
0,159,631,301,58,609,
0,158,648,299,57,602,
0,157,857,295,57,595,
0,156,876,295,56,588,
0,155,860,292,56,580,
0,153,846,290,56,574,
0,152,832,287,55,589,
0,152,819,286,55,639,
0,151,807,284,55,631,
0,150,793,283,54,623,
0,149,782,280,54,615,
0,147,771,279,53,608,
0,147,876,276,52,600,
0,146,905,274,52,593,
0,145,911,272,51,586,
0,144,913,271,51,579,
0,143,910,268,51,573,
0,142,884,267,51,619,
0,141,870,265,50,611,
0,183,905,263,50,603,
0,180,911,262,49,598,
0,179,914,259,49,590,
0,177,913,257,49,583,
0,176,892,255,48,575,
0,175,874,255,48,569,
0,184,860,253,48,563,
0,186,846,251,47,557,
0,184,833,273,47,624,
0,183,819,271,47,615,
0,182,807,268,47,608,
0,179,798,265,46,600,
0,178,786,263,46,592,
0,176,775,262,46,585,
0,175,764,259,45,579,
0,174,753,257,45,574,
0,172,743,255,44,568,
0,171,732,257,44,561,
0,170,723,255,44,614,
0,168,712,252,44,605,
0,167,704,251,44,598,
0,166,695,248,43,590,
0,165,887,248,43,583,
0,163,874,246,42,575,
0,162,859,243,41,569,
0,161,847,242,41,563,
0,159,834,240,41,556,
0,204,821,239,41,551,
0,201,807,237,40,618,
0,199,796,236,48,611,
0,198,783,233,47,604,
0,195,772,231,47,595,
0,194,760,231,47,588,
0,192,750,230,46,582,
0,191,739,228,46,575,
0,190,824,227,45,568,
0,188,810,225,45,561,
0,187,797,224,44,555,
0,185,784,222,44,549,
0,184,772,220,44,582,
0,182,764,220,44,574,
0,180,752,217,43,568,
0,179,742,216,43,560,
0,177,731,216,43,554,
0,176,721,214,42,550,
0,175,711,212,41,543,
0,174,702,211,41,537,
0,173,692,210,41,532,
0,172,684,259,40,527,
0,170,675,255,42,582,
0,168,666,254,41,575,
0,167,657,252,41,568,
0,166,649,249,40,560,
0,165,641,248,40,554,
0,163,636,246,39,547,
0,162,859,243,39,542,
0,206,844,241,39,536,
0,263,829,239,39,529,
0,259,816,238,39,525,
0,257,803,236,41,595,
0,255,791,233,46,586,
0,253,779,231,46,579,
0,251,768,231,45,572,
0,248,889,228,44,566,
0,247,872,227,44,559,
0,244,892,225,44,551,
0,242,907,224,44,546,
0,240,905,222,43,540,
0,238,888,220,43,534,
0,236,871,219,42,528,
0,235,857,246,42,523,
0,231,843,243,41,517,
0,231,830,241,41,513,
0,228,816,239,41,508,
0,227,804,237,40,503,
0,225,882,236,39,498,
0,224,905,233,39,494,
0,222,911,231,39,487,
0,220,915,230,39,483,
0,219,916,227,39,499,
0,217,908,226,39,551,
0,216,881,224,39,543,
0,214,870,223,39,537,
0,212,856,220,39,531,
0,211,882,219,39,526,
0,208,866,217,38,519,
0,207,851,216,38,515,
0,206,838,214,38,510,
0,204,824,212,37,504,
0,203,812,211,37,499,
0,201,799,209,39,556,
0,199,788,208,39,548,
0,198,776,207,38,542,
0,197,766,206,38,536,
0,195,755,204,38,529,
0,194,889,203,37,524,
0,193,904,201,37,518,
0,191,911,199,36,512,
0,190,914,199,36,507,
0,188,909,198,35,502,
0,188,884,196,39,591,
0,185,868,195,43,582,
0,184,854,194,43,575,
0,183,840,193,42,568,
0,182,827,192,41,561,
0,181,815,191,41,555,
0,179,802,190,41,548,
0,178,790,188,40,542,
0,177,779,187,39,536,
0,218,768,185,39,530,
0,216,757,184,39,592,
0,214,748,184,39,583,
0,211,738,183,39,576,
0,210,728,181,39,569,
0,208,718,180,39,563,
0,206,708,179,39,558,
0,204,700,177,39,551,
0,203,691,176,38,545,
0,202,681,176,38,540,
0,199,673,175,38,534,
0,199,664,174,37,531,
0,197,655,195,39,558,
0,195,671,194,39,551,
0,194,864,192,38,545,
0,192,849,190,38,539,
0,191,839,189,38,532,
0,189,824,188,37,527,
0,188,812,185,37,520,
0,187,799,184,36,515,
0,184,787,183,36,511,
0,184,775,182,35,505,
0,182,764,180,43,575,
0,181,752,179,42,568,
0,179,742,177,41,561,
0,179,896,176,41,555,
0,177,907,175,41,548,
0,176,903,174,40,542,
0,175,881,172,39,536,
0,173,866,172,39,530,
0,173,856,170,39,524,
0,255,841,169,39,519,
0,253,828,185,45,575,
0,251,815,184,46,568,
0,248,803,182,46,563,
0,246,791,180,45,556,
0,243,779,179,45,550,
0,241,768,178,44,543,
0,240,756,177,44,537,
0,238,746,176,44,531,
0,236,736,174,43,526,
0,332,726,172,43,519,
0,332,716,172,43,587,
0,327,706,170,43,579,
0,325,699,168,43,572,
0,321,690,167,43,564,
0,319,681,167,42,558,
0,316,671,166,41,551,
0,313,664,164,41,547,
0,311,655,163,41,540,
0,307,874,162,40,535,
0,447,867,177,39,528,
0,440,853,176,39,554,
0,435,838,174,43,577,
0,430,824,173,43,571,
0,425,812,171,42,563,
0,421,799,169,41,557,
0,417,787,168,41,551,
0,412,775,167,41,543,
0,409,767,166,40,538,
0,405,755,164,39,532,
0,401,744,163,39,526,
0,398,734,163,39,540,
0,393,724,184,41,585,
0,390,713,183,41,578,
0,387,704,182,41,571,
0,384,695,179,40,564,
0,380,686,178,39,558,
0,377,676,177,39,551,
0,374,668,175,39,544,
0,371,659,174,39,539,
0,368,652,172,39,532,
0,364,643,171,39,527,
0,361,638,216,39,592,
0,358,630,214,39,584,
0,355,623,211,39,577,
0,352,615,209,38,571,
0,349,608,207,38,566,
0,347,601,206,38,559,
0,344,593,204,37,552,
0,342,587,203,36,546,
0,339,580,201,36,540,
0,352,574,279,36,534,
0,348,568,276,40,595,
0,344,562,273,46,587,
0,341,556,271,45,579,
0,338,550,268,44,573,
0,335,545,267,44,566,
0,332,540,263,44,560,
0,329,664,262,44,553,
0,327,654,259,43,547,
0,324,645,257,43,542,
0,322,636,255,42,536,
0,319,627,253,42,557,
0,318,619,252,46,582,
0,315,611,249,45,574,
0,312,603,248,45,568,
0,311,595,246,44,560,
0,307,588,243,44,554,
0,305,581,241,44,547,
0,303,574,240,43,541,
0,301,569,238,43,536,
0,299,562,236,42,529,
0,295,556,234,42,545,
0,295,550,268,49,583,
0,292,543,266,48,578,
0,290,537,263,48,571,
0,287,531,262,48,564,
0,286,526,259,47,558,
0,284,569,257,47,551,
0,282,561,255,46,545,
0,280,555,253,46,539,
0,278,547,251,45,533,
0,276,541,249,45,527,
0,274,534,312,54,589,
0,271,529,307,54,582,
0,270,524,304,53,575,
0,268,660,302,52,568,
0,266,734,299,52,561,
0,263,723,295,51,556,
0,263,711,294,51,550,
0,260,701,291,51,543,
0,259,691,289,50,537,
0,261,681,287,50,531,
0,259,672,285,52,609,
0,257,664,283,58,600,
0,255,655,280,57,593,
0,253,646,279,57,585,
0,252,638,276,56,579,
0,249,655,274,56,572,
0,248,796,271,56,565,
0,246,782,270,55,559,
0,244,769,268,55,552,
0,243,758,276,54,547,
0,241,747,274,54,596,
0,240,736,271,55,611,
0,238,725,270,55,603,
0,236,715,268,54,595,
0,235,704,265,54,588,
0,233,695,263,53,580,
0,231,686,261,52,574,
0,231,676,259,52,568,
0,228,667,257,51,561,
0,285,659,255,51,555,
0,281,652,253,51,591,
0,279,643,251,62,620,
0,275,636,249,62,612,
0,273,627,248,61,605,
0,271,620,246,60,600,
0,268,612,243,60,591,
0,267,605,241,59,585,
0,263,598,240,59,578,
0,263,591,239,59,572,
0,260,583,237,58,566,
0,273,577,235,57,559,
0,271,571,233,57,609,
0,268,564,231,57,601,
0,267,558,230,56,593,
0,263,553,228,56,587,
0,262,692,227,56,579,
0,259,807,225,55,572,
0,257,793,224,55,566,
0,255,781,222,55,561,
0,253,768,220,54,555,
0,251,757,219,53,548,
0,249,747,219,62,606,
0,302,735,220,63,598,
0,299,724,218,63,590,
0,295,714,216,62,583,
0,294,704,215,62,575,
0,291,695,213,61,569,
0,287,686,211,60,563,
0,286,679,210,60,556,
0,284,670,209,60,550,
0,280,661,207,59,543,
0,279,652,209,59,614,
0,276,643,209,59,607,
0,273,636,207,58,600,
0,271,628,206,58,591,
0,269,620,205,57,584,
0,268,612,204,57,577,
0,265,606,202,56,571,
0,263,599,200,56,564,
0,261,591,199,56,558,
0,327,584,198,56,551,
0,323,577,196,55,577,
0,319,573,195,55,596,
0,316,566,193,54,589,
0,313,560,192,54,582,
0,311,553,191,53,575,
0,307,547,190,53,570,
0,305,542,188,52,563,
0,302,536,187,51,556,
0,300,530,186,51,551,
0,300,604,185,51,543,
0,302,596,184,51,539,
0,300,588,184,50,606,
0,296,581,182,50,599,
0,294,574,181,49,591,
0,291,567,179,49,583,
0,289,559,179,48,577,
0,287,554,177,48,570,
0,284,608,176,48,563,
0,282,600,175,48,557,
0,280,591,174,47,551,
0,278,583,173,47,546,
0,275,577,195,46,588,
0,273,569,193,46,580,
0,271,563,192,46,573,
0,270,556,190,45,566,
0,268,548,188,45,560,
0,265,543,187,44,553,
0,263,681,185,44,547,
0,261,671,184,44,540,
0,259,661,183,44,535,
0,332,655,181,43,529,
0,339,646,273,43,563,
0,335,636,269,43,556,
0,332,628,266,42,548,
0,327,620,263,41,543,
0,326,611,262,41,537,
0,323,604,259,41,531,
0,320,596,257,40,526,
0,318,589,255,39,519,
0,315,582,253,39,515,
0,329,575,251,39,510,
0,326,568,249,39,556,
0,323,561,247,39,549,
0,319,555,245,39,543,
0,316,550,243,39,536,
0,313,543,241,38,530,
0,312,537,239,38,524,
0,308,531,237,38,519,
0,305,526,236,38,514,
0,303,520,233,37,508,
0,300,515,231,36,504,
0,298,510,231,36,498,
0,295,504,228,36,551,
0,294,499,227,35,544,
0,291,495,225,35,538,
0,289,489,224,35,531,
0,287,486,222,35,526,
0,284,483,220,34,519,
0,281,480,219,34,514,
0,280,475,216,34,508,
0,278,471,216,33,504,
0,275,466,214,33,498,
0,273,462,212,33,543,
0,271,457,211,33,537,
0,269,453,209,33,531,
0,267,449,207,33,524,
0,265,445,206,32,519,
0,263,440,204,31,512,
0,262,437,203,31,507,
0,259,433,201,31,502,
0,257,430,199,31,496,
0,255,425,199,31,492,
0,254,423,198,31,564,
0,252,419,195,34,557,
0,249,415,195,33,550,
0,248,412,193,33,543,
0,246,408,192,33,539,
0,244,405,190,32,532,
0,242,401,189,32,527,
0,240,398,188,31,520,
0,239,395,187,31,515,
0,310,391,239,31,510,
0,305,388,237,31,548,
0,303,385,235,31,555,
0,300,382,231,31,548,
0,297,380,231,30,542,
0,295,376,228,30,536,
0,291,387,227,30,529,
0,289,624,225,30,523,
0,287,663,223,30,518,
0,284,653,222,29,512,
0,281,644,220,29,508,
0,280,635,217,29,503,
0,278,627,216,29,551,
0,275,619,215,28,545,
0,273,611,213,28,539,
0,271,603,211,28,532,
0,268,595,209,28,526,
0,267,588,207,28,520,
0,264,580,207,27,515,
0,262,574,205,27,509,
0,260,569,204,27,504,
0,268,562,201,27,499,
0,267,556,239,27,558,
0,263,549,236,28,551,
0,262,543,235,27,546,
0,259,536,232,27,540,
0,257,531,231,27,534,
0,255,568,230,27,527,
0,254,734,227,26,521,
0,252,723,225,26,515,
0,249,711,224,25,510,
0,248,701,222,25,504,
0,246,691,220,30,567,
0,243,681,218,30,560,
0,241,675,217,30,551,
0,240,827,215,30,546,
0,238,812,214,30,540,
0,236,799,211,29,534,
0,235,787,209,29,529,
0,233,900,207,28,523,
0,231,909,207,28,518,
0,297,904,206,28,512,
0,295,881,204,28,560,
0,291,866,203,28,551,
0,289,852,200,28,545,
0,287,839,199,28,539,
0,284,825,198,27,532,
0,281,812,196,27,526,
0,280,803,195,27,520,
0,276,791,193,27,515,
0,274,815,192,27,510,
0,327,801,191,26,504,
0,324,788,189,25,499,
0,321,775,188,25,548,
0,318,764,186,25,542,
0,315,754,185,25,536,
0,312,743,184,24,529,
0,310,733,183,24,524,
0,307,723,182,24,518,
0,304,713,180,24,512,
0,302,704,179,24,506,
0,300,695,177,24,501,
0,296,686,176,24,496,
0,295,679,175,24,544,
0,291,671,174,24,538,
0,289,662,172,24,531,
0,287,654,172,23,526,
0,284,646,171,23,521,
0,283,653,169,23,515,
0,280,824,167,23,510,
0,278,811,167,22,504,
0,276,798,167,23,499,
0,273,785,165,22,494,
0,271,774,163,22,532,
0,270,761,163,24,526,
0,268,750,161,24,519,
0,265,739,161,23,513,
0,263,732,159,23,508,
0,261,721,159,23,503,
0,259,711,158,23,497,
0,257,701,157,22,492,
0,255,691,156,22,487,
0,344,683,155,22,483,
0,339,673,154,22,540,
0,336,664,153,22,532,
0,334,655,152,22,526,
0,330,647,152,21,519,
0,327,639,151,21,514,
0,324,632,150,21,508,
0,321,868,148,20,503,
0,319,852,147,20,497,
0,316,841,147,20,492,
0,313,827,146,20,487,
0,310,814,145,19,531,
0,307,801,148,20,529,
0,304,788,147,19,524,
0,302,776,146,20,518,
0,300,766,145,19,512,
0,297,754,145,19,507,
0,295,743,143,19,501,
0,293,733,143,19,496,
0,291,723,142,19,491,
0,291,713,141,19,486,
0,352,704,140,19,480,
0,348,694,139,19,527,
0,344,687,138,19,521,
0,341,678,137,19,515,
0,338,669,136,19,510,
0,335,811,135,19,504,
0,332,829,135,18,499,
0,327,816,134,18,495,
0,326,802,134,18,489,
0,323,790,133,18,484,
0,321,777,132,17,479,
0,318,767,131,18,519,
0,315,755,131,17,513,
0,312,743,129,17,507,
0,310,733,129,17,502,
0,307,723,128,17,496,
0,304,716,127,17,491,
0,302,705,127,17,486,
0,300,696,126,17,480,
0,297,687,125,16,476,
0,295,678,124,16,472,
0,292,668,124,16,547,
0,290,659,123,19,540,
0,287,652,122,19,534,
0,286,643,121,19,527,
0,284,636,121,19,521,
0,281,627,120,19,515,
0,280,620,120,18,510,
0,276,612,119,18,504,
0,275,606,124,18,499,
0,272,599,215,17,494,
0,271,593,235,17,547,
0,268,587,232,18,539,
0,266,580,231,18,532,
0,263,574,228,18,526,
0,262,568,226,18,521,
0,260,561,224,18,515,
0,259,708,222,17,510,
0,257,696,221,17,504,
0,255,686,219,17,499,
0,253,676,217,17,494,
0,251,667,216,17,488,
0,249,657,214,17,535,
0,248,649,211,17,528,
0,246,639,210,16,523,
0,243,634,209,16,516,
0,241,871,207,16,511,
0,240,854,206,15,505,
0,238,839,204,15,499,
0,236,826,202,15,496,
0,235,812,200,15,491,
0,235,799,199,15,485,
0,233,788,198,15,551,
0,231,775,196,15,543,
0,231,764,195,15,537,
0,229,753,193,15,531,
0,227,743,192,14,525,
0,225,732,191,15,519,
0,224,722,189,15,513,
0,222,714,188,14,508,
0,221,704,187,14,503,
0,220,696,199,14,497,
0,218,686,197,14,512,
0,216,677,195,14,508,
0,216,668,193,14,502,
0,214,660,192,14,496,
0,212,652,191,14,491,
0,211,643,189,13,487,
0,209,636,188,13,481,
0,208,627,186,13,476,
0,207,620,184,13,472,
0,206,612,184,13,467,
0,204,606,182,12,534,
0,203,600,180,17,526,
0,201,593,179,16,519,
0,199,587,178,16,514,
0,199,579,176,15,508,
0,198,573,176,15,504,
0,196,567,174,15,499,
0,195,560,173,15,493,
0,193,555,172,15,487,
0,193,548,171,15,483,
0,192,543,169,15,478,
0,191,536,167,23,541,
0,190,531,167,22,535,
0,188,526,166,22,528,
0,187,520,165,22,522,
0,186,515,163,22,516,
0,185,617,163,22,511,
0,184,806,161,21,505,
0,182,792,160,20,499,
0,182,780,159,20,495,
0,180,768,158,20,491,
0,179,755,164,23,543,
0,177,744,163,23,537,
0,177,734,162,23,531,
0,176,723,161,23,524,
0,175,713,159,23,519,
0,174,804,159,22,513,
0,172,830,157,22,507,
0,172,816,156,22,502,
0,170,803,155,22,496,
0,169,794,154,21,491,
0,167,782,199,24,545,
0,167,769,198,31,539,
0,166,759,195,31,532,
0,165,748,194,31,527,
0,164,736,192,31,521,
0,163,743,191,30,515,
0,163,799,190,30,510,
0,161,786,188,30,504,
0,159,774,207,29,499,
0,192,763,237,29,494,
0,189,751,235,29,543,
0,188,740,231,31,536,
0,185,729,231,31,529,
0,184,721,228,31,524,
0,183,711,227,31,518,
0,181,702,224,31,512,
0,179,692,223,30,505,
0,178,806,221,30,502,
0,176,792,219,30,496,
0,177,780,217,30,492,
0,176,768,216,29,488,
0,175,756,214,39,555,
0,173,744,212,39,548,
0,172,734,211,38,542,
0,171,723,209,38,536,
0,169,713,207,38,529,
0,167,704,206,37,523,
0,167,696,204,37,518,
0,166,687,203,36,512,
0,182,678,201,36,507,
0,184,669,199,35,501,
0,183,660,199,48,553,
0,180,652,196,48,546,
0,179,643,195,47,540,
0,177,636,194,47,533,
0,176,628,192,46,527,
0,175,620,192,46,521,
0,174,613,190,45,515,
0,172,744,188,44,510,
0,171,779,188,44,504,
0,222,766,289,44,499,
0,220,757,285,57,551,
0,217,745,281,61,545,
0,216,735,280,60,539,
0,214,724,277,60,533,
0,211,860,275,59,527,
0,209,844,271,59,522,
0,208,830,270,58,516,
0,206,817,268,57,511,
0,205,803,265,57,505,
0,204,792,263,56,499,
0,201,780,262,63,582,
0,199,768,259,79,572,
0,199,756,257,79,566,
0,197,745,255,78,559,
0,195,735,254,77,552,
0,194,728,251,76,546,
0,192,728,249,76,540,
0,191,831,248,75,534,
0,189,818,246,74,527,
0,196,806,243,73,524,
0,194,792,241,73,535,
0,192,780,240,72,588,
0,192,769,238,71,581,
0,190,758,236,71,574,
0,188,747,235,71,568,
0,187,736,233,70,560,
0,185,732,231,70,554,
0,184,721,230,70,547,
0,183,711,227,69,542,
0,204,704,226,68,536,
0,309,695,225,68,530,
0,305,686,224,75,591,
0,302,676,222,74,583,
0,300,668,220,73,577,
0,296,659,219,73,571,
0,294,651,217,71,564,
0,291,643,216,71,558,
0,289,635,215,71,551,
0,287,627,212,71,545,
0,284,620,211,70,539,
0,281,612,209,70,533,
0,280,606,208,74,610,
0,316,598,207,73,601,
0,312,592,205,73,594,
0,310,585,204,72,587,
0,307,579,202,71,579,
0,304,572,201,71,573,
0,301,566,199,71,568,
0,299,560,198,71,561,
0,295,554,196,70,556,
0,294,547,195,69,549,
0,291,542,194,88,619,
0,289,536,192,95,609,
0,287,531,192,94,602,
0,284,525,190,93,595,
0,281,519,188,92,587,
0,280,515,188,92,580,
0,278,561,186,91,574,
0,275,553,184,90,568,
0,272,546,184,89,561,
0,334,540,183,88,555,
0,330,533,181,88,564,
0,327,527,203,88,607,
0,323,519,199,88,600,
0,320,515,199,88,591,
0,318,509,198,87,584,
0,316,504,195,86,577,
0,312,499,194,85,571,
0,310,494,192,84,564,
0,307,489,191,83,558,
0,305,484,190,83,551,
0,304,481,188,83,556,
0,303,476,267,102,619,
0,300,471,263,100,611,
0,296,466,262,99,604,
0,295,462,259,99,595,
0,291,459,257,98,588,
0,289,455,255,97,582,
0,287,450,252,96,575,
0,284,446,250,96,568,
0,284,442,248,95,563,
0,332,438,270,94,558,
0,328,435,268,98,604,
0,326,430,265,97,596,
0,323,427,263,96,589,
0,319,423,261,96,582,
0,317,419,259,95,575,
0,315,514,257,94,568,
0,312,630,255,93,561,
0,308,621,252,92,556,
0,306,612,251,92,550,
0,338,607,248,91,543,
0,335,599,263,94,615,
0,331,591,260,96,608,
0,327,583,258,95,600,
0,324,575,255,95,595,
0,321,569,254,94,587,
0,319,562,252,93,580,
0,317,711,249,92,573,
0,313,700,248,91,567,
0,312,689,246,91,560,
0,308,679,243,89,554,
0,305,671,242,89,624,
0,303,661,240,89,615,
0,300,652,238,89,608,
0,297,646,236,88,600,
0,295,638,234,88,593,
0,293,630,232,87,585,
0,291,739,231,86,579,
0,288,727,229,86,574,
0,286,716,227,84,567,
0,284,705,225,84,561,
0,282,696,224,83,568,
0,280,686,223,84,620,
0,278,675,221,83,611,
0,275,667,220,83,604,
0,273,658,217,83,596,
0,271,651,216,81,590,
0,269,819,215,81,583,
0,267,870,213,80,575,
0,264,855,211,79,569,
0,263,839,210,79,563,
0,262,826,208,79,561,
0,259,814,207,79,639,
0,257,800,206,79,631,
0,255,788,204,78,623,
0,254,776,203,78,615,
0,252,765,201,77,608,
0,250,754,199,76,600,
0,248,875,199,76,593,
0,246,905,197,75,585,
0,244,911,195,75,579,
0,275,915,196,74,573,
0,271,916,195,73,631,
0,269,911,193,73,622,
0,267,883,192,73,614,
0,264,868,191,72,607,
0,263,855,190,71,600,
0,260,840,188,71,593,
0,257,902,187,71,587,
0,255,910,185,71,579,
0,254,913,184,70,574,
0,252,906,184,70,567,
0,249,881,182,69,608,
0,248,866,180,68,600,
0,246,903,179,68,591,
0,243,910,178,67,584,
0,241,908,177,67,577,
0,240,888,176,67,571,
0,238,871,174,66,564,
0,236,857,173,66,558,
0,235,843,172,65,553,
0,233,830,171,65,547,
0,231,817,180,65,563,
0,230,805,231,64,606,
0,228,796,230,64,599,
0,227,807,227,63,591,
0,225,795,225,63,583,
0,224,783,223,63,577,
0,222,772,222,63,570,
0,220,760,220,62,563,
0,219,750,217,62,558,
0,268,743,236,61,551,
0,294,732,233,60,547,
0,292,723,231,62,604,
0,289,713,230,62,596,
0,287,704,227,62,591,
0,284,695,225,61,583,
0,281,686,224,60,576,
0,280,718,223,60,570,
0,278,897,220,60,563,
0,275,907,219,59,556,
0,273,900,217,59,551,
0,324,879,318,58,544,
0,319,864,312,76,606,
0,317,849,309,76,598,
0,313,839,306,75,591,
0,311,825,304,74,583,
0,308,813,301,73,576,
0,305,800,298,73,569,
0,303,788,295,71,565,
0,300,891,294,71,559,
0,297,902,291,71,551,
0,295,883,289,71,546,
0,293,868,287,70,600,
0,290,854,284,71,591,
0,287,839,281,70,584,
0,286,827,280,70,577,
0,283,814,278,69,572,
0,281,801,275,68,564,
0,279,792,273,68,558,
0,276,780,271,67,551,
0,274,769,269,67,545,
0,271,758,267,67,540,
0,270,864,291,66,568,
0,268,849,355,69,607,
0,265,835,351,68,600,
0,263,821,348,67,591,
0,262,807,345,67,584,
0,259,796,342,67,577,
0,258,783,339,66,571,
0,255,771,335,65,564,
0,254,760,333,65,558,
0,295,750,330,65,551,
0,387,742,327,63,558,
0,382,732,324,65,611,
0,377,721,321,63,604,
0,374,711,319,63,596,
0,371,702,316,63,591,
0,367,692,313,63,583,
0,364,684,312,62,576,
0,359,675,309,62,569,
0,358,667,307,61,563,
0,355,658,304,61,558,
0,467,651,302,60,551,
0,496,643,300,60,608,
0,491,635,297,60,600,
0,484,710,295,59,593,
0,480,862,292,59,586,
0,474,847,290,59,579,
0,470,831,287,57,572,
0,464,899,286,57,566,
0,460,909,284,56,561,
0,455,912,291,56,555,
0,451,907,289,56,548,
0,446,883,287,56,608,
0,443,867,284,56,600,
0,439,853,282,56,593,
0,435,899,280,55,585,
0,431,885,278,55,579,
0,427,869,275,54,572,
0,423,855,273,54,565,
0,419,840,271,54,559,
0,415,831,270,53,551,
0,455,818,308,52,547,
0,455,806,355,52,609,
0,451,793,351,56,601,
0,446,782,348,56,595,
0,441,771,344,55,588,
0,437,760,341,54,581,
0,433,748,339,54,574,
0,429,738,335,54,568,
0,425,888,333,53,561,
0,421,905,330,52,555,
0,416,903,327,52,548,
0,412,881,324,51,564,
0,409,866,380,51,596,
0,406,890,376,51,589,
0,401,900,372,51,582,
0,398,881,368,50,575,
0,395,866,365,49,568,
0,391,852,362,49,563,
0,388,839,359,49,557,
0,384,825,355,49,551,
0,382,812,353,48,544,
0,380,799,350,48,538,
0,376,788,398,48,595,
0,372,775,392,48,588,
0,369,896,389,48,580,
0,367,881,385,47,574,
0,364,865,382,47,567,
0,359,855,377,46,560,
0,358,840,375,46,553,
0,355,828,371,46,547,
0,381,815,427,45,542,
0,481,802,420,45,537,
0,475,790,415,44,586,
0,470,777,412,45,579,
0,464,767,409,44,572,
0,460,755,405,44,565,
0,455,744,401,44,558,
0,451,764,398,43,551,
0,447,900,393,43,545,
0,442,909,391,43,539,
0,438,908,387,42,533,
0,433,892,384,42,527,
0,429,873,380,41,577,
0,425,859,376,41,569,
0,422,900,374,41,562,
0,417,904,370,40,558,
0,414,886,368,40,551,
0,409,889,364,39,544,
0,406,907,361,39,538,
0,403,912,359,39,532,
0,399,915,356,39,527,
0,396,915,353,39,521,
0,392,899,350,39,550,
0,390,876,348,39,582,
0,385,862,344,39,575,
0,383,848,342,39,568,
0,380,838,339,39,561,
0,376,824,335,39,555,
0,372,812,334,39,547,
0,369,799,331,38,543,
0,367,788,327,38,537,
0,364,777,326,38,531,
0,359,766,323,37,525,
0,358,755,321,37,578,
0,355,743,319,37,571,
0,352,824,316,36,564,
0,350,844,314,36,557,
0,347,829,312,35,551,
0,344,862,310,35,543,
0,341,905,307,35,537,
0,339,909,304,35,532,
0,361,906,303,35,527,
0,467,883,300,35,520,
0,461,867,298,35,585,
0,455,853,295,35,579,
0,451,839,294,35,573,
0,446,825,291,35,566,
0,443,813,290,35,560,
0,439,876,287,35,553,
0,434,905,286,33,547,
0,430,911,284,34,540,
0,425,915,281,33,535,
0,422,916,326,33,528,
0,417,905,323,33,598,
0,414,883,319,33,590,
0,409,868,316,33,582,
0,406,877,314,33,575,
0,402,905,312,33,568,
0,399,911,308,33,563,
0,395,913,306,32,556,
0,391,908,303,31,550,
0,388,882,301,31,543,
0,385,867,299,31,537,
0,382,854,295,31,558,
0,379,839,294,31,562,
0,376,826,291,31,556,
0,372,814,289,31,548,
0,369,801,287,31,543,
0,366,792,284,31,536,
0,363,817,283,31,530,
0,359,804,280,31,524,
0,356,792,279,30,519,
0,354,780,276,30,515,
0,351,768,274,30,510,
0,348,758,271,30,572,
0,345,747,271,30,566,
0,344,737,268,30,559,
0,340,727,267,30,551,
0,337,720,265,29,545,
