=~=~=~=~=~=~=~=~=~=~=~= PuTTY log 2021.04.22 13:11:16 =~=~=~=~=~=~=~=~=~=~=~=
2,5,407,193,34,590,,39,552,
0,557,391,168,39,546,
0,550,387,167,38,540,
0,543,384,167,38,532,
0,5,39,502,
0,569,399,171,39,560,
0,563,396,170,39,552,
0,557,391,168,39,546,
0,550,387,167,38,540,
0,543,384,167,38,532,
0,537,380,165,38,527,
0,531,440,164,40,520,
0,593,435,163,39,515,
0,585,431,161,39,510,
0,579,427,191,39,504,
0,571,422,1bbbj
0,564,417,188,39,545,
0,558,413,186,39,540,
0StartUp!
120,552,366,164,44,567,
0,547,364,163,43,562,
0,543,361,163,43,559,
0,540,359,161,43,553,
0,536,357,161,43,548,
0,530,355,160,42,543,
0,526,352,159,42,539,
0,523,380,159,42,536,
0,540,377,158,41,531,
0,536,375,156,41,526,
0,529,371,156,40,520,
0,523,367,154,39,515,
0,517,364,166,39,582,
0,512,359,164,39,574,
0,507,356,163,39,568,
0,502,353,162,39,560,
0,496,350,161,39,553,
0,491,347,159,39,547,
0,519,370,158,39,540,
0,555,366,156,39,535,
0,547,363,156,38,528,
0,541,359,154,38,523,
0,535,355,160,38,575,
0,527,352,159,37,568,
0,521,349,158,37,562,
0,516,345,156,36,555,
0,510,343,156,36,548,
0,505,339,154,36,542,
0,500,412,153,36,536,
0,566,407,152,36,529,
0,559,402,151,35,524,
0,551,398,187,35,518,
0,545,396,185,35,579,
0,541,391,184,35,571,
0,535,388,183,35,563,
0,528,384,181,35,557,
0,522,381,179,34,550,
0,516,377,178,34,543,
0,511,405,176,49,540,
0,607,399,175,49,532,
0,598,396,174,48,527,
0,592,391,173,48,521,
0,584,387,172,47,537,
0,577,384,185,47,572,
0,571,380,184,47,565,
0,563,376,182,46,558,
0,557,372,180,46,551,
0,551,368,179,45,545,
0,543,385,177,60,539,
0,634,428,176,59,532,
0,624,423,174,59,526,
0,616,419,173,59,520,
1,608,414,172,57,516,
1,601,409,199,57,561,
1,593,405,198,56,555,
2,588,401,197,56,547,
2,581,397,195,56,541,
3,574,392,193,56,535,
3,568,389,192,63,528,
3,595,399,190,63,523,
3,617,394,189,62,516,
3,609,391,188,62,511,
3,602,387,211,61,505,
4,595,384,219,60,579,
4,587,380,216,60,572,
4,579,376,214,60,564,
4,573,372,212,59,560,
4,566,369,210,59,553,
4,560,366,209,59,547,
5,591,412,207,63,540,
4,616,408,206,63,534,
5,608,403,204,63,527,
5,600,399,203,62,522,
5,593,395,201,62,577,
6,585,391,199,61,569,
6,578,387,198,60,563,
6,572,384,196,60,556,
5,564,380,195,60,549,
6,558,376,193,60,543,
6,551,440,192,61,536,
6,602,435,190,60,531,
6,594,430,188,60,526,
6,587,424,187,59,519,
6,579,420,186,59,543,
5,574,415,191,59,565,
5,567,412,189,57,558,
5,560,408,188,57,551,
5,553,403,186,57,544,
5,547,399,184,56,538,
5,541,527,184,60,532,
5,632,519,182,59,526,
5,624,513,180,59,519,
5,615,507,179,58,514,
4,608,502,177,57,537,
4,600,496,176,57,585,
4,592,490,175,56,580,
5,585,484,174,56,572,
4,578,480,173,56,566,
4,573,474,171,55,559,
4,567,470,170,76,552,
4,614,464,168,76,546,
4,605,460,167,75,540,
4,598,455,167,73,534,
4,590,450,165,73,527,
4,583,446,183,72,566,
4,575,442,180,71,559,
4,568,438,179,71,551,
4,561,433,177,71,545,
3,555,429,176,71,539,
4,548,424,175,70,534,
3,611,421,173,71,527,
3,617,416,172,70,522,
3,611,413,171,69,516,
3,603,408,169,68,511,
3,595,406,173,68,587,
3,588,401,172,67,579,
3,580,398,170,67,572,
3,574,393,168,66,564,
3,567,391,167,66,558,
3,560,387,166,65,551,
3,553,413,164,65,545,
3,619,408,163,65,539,
3,610,403,162,65,532,
3,603,399,161,63,527,
3,595,395,161,63,572,
3,587,391,161,63,585,
3,582,387,159,63,578,
3,575,384,159,62,571,
2,568,380,158,62,564,
2,561,376,156,61,557,
2,555,407,155,62,551,
2,639,401,153,61,543,
2,632,397,152,60,538,
2,624,394,172,60,532,
2,615,390,171,60,572,
2,608,386,180,60,603,
2,600,382,178,59,595,
2,592,379,176,58,589,
2,585,375,175,58,582,
1,578,371,174,57,575,
1,572,392,172,59,568,
1,615,401,172,59,561,
2,607,397,169,58,555,
1,600,393,168,57,548,
2,591,389,167,57,542,
1,584,385,204,57,608,
1,577,380,201,56,600,
1,571,378,199,56,591,
1,563,374,198,56,584,
1,556,371,196,56,578,
1,551,367,195,56,571,
1,593,378,193,57,566,
1,585,374,192,56,559,
1,577,371,190,56,553,
1,571,367,188,56,547,
1,565,364,203,56,619,
1,558,359,200,56,611,
1,551,356,199,55,603,
1,545,353,198,54,595,
1,539,351,195,54,588,
0,532,348,194,55,580,
1,535,380,192,56,574,
1,604,376,191,56,567,
1,596,371,199,56,560,
1,589,368,215,55,553,
1,582,364,263,55,614,
1,575,360,274,55,608,
1,568,357,271,54,600,
0,560,353,268,54,591,
0,556,350,267,53,584,
0,549,347,264,52,578,
0,543,392,263,52,571,
0,590,388,260,52,564,
0,583,384,258,51,558,
0,575,380,255,51,551,
0,568,376,254,51,603,
0,561,374,252,51,607,
0,554,369,249,50,599,
0,547,366,248,50,591,
0,541,363,246,49,583,
0,535,359,243,49,579,
0,529,355,242,49,572,
0,586,352,240,49,565,
0,580,348,238,48,559,
0,573,345,236,48,551,
0,566,342,235,48,545,
0,559,339,235,47,616,
0,551,335,233,47,608,
0,545,334,231,47,600,
0,539,331,230,46,593,
0,533,328,228,46,587,
0,527,326,227,46,579,
0,609,372,225,46,572,
0,600,368,223,45,566,
0,591,365,221,45,561,
0,584,361,220,44,555,
0,578,358,218,44,620,
0,571,354,216,44,611,
0,565,351,216,44,604,
0,558,348,214,43,596,
0,551,344,211,43,588,
0,545,340,210,52,582,
0,552,396,209,56,575,
0,596,391,207,55,568,
0,588,389,206,54,561,
0,581,385,204,54,555,
0,574,381,203,53,623,
0,567,377,201,52,615,
0,560,373,199,52,608,
0,553,369,199,51,600,
0,547,366,197,51,593,
0,540,362,195,51,587,
0,536,371,195,51,579,
0,611,367,193,51,572,
0,604,364,192,50,566,
0,595,359,191,49,559,
0,588,356,189,49,626,
0,580,353,188,49,616,
0,574,350,187,49,608,
0,567,347,185,48,600,
0,560,344,184,48,593,
0,553,340,183,47,586,
0,547,399,182,48,582,
0,605,396,179,48,574,
0,596,391,179,47,568,
0,589,388,177,47,561,
0,583,384,176,46,556,
0,575,380,176,46,615,
0,569,376,175,46,608,
0,562,372,174,45,600,
0,556,369,172,45,592,
0,549,366,171,44,585,
0,543,419,169,49,579,
0,614,429,168,49,572,
0,605,423,167,49,565,
0,598,419,167,48,559,
0,590,415,166,48,552,
0,583,411,195,47,609,
0,575,406,192,47,601,
0,568,401,191,47,593,
0,563,398,190,46,587,
0,556,393,188,46,579,
0,550,390,186,46,572,
0,578,406,184,46,566,
0,609,401,184,46,559,
0,601,397,182,45,552,
0,594,393,180,45,546,
0,587,390,184,44,600,
0,579,386,183,44,593,
0,572,382,180,44,585,
0,565,379,179,44,578,
0,559,375,178,43,573,
0,551,371,176,49,567,
0,550,371,175,64,560,
0,586,368,174,63,553,
0,579,364,173,63,547,
0,572,361,172,63,540,
0,564,358,171,62,600,
0,558,354,169,62,591,
0,551,352,167,61,584,
0,543,348,167,60,577,
0,537,345,166,60,571,
0,531,342,164,60,563,
0,526,392,163,62,557,
0,596,387,162,61,551,
0,588,384,161,60,545,
0,580,380,159,60,540,
0,574,376,159,60,551,
0,567,371,184,59,585,
0,561,368,183,59,578,
0,555,364,181,58,571,
0,548,360,179,57,564,
0,542,357,178,57,558,
0,536,387,176,57,551,
0,579,382,175,57,544,
0,572,378,174,56,538,
0,564,375,172,56,532,
0,557,371,171,56,536,
0,551,367,185,56,585,
0,543,363,184,55,579,
0,537,359,182,55,572,
0,531,356,180,54,566,
0,525,352,179,54,559,
0,520,360,177,58,551,
0,566,415,176,58,545,
0,585,412,174,57,539,
0,578,408,236,57,534,
0,571,403,233,56,527,
0,563,399,231,56,577,
0,556,394,228,56,569,
0,550,391,227,56,563,
0,543,387,224,55,556,
0,536,384,223,54,549,
0,531,380,221,54,543,
0,571,376,219,54,538,
0,591,372,217,53,531,
0,583,369,216,52,526,
0,577,366,214,52,519,
0,571,362,212,51,555,
0,563,359,211,51,547,
0,556,355,209,51,541,
0,550,352,207,50,535,
0,543,349,206,50,528,
0,537,345,204,50,523,
0,531,451,203,49,516,
0,627,459,201,49,511,
0,619,452,199,49,505,
0,611,448,198,48,500,
0,603,443,196,48,527,
0,595,438,195,48,540,
0,588,433,193,47,532,
0,583,428,192,47,527,
0,575,423,191,47,519,
0,568,419,190,46,515,
0,562,431,188,46,508,
0,588,425,187,46,504,
0,579,422,185,45,497,
0,573,417,184,45,492,
0,566,414,183,45,519,
0,559,409,198,44,550,
0,551,406,195,44,543,
0,545,401,194,44,536,
0,540,398,192,44,531,
0,533,393,191,43,525,
0,527,406,189,46,519,
0,603,443,188,46,513,
0,594,438,187,45,508,
0,587,433,185,44,503,
0,579,428,184,44,496,
0,572,423,182,44,534,
0,564,419,180,43,527,
0,558,415,179,43,520,
0,551,412,178,43,515,
0,545,408,176,43,508,
0,539,403,176,44,504,
0,609,452,174,48,497,
0,611,447,172,47,493,
0,604,441,172,47,487,
0,595,437,170,46,483,
0,588,432,171,46,551,
0,583,428,169,46,543,
0,575,423,167,45,536,
0,568,419,167,44,530,
0,562,415,166,44,524,
0,556,411,164,44,519,
0,549,461,163,46,512,
0,594,456,162,46,507,
0,586,451,160,45,501,
0,579,446,159,44,496,
0,572,441,176,44,543,
0,564,436,180,44,539,
0,558,432,179,44,532,
0,551,428,177,43,526,
0,544,423,176,43,519,
0,540,419,175,42,514,
0,534,415,173,43,508,
0,609,410,172,43,503,
0,601,407,171,43,497,
0,593,402,225,42,492,
0,586,398,222,41,536,
0,579,395,220,41,551,
0,572,391,218,41,543,
0,564,387,216,40,537,
0,558,384,215,40,531,
0,551,380,212,39,525,
0,545,395,211,46,519,
0,598,404,209,45,515,
0,590,399,207,4StartUp!
120,632,528,184,187,122,
0,625,524,185,186,121,
0,620,519,184,185,121,
0,615,515,184,184,120,
0,608,511,182,183,120,
0,603,506,181,182,119,
0,597,502,179,181,118,
0,591,497,179,180,118,
0,586,494,177,179,117,
0,580,489,177,178,116,
0,575,531,176,177,115,
0,600,524,174,176,115,
0,590,518,172,175,113,
0,583,511,171,173,112,
0,575,505,170,172,121,
0,568,499,167,171,121,
0,561,494,167,169,120,
0,555,487,166,167,119,
0,548,482,164,167,118,
0,543,476,163,166,117,
0,537,548,162,169,116,
0,617,541,161,167,115,
0,607,534,159,167,114,
0,600,527,158,166,113,
0,591,521,157,164,131,
0,583,515,156,163,129,
0,577,509,155,162,128,
0,570,502,153,160,127,
0,563,496,152,159,127,
0,556,491,152,159,125,
0,551,536,151,161,125,
0,604,529,150,159,124,
0,593,524,152,159,163,
0,586,517,150,158,161,
0,579,511,149,157,160,
0,572,504,147,156,159,
0,564,499,147,155,158,
0,558,492,145,153,156,
0,551,487,144,152,155,
0,545,481,143,198,153,
0,600,524,143,201,152,
0,644,518,142,199,152,
0,633,512,176,198,166,
0,625,505,175,196,164,
0,617,499,173,195,192,
0,609,495,172,193,189,
0,602,489,170,192,188,
1,595,482,168,190,186,
1,588,477,167,188,184,
2,580,495,166,222,183,
3,672,518,164,220,182,
3,662,512,163,217,179,
3,651,506,224,216,194,
3,641,499,221,214,209,
4,633,494,220,212,213,
5,625,487,217,210,211,
5,617,483,216,208,209,
6,610,476,214,207,207,
5,603,472,211,205,205,
6,595,518,210,214,204,
6,675,511,207,211,201,
6,665,504,207,209,199,
6,654,498,212,207,224,
6,644,492,211,206,221,
7,636,487,209,204,219,
7,628,481,207,203,217,
7,620,476,206,201,216,
7,612,470,204,199,213,
6,605,464,202,198,211,
6,598,463,199,210,210,
6,671,458,199,207,207,
6,662,454,197,206,207,
6,651,449,195,204,204,
6,642,444,194,203,231,
6,634,440,192,201,228,
6,625,435,191,199,227,
6,618,432,190,199,225,
5,611,427,188,196,223,
5,603,423,187,199,221,
5,595,483,185,215,219,
5,662,476,184,213,217,
5,650,471,183,211,216,
5,641,465,180,209,213,
4,632,460,179,207,211,
4,625,455,178,206,209,
4,617,450,176,204,207,
4,609,445,176,203,206,
4,601,440,174,201,204,
4,595,435,173,213,203,
4,631,493,172,212,201,
4,650,487,170,211,199,
3,639,481,217,208,199,
3,631,476,216,207,196,
3,623,471,214,205,195,
3,615,465,211,204,193,
3,607,460,209,202,192,
3,600,455,208,200,191,
3,593,449,207,199,190,
3,586,445,205,216,188,
3,676,441,204,214,187,
3,666,436,201,211,185,
3,655,432,199,209,212,
3,646,428,198,207,210,
3,638,423,196,206,208,
3,630,419,195,204,207,
3,622,415,193,203,204,
3,614,412,192,201,203,
3,606,408,191,199,201,
3,600,496,189,206,199,
3,660,513,188,204,198,
3,651,507,185,202,196,
3,639,501,184,200,196,
3,632,496,183,199,198,
3,624,489,182,198,195,
3,615,484,180,196,194,
3,608,479,179,195,192,
3,600,473,177,193,191,
3,593,467,176,192,190,
3,587,490,175,220,188,
3,655,483,174,218,187,
3,647,478,172,216,187,
3,636,472,172,215,184,
3,627,467,216,213,214,
3,620,463,220,211,211,
3,611,457,218,209,209,
3,604,452,216,207,207,
3,597,447,214,206,206,
3,590,443,212,207,205,
2,583,528,211,210,203,
2,667,521,209,207,201,
3,657,515,207,207,239,
3,647,508,206,205,236,
3,638,504,204,203,232,
3,630,497,201,201,231,
2,622,492,199,199,228,
2,615,486,199,199,227,
2,607,480,197,197,225,
2,600,483,195,209,223,
2,655,551,194,209,221,
2,671,544,192,207,219,
2,662,537,192,205,231,
2,651,531,190,204,230,
2,643,525,188,201,227,
2,634,519,187,199,225,
2,626,512,185,199,224,
1,618,507,184,197,222,
2,611,499,183,195,220,
2,604,524,181,206,218,
1,649,524,179,204,216,
1,639,517,179,202,215,
1,632,511,178,200,213,
1,622,505,177,199,211,
1,614,499,175,197,231,
1,606,494,174,195,228,
1,599,487,172,194,227,
1,591,483,171,192,224,
2,583,476,169,191,223,
1,578,472,169,219,221,
1,664,467,167,216,219,
1,655,462,167,215,217,
1,646,457,165,212,216,
1,636,452,166,211,215,
1,627,448,164,209,212,
1,620,444,163,207,211,
1,611,440,161,206,209,
1,604,435,160,204,207,
1,596,430,159,203,206,
1,590,446,158,224,204,
1,657,440,157,222,203,
1,647,435,156,220,222,
1,639,431,186,218,220,
1,628,427,184,216,230,
1,620,423,183,215,227,
1,612,419,181,213,225,
1,605,415,179,211,223,
1,598,411,178,209,221,
1,591,406,176,207,220,
1,590,553,175,222,217,
1,663,545,174,220,216,
1,654,539,175,218,215,
1,645,532,176,216,212,
1,635,526,174,215,228,
1,627,519,172,212,225,
1,619,513,171,211,224,
1,611,508,169,209,222,
1,604,502,167,207,220,
1,596,496,167,207,217,
1,644,540,166,216,216,
1,654,532,164,213,214,
1,644,526,188,211,219,
1,636,519,186,210,216,
1,626,513,184,208,215,
0,617,508,183,207,212,
1,610,502,181,205,211,
0,603,496,179,204,209,
0,595,491,177,201,207,
0,588,532,176,204,206,
0,655,534,175,203,204,
0,646,527,174,201,203,
0,638,520,172,199,226,
0,629,515,171,198,224,
0,619,508,169,196,231,
0,611,503,167,195,228,
0,604,497,167,193,227,
0,596,492,166,192,225,
0,589,487,164,191,223,
0,582,480,163,206,221,
0,635,475,161,204,219,
0,625,470,160,203,217,
0,617,465,159,200,216,
0,609,460,159,199,214,
0,600,455,157,198,212,
0,592,451,156,196,210,
0,584,446,155,195,208,
0,578,441,153,193,207,
0,572,438,152,192,205,
0,566,600,152,206,204,
0,651,591,150,204,202,
0,641,583,150,203,269,
0,633,575,150,201,273,
0,625,569,148,199,271,
0,615,562,147,198,268,
0,608,556,146,196,265,
0,600,548,145,195,263,
0,592,543,143,193,260,
0,585,536,143,192,258,
0,589,529,142,199,255,
0,652,523,141,198,254,
0,643,517,142,195,252,
0,635,511,141,194,249,
0,627,505,142,193,255,
0,616,500,141,191,252,
0,609,495,140,190,249,
0,601,489,139,188,248,
0,594,484,137,187,245,
0,587,480,137,206,243,
0,658,517,135,219,241,
0,651,511,135,216,240,
0,642,504,135,215,285,
0,633,499,133,213,281,
0,625,493,150,211,279,
0,615,487,148,209,275,
0,608,483,147,207,273,
0,600,477,145,206,271,
0,593,472,144,204,268,
0,585,467,143,204,267,
0,638,511,142,201,263,
0,629,504,141,199,262,
0,621,499,140,198,259,
0,612,492,139,196,257,
0,605,487,137,195,255,
0,595,481,135,193,252,
0,588,476,135,192,251,
0,580,471,134,191,248,
0,574,466,134,189,247,
0,568,497,132,194,244,
0,651,488,131,192,243,
0,641,483,131,191,241,
0,633,477,130,188,239,
0,624,472,129,188,237,
0,616,467,132,186,236,
0,607,462,131,184,233,
0,600,456,129,184,231,
0,591,452,129,182,230,
0,584,448,127,180,227,
0,578,445,127,193,226,
0,649,440,126,191,224,
0,641,435,127,190,223,
0,632,432,133,188,221,
0,624,427,131,187,220,
0,615,423,167,185,217,
0,607,419,164,184,216,
0,600,415,163,182,214,
0,591,412,161,180,212,
0,584,408,159,179,211,
0,587,509,159,194,209,
0,643,500,158,192,207,
0,635,495,156,191,207,
0,627,488,155,189,205,
0,618,483,153,188,265,
0,608,478,152,186,262,
0,601,472,151,184,259,
0,593,467,150,183,257,
0,587,462,148,182,255,
0,579,457,147,192,252,
0,642,472,146,198,250,
0,636,463,145,195,248,
0,627,459,144,194,246,
0,619,454,143,193,243,
0,611,449,195,192,241,
0,601,444,192,190,240,
0,594,440,190,188,238,
0,587,435,188,187,236,
0,579,431,187,185,233,
0,573,427,185,192,231,
0,643,466,184,190,230,
0,633,459,182,188,228,
0,625,454,180,186,227,
0,617,449,179,185,225,
0,609,444,177,184,223,
0,600,440,176,182,221,
0,592,434,174,180,220,
0,585,430,173,179,217,
0,578,425,172,178,216,
0,572,476,170,201,215,
0,633,484,168,199,212,
0,625,478,167,198,211,
0,616,472,167,195,209,
0,608,467,165,194,207,
0,601,462,163,192,207,
0,591,456,163,191,205,
0,584,451,161,190,203,
0,577,447,159,188,201,
0,571,442,159,187,199,
0,564,505,158,199,199,
0,649,499,156,196,197,
0,639,491,155,195,236,
0,632,486,154,193,233,
0,624,480,153,192,231,
0,615,475,152,190,231,
0,606,470,151,188,228,
0,599,463,150,187,226,
0,591,459,148,185,224,
0,583,454,147,184,223,
0,598,507,146,185,220,
0,634,498,145,184,219,
0,625,492,143,182,217,
0,617,487,143,180,216,
0,609,481,187,179,222,
0,601,476,184,178,220,
0,592,471,183,176,217,
0,585,465,180,176,216,
0,578,460,179,174,214,
0,572,455,177,175,212,
0,655,510,176,177,211,
0,651,502,175,176,209,
0,642,496,174,175,219,
0,633,489,172,174,216,
0,625,484,171,172,215,
0,617,479,169,171,212,
0,608,473,167,169,211,
0,600,468,166,167,208,
0,593,463,165,167,207,
0,585,461,163,169,206,
0,632,501,163,167,204,
0,623,494,161,166,203,
0,615,487,159,165,205,
0,608,482,159,163,206,
0,600,477,158,163,248,
0,591,472,156,161,246,
0,583,467,155,160,244,
0,575,461,153,159,241,
0,569,456,152,158,239,
0,563,451,152,167,237,
0,639,448,150,167,235,
0,631,441,149,165,233,
0,623,436,148,163,231,
0,615,432,147,162,230,
0,607,428,146,161,227,
0,600,423,145,159,225,
0,590,419,143,158,224,
0,583,415,143,157,222,
0,575,412,142,156,220,
0,569,472,140,169,218,
0,636,465,140,168,216,
0,627,459,139,167,227,
0,619,454,140,166,224,
0,611,449,139,164,263,
0,603,444,137,163,261,
0,595,439,135,161,259,
0,586,434,135,160,255,
0,579,430,135,159,253,
0,572,425,134,158,251,
0,583,447,132,159,249,
0,623,441,131,159,247,
0,615,435,131,157,244,
0,607,430,217,156,243,
0,598,425,215,155,245,
0,591,420,212,153,243,
0,583,416,211,152,240,
0,575,412,207,152,238,
0,568,408,207,151,236,
0,561,404,204,159,235,
0,627,402,203,158,231,
0,619,399,201,156,231,
0,611,395,199,155,229,
0,603,391,198,153,227,
0,595,387,196,152,225,
0,588,384,195,152,224,
0,580,380,193,150,222,
0,572,377,192,150,220,
0,564,374,190,148,218,
0,558,374,188,156,216,
0,619,406,187,155,215,
0,610,401,185,153,213,
0,603,396,184,152,211,
0,595,391,183,152,211,
0,587,387,182,150,234,
0,579,384,180,149,231,
0,572,380,179,147,230,
0,564,376,177,147,227,
0,558,372,176,145,225,
0,551,410,174,147,224,
0,611,404,173,147,222,
0,603,400,172,145,287,
0,595,395,171,144,302,
0,588,391,169,143,299,
0,580,387,167,142,295,
0,574,384,167,141,292,
0,567,380,165,140,290,
0,558,376,163,140,287,
0,551,371,163,139,284,
0,545,448,161,156,281,
0,596,442,160,154,280,
0,589,437,159,153,277,
0,582,431,158,152,275,
0,574,427,169,150,272,
0,568,422,169,149,271,
0,560,417,167,147,268,
0,553,413,167,147,266,
0,545,408,164,145,263,
0,540,404,163,144,262,
0,575,434,162,158,259,
0,609,428,160,156,257,
0,601,423,161,155,255,
0,594,419,159,153,253,
0,587,414,159,152,251,
0,579,409,157,152,249,
0,572,406,156,150,248,
0,566,401,155,149,246,
0,557,397,153,147,243,
0,551,393,152,156,241,
0,603,456,152,158,239,
0,593,451,150,156,237,
0,586,446,150,155,236,
0,579,440,148,153,233,
0,572,435,147,152,231,
0,564,430,146,151,230,
0,557,425,145,150,228,
0,551,422,143,148,227,
0,543,417,143,147,224,
0,537,428,142,174,223,
0,612,472,141,171,222,
0,604,466,140,169,220,
0,595,461,139,168,219,
0,588,454,137,167,216,
0,580,449,137,166,215,
0,574,444,135,164,214,
0,567,440,135,163,211,
0,560,435,134,161,210,
0,551,431,133,160,208,
0,545,448,132,168,207,
0,600,443,131,167,206,
0,591,438,130,166,230,
0,583,433,129,164,227,
0,576,428,128,163,225,
0,569,423,127,161,223,
0,563,419,127,160,221,
0,556,414,126,159,220,
0,550,410,126,158,217,
0,542,406,124,157,216,
0,536,459,124,163,214,
0,605,454,123,161,211,
0,598,448,136,160,210,
0,590,444,193,159,207,
0,582,437,192,158,207,
0,575,432,190,156,205,
0,568,428,188,155,204,
0,561,423,186,153,202,
0,555,419,184,152,200,
0,547,415,183,152,199,
0,569,462,181,159,197,
0,588,455,179,159,195,
0,580,451,178,158,195,
0,573,446,199,156,193,
0,566,440,198,155,192,
0,559,435,196,153,191,
0,552,430,195,152,190,
0,545,425,193,151,188,
0,537,422,192,150,187,
0,531,417,190,176,185,
0,620,457,188,176,184,
0,611,451,187,174,183,
0,603,448,184,172,182,
0,595,442,184,171,180,
0,588,435,182,169,201,
0,580,431,180,167,199,
0,573,427,179,167,198,
0,566,422,177,166,196,
0,558,418,176,164,195,
0,551,441,175,167,193,
0,613,467,173,166,191,
0,604,462,172,163,216,
0,597,456,170,163,225,
0,589,451,169,161,224,
0,582,445,167,159,221,
0,575,440,167,159,220,
0,568,435,166,158,217,
0,561,431,164,156,216,
0,552,427,163,156,214,
0,546,452,161,167,212,
0,620,447,159,166,210,
0,611,443,159,164,209,
0,604,438,158,163,207,
0,595,432,156,161,206,
0,588,427,156,159,204,
0,581,422,155,159,202,
0,574,417,153,158,200,
0,568,414,152,156,199,
0,559,409,151,155,198,
0,551,449,150,175,195,
0,615,444,148,173,194,
0,608,439,147,172,192,
0,600,433,147,170,191,
0,591,429,145,168,210,
0,584,423,144,167,207,
0,577,419,143,166,207,
0,571,415,143,164,204,
0,563,410,141,163,203,
0,556,406,140,168,201,
0,600,421,139,184,199,
0,609,415,138,183,198,
0,601,412,143,181,196,
0,593,407,142,179,194,
0,586,401,140,178,193,
0,579,398,140,176,192,
0,572,394,138,175,191,
0,565,391,137,174,189,
0,558,387,135,172,188,
0,550,384,135,182,187,
0,625,463,134,182,184,
0,616,457,133,179,183,
0,608,451,132,178,182,
0,600,447,156,177,180,
0,592,440,153,175,179,
0,585,435,152,174,177,
0,579,431,151,172,176,
0,571,427,150,171,176,
0,564,422,148,169,174,
0,556,451,147,171,174,
0,631,470,146,169,172,
0,622,463,144,167,196,
0,614,459,143,167,204,
0,606,454,143,165,212,
0,598,448,143,163,214,
0,590,442,142,162,211,
0,583,438,140,161,210,
0,575,433,140,159,208,
0,569,428,138,159,207,
0,561,489,137,174,205,
0,625,482,135,172,203,
0,617,476,135,171,201,
0,608,471,135,169,199,
0,601,465,134,167,199,
0,593,459,132,167,198,
0,585,454,131,165,196,
0,579,449,131,163,195,
0,572,444,129,163,193,
0,565,440,128,161,192,
0,563,477,127,171,190,
0,621,471,127,169,188,
0,612,465,126,167,220,
0,604,460,125,167,217,
0,597,455,124,166,227,
0,590,448,123,164,224,
0,582,444,123,163,222,
0,575,439,121,161,220,
0,568,435,120,159,219,
0,561,430,120,165,216,
0,614,499,119,172,215,
0,615,492,118,171,212,
0,607,487,120,169,211,
0,600,481,119,167,209,
0,591,476,118,167,215,
0,584,469,117,165,212,
0,577,463,116,163,211,
0,570,459,115,162,209,
0,563,454,115,161,207,
0,556,449,114,171,206,
0,624,467,113,170,204,
0,615,463,112,168,202,
0,608,457,176,167,200,
0,600,452,174,166,199,
0,591,448,172,164,198,
0,583,441,171,163,196,
0,577,437,169,161,195,
0,570,432,167,160,193,
0,563,428,167,159,192,
0,557,462,165,161,190,
0,615,463,163,159,189,
0,607,458,162,159,188,
0,599,453,161,158,185,
0,591,448,159,156,203,
0,583,443,159,156,201,
0,576,438,158,154,199,
0,569,433,156,153,198,
0,563,428,155,152,196,
0,556,423,153,151,195,
0,551,472,152,161,193,
0,617,465,151,159,192,
0,609,460,150,159,190,
0,601,455,148,157,188,
0,593,449,147,156,199,
0,587,445,146,155,196,
0,579,439,145,153,195,
0,572,434,144,152,193,
0,566,430,143,151,192,
0,559,425,142,150,190,
0,552,444,141,179,188,
0,620,438,140,177,187,
0,611,433,140,176,201,
0,604,428,139,174,199,
0,596,423,137,172,199,
0,589,419,136,172,198,
0,582,415,135,169,196,
0,575,410,135,167,195,
0,568,406,134,167,193,
0,561,403,132,166,192,
0,557,429,131,165,190,
0,622,423,130,163,188,
0,614,419,191,163,187,
0,606,415,188,161,185,
0,598,411,186,159,200,
0,591,406,184,159,199,
0,583,401,183,157,197,
0,575,397,181,156,195,
0,569,393,179,155,193,
0,562,391,178,167,192,
0,618,445,177,167,191,
0,615,440,175,166,188,
0,608,435,174,164,187,
0,600,431,173,163,185,
0,592,426,172,161,199,
0,584,422,171,159,198,
0,577,415,168,159,196,
0,571,412,167,158,195,
0,563,408,167,156,193,
0,558,435,165,166,192,
0,609,429,163,164,190,
0,599,423,162,163,199,
0,591,419,161,161,196,
0,583,415,159,159,202,
0,575,411,158,159,211,
0,569,407,157,158,209,
0,563,401,156,156,207,
0,556,398,155,155,206,
0,549,393,153,153,204,
0,543,447,152,157,202,
0,620,440,152,156,199,
0,609,435,150,154,201,
0,601,431,149,152,199,
0,594,427,152,152,199,
0,587,422,167,151,197,
0,579,417,167,150,195,
0,572,412,165,148,193,
0,566,408,163,147,192,
0,559,403,162,146,191,
0,551,446,161,167,189,
0,604,440,159,166,188,
0,594,435,158,164,188,
0,587,431,156,163,186,
0,579,427,156,161,217,
0,572,422,154,160,215,
0,565,417,153,159,213,
0,558,412,152,158,211,
0,551,408,151,156,209,
0,545,403,150,161,207,
0,560,448,148,164,206,
0,621,443,147,163,204,
0,611,438,146,161,203,
0,603,433,144,159,200,
0,595,428,143,159,231,
0,588,423,143,158,228,
0,580,419,142,156,227,
0,573,414,140,155,224,
0,567,409,140,153,222,
0,560,417,139,176,220,
0,626,487,137,174,219,
0,629,482,136,172,216,
0,621,476,140,172,216,
0,612,471,140,169,214,
0,605,465,138,168,236,
0,598,460,137,167,233,
0,590,455,135,166,231,
0,583,449,135,164,229,
0,575,444,134,163,227,
0,568,465,133,174,225,
0,635,460,132,172,224,
0,623,455,131,171,222,
0,615,449,197,169,220,
0,608,444,195,167,223,
0,600,440,193,167,221,
0,591,435,192,166,219,
0,584,431,190,164,217,
0,578,425,188,163,216,
0,571,420,187,161,214,
0,564,481,185,176,212,
0,627,475,184,174,211,
0,615,470,182,172,234,
0,608,463,180,171,259,
0,600,459,200,169,257,
0,592,454,216,167,255,
0,585,448,214,167,252,
0,578,444,211,166,249,
0,572,438,209,164,248,
0,564,433,207,164,246,
0,558,498,206,188,243,
0,628,492,204,185,241,
0,617,486,203,184,242,
0,609,480,201,183,240,
0,601,475,199,181,238,
0,594,470,198,179,236,
0,587,464,196,178,234,
0,579,460,195,177,231,
0,573,454,193,175,230,
0,567,448,192,190,228,
0,587,516,190,191,227,
0,636,510,188,189,225,
0,625,504,187,188,224,
0,617,497,185,186,221,
0,609,492,184,184,224,
0,601,486,183,184,222,
0,593,480,181,182,220,
0,587,475,179,180,219,
0,579,470,178,179,216,
0,573,473,177,187,216,
0,641,504,176,185,213,
0,633,497,174,184,211,
0,623,492,173,183,210,
0,614,487,172,181,207,
0,607,481,170,179,207,
0,599,476,169,178,205,
0,591,471,167,176,204,
0,584,463,167,175,202,
0,577,459,165,174,200,
0,571,493,163,182,199,
0,632,487,163,179,198,
0,623,480,161,178,197,
0,612,475,160,177,220,
0,604,470,159,176,220,
0,596,464,185,174,217,
0,590,459,184,172,216,
0,582,454,182,172,214,
0,575,448,180,169,212,
0,568,444,179,167,211,
0,563,536,177,207,209,
0,647,528,176,205,207,
0,638,521,175,204,208,
0,627,515,173,201,207,
0,620,510,172,199,204,
0,611,504,170,199,203,
0,604,498,168,196,201,
0,596,492,167,195,199,
0,589,486,166,193,198,
0,582,480,165,192,196,
0,575,559,163,195,195,
0,633,551,162,193,193,
0,625,543,161,192,192,
0,615,537,159,190,191,
0,607,531,158,189,188,
0,600,525,157,188,188,
0,591,519,156,186,186,
0,584,513,155,184,184,
0,577,505,153,184,184,
0,571,500,152,199,182,
0,598,527,152,199,181,
0,645,519,151,198,179,
0,636,514,197,195,205,
0,626,508,230,194,203,
0,618,502,227,192,199,
0,610,496,226,191,199,
0,603,491,224,190,197,
0,595,486,222,188,195,
0,588,480,220,187,193,
0,580,475,218,205,192,
0,655,470,216,203,191,
0,645,465,215,201,189,
0,637,460,212,199,236,
0,626,455,211,198,233,
0,619,451,209,196,231,
0,611,447,207,195,228,
0,603,442,206,193,227,
0,595,438,204,192,225,
0,588,432,203,190,223,
0,581,476,200,209,221,
0,671,470,199,207,219,
0,662,463,198,205,217,
0,653,459,196,203,216,
0,641,454,195,201,214,
0,633,448,193,199,212,
0,625,444,192,198,210,
0,617,440,190,196,208,
0,610,434,188,195,207,
0,603,428,187,193,206,
0,595,503,185,204,204,
0,652,496,184,203,201,
0,643,489,183,201,203,
0,634,483,182,199,200,
0,624,478,179,198,199,
0,615,473,179,196,197,
0,608,467,177,195,195,
0,600,463,176,193,194,
0,593,457,175,192,193,
0,586,451,173,192,192,
0,579,507,172,202,190,
0,652,499,171,200,188,
0,643,494,169,199,190,
0,634,487,167,197,188,
0,624,483,167,195,187,
0,615,477,166,194,185,
0,608,472,164,193,184,
0,600,467,163,191,183,
0,593,462,162,190,181,
0,586,455,161,195,179,
0,603,497,159,195,178,
0,632,492,159,193,177,
0,624,486,158,192,176,
0,615,480,156,190,175,
0,606,476,155,189,184,
0,598,470,153,187,182,
0,591,464,152,185,180,
0,583,460,152,184,179,
0,575,455,151,183,177,
0,569,465,150,203,176,
0,659,480,148,199,175,
0,648,473,147,199,174,
0,639,468,204,197,188,
0,632,463,202,195,187,
0,622,458,199,194,185,
0,614,453,198,192,184,
0,606,448,196,191,182,
0,599,444,195,189,180,
0,591,439,193,188,179,
0,584,459,192,199,177,
0,668,453,190,198,176,
0,658,448,188,195,175,
0,649,443,187,194,173,
0,639,438,185,192,172,
0,631,433,184,191,184,
0,622,430,183,190,182,
0,615,424,180,188,180,
0,607,420,179,187,178,
0,600,417,178,185,177,
0,592,470,176,220,176,
0,660,463,175,219,174,
0,651,458,174,216,173,
0,643,452,175,215,172,
0,633,448,173,213,187,
0,624,443,176,211,184,
0,615,438,175,209,183,
0,608,433,174,207,182,
0,600,428,172,206,179,
0,593,423,171,204,179,
0,587,543,169,210,177,
0,641,536,167,208,175,
0,632,529,167,207,174,
0,624,523,166,205,172,
0,616,517,165,204,200,
0,607,511,163,201,198,
0,600,504,162,199,196,
0,591,499,160,199,195,
0,584,494,159,197,193,
0,577,488,158,198,192,
0,641,515,157,208,190,
0,671,510,156,207,188,
0,664,504,213,205,187,
0,654,497,211,204,185,
0,646,492,209,201,184,
0,635,487,207,199,182,
0,627,481,204,199,180,
0,619,476,203,197,179,
0,611,471,201,195,177,
0,604,466,199,201,176,
0,650,528,198,199,175,
0,639,523,196,198,174,
0,632,515,195,196,184,
0,624,510,193,195,182,
0,614,504,192,193,180,
0,607,498,190,192,179,
0,599,492,188,191,177,
0,591,487,187,189,176,
0,584,481,185,188,174,
0,578,477,184,213,173,
0,658,470,183,211,172,
0,648,465,181,209,170,
0,639,460,179,207,169,
0,632,455,178,205,167,
0,622,451,177,204,167,
0,614,446,175,202,165,
0,606,441,174,200,164,
0,599,438,172,199,163,
0,591,433,172,198,162,
0,584,527,170,219,161,
0,662,518,169,216,159,
0,652,511,167,215,159,
0,643,505,166,212,158,
0,636,499,165,211,188,
0,625,494,163,209,185,
0,617,487,162,207,184,
0,609,483,161,206,182,
0,602,478,159,204,179,
0,595,472,159,202,179,
0,588,531,158,206,177,
0,652,522,156,204,176,
0,643,516,156,201,195,
0,634,510,154,199,193,
0,626,504,153,199,192,
0,615,498,152,197,190,
0,608,492,151,195,188,
0,600,487,150,194,186,
0,593,481,148,192,184,
0,585,476,147,195,183,
0,623,518,147,201,182,
0,633,510,145,199,180,
0,625,504,144,198,230,
0,617,497,143,196,227,
0,609,492,143,195,225,
0,600,486,142,193,223,
0,591,481,140,192,221,
0,584,476,140,191,219,
0,577,471,139,189,217,
0,571,465,137,199,216,
0,649,460,136,199,214,
0,639,455,135,196,211,
0,632,450,135,195,210,
0,624,445,134,193,208,
0,615,440,142,192,207,
0,606,436,140,190,205,
0,598,432,139,188,203,
0,591,428,138,187,201,
0,583,423,137,185,199,
0,577,440,135,208,198,
0,631,444,135,207,196,
0,622,440,134,204,195,
0,614,435,133,202,193,
0,606,430,132,201,211,
0,598,425,131,199,209,
0,588,420,130,198,207,
0,582,416,129,195,205,
0,575,413,127,194,204,
0,568,409,127,193,201,
0,561,465,127,201,199,
0,636,457,126,199,199,
0,627,452,125,198,243,
0,620,448,155,196,240,
0,611,442,154,195,238,
0,604,438,152,193,236,
0,594,433,151,192,234,
0,587,428,150,190,231,
0,579,423,148,188,230,
0,572,419,147,187,227,
0,577,472,146,201,225,
0,647,465,145,199,224,
0,638,460,143,198,225,
0,630,455,143,196,223,
0,622,449,143,195,222,
0,614,444,141,193,220,
0,604,440,140,192,218,
0,596,435,139,190,216,
0,589,430,137,188,214,
0,582,425,136,190,212,
0,639,519,135,192,211,
0,642,510,134,190,209,
0,633,504,134,188,207,
0,625,497,132,187,206,
0,617,492,131,185,214,
0,609,487,131,184,211,
0,600,481,129,183,209,
0,591,476,129,181,207,
0,585,471,127,179,206,
0,578,465,127,198,204,
0,664,487,126,199,203,
0,655,480,125,196,201,
0,646,474,165,195,199,
0,637,468,163,193,199,
0,629,463,162,192,197,
0,621,459,160,190,195,
0,611,454,159,188,194,
0,604,449,157,187,192,
0,596,444,156,185,191,
0,590,440,155,193,189,
0,625,435,153,191,188,
0,617,430,152,189,187,
0,609,425,152,188,185,
0,601,422,150,185,184,
0,593,417,148,184,183,
0,586,413,147,183,181,
0,577,409,146,182,179,
0,571,406,145,180,178,
0,564,401,143,179,177,
0,558,472,143,188,176,
0,638,464,142,187,174,
0,630,458,141,184,173,
0,622,452,142,184,172,
0,613,448,141,182,209,
0,605,443,140,180,207,
0,598,438,139,179,204,
0,588,433,137,178,203,
0,582,428,135,176,201,
0,575,423,135,175,199,
0,590,485,134,199,198,
0,641,479,133,198,195,
0,633,472,140,195,215,
0,625,467,139,194,212,
0,616,461,148,193,211,
0,608,455,147,191,209,
0,601,451,145,190,207,
0,591,447,143,188,206,
0,584,441,143,187,204,
0,577,437,142,194,202,
0,639,513,140,199,199,
0,635,505,140,197,199,
0,627,498,139,195,201,
0,619,492,137,193,199,
0,611,487,165,192,198,
0,603,481,163,191,196,
0,595,476,161,189,195,
0,586,471,159,188,193,
0,579,465,159,186,192,
0,572,461,158,185,190,
0,630,495,156,184,188,
0,620,488,155,183,187,
0,612,481,153,181,186,
0,604,476,156,179,185,
0,597,471,155,178,197,
0,589,465,153,177,195,
0,582,460,152,176,193,
0,573,455,151,175,192,
0,567,451,150,173,190,
0,560,489,148,197,188,
0,641,483,147,195,187,
0,632,476,146,193,204,
0,624,470,145,191,201,
0,615,464,143,190,201,
0,608,460,143,188,199,
0,600,454,141,187,198,
0,593,449,140,185,196,
0,583,444,139,184,195,
0,577,440,138,182,193,
0,571,494,137,188,192,
0,641,487,135,187,190,
0,632,481,135,184,199,
0,624,474,134,183,198,
0,615,469,133,182,206,
0,608,463,132,180,204,
0,600,459,131,179,202,
0,592,454,131,177,199,
0,583,449,129,176,198,
0,576,444,128,175,196,
0,599,489,127,194,195,
0,646,483,126,192,193,
0,637,478,167,191,192,
0,628,471,166,189,190,
0,620,465,164,187,222,
0,612,460,163,185,220,
0,605,455,161,184,218,
0,598,450,159,183,216,
0,588,446,158,181,214,
0,582,440,157,185,212,
0,654,436,156,185,211,
0,643,432,155,184,208,
0,635,428,159,183,242,
0,627,423,158,180,240,
0,619,419,189,179,238,
0,611,414,187,177,236,
0,603,410,185,176,233,
0,595,407,184,175,231,
0,586,403,181,174,229,
0,579,399,179,195,227,
0,647,425,179,194,225,
0,638,420,177,192,224,
0,630,415,176,191,237,
0,621,411,175,188,235,
0,614,406,173,187,233,
0,606,401,172,185,231,
0,598,398,170,184,229,
0,589,394,169,183,227,
0,582,391,167,182,225,
0,575,425,166,183,223,
0,632,420,164,181,221,
0,624,415,163,179,220,
0,615,412,162,179,217,
0,607,406,161,176,236,
0,600,401,159,175,232,
0,591,398,158,174,231,
0,584,393,157,172,228,
0,575,390,156,171,227,
0,569,386,155,170,224,
0,563,460,153,187,223,
0,625,454,152,185,220,
0,616,448,151,184,219,
0,609,444,150,182,217,
0,601,438,149,180,235,
0,593,433,148,178,231,
0,586,428,147,177,230,
0,579,423,146,176,228,
0,571,419,145,175,226,
0,563,415,143,173,224,
0,588,459,143,180,222,
0,620,453,142,179,220,
0,611,448,141,177,219,
0,603,441,140,176,217,
0,595,438,177,174,216,
0,588,432,174,172,214,
0,580,428,173,171,212,
0,574,423,171,169,211,
0,565,419,169,167,209,
0,559,415,167,180,207,
0,627,432,167,179,205,
0,617,428,166,177,204,
0,609,423,164,176,224,
0,601,418,164,175,222,
0,594,412,163,173,224,
0,586,408,161,172,222,
0,579,404,160,171,220,
0,572,400,159,169,217,
0,563,396,158,167,216,
0,558,410,156,180,214,
0,636,451,155,178,211,
0,627,447,153,177,210,
0,619,441,152,176,208,
0,610,435,152,174,207,
0,603,431,151,172,236,
0,595,426,150,171,233,
0,588,422,148,169,231,
0,580,417,147,167,230,
0,572,413,146,167,227,
0,566,499,145,177,225,
0,638,527,143,175,223,
0,627,520,143,174,224,
0,620,514,143,172,222,
0,611,507,172,171,254,
0,604,500,171,169,249,
0,596,495,169,167,248,
0,589,489,167,167,245,
0,582,484,167,166,243,
0,573,479,165,164,241,
0,567,473,163,168,239,
0,591,468,162,167,236,
0,583,463,160,166,236,
0,576,459,159,164,234,
0,569,453,158,163,231,
0,563,448,157,162,231,
0,556,444,156,161,228,
0,550,440,154,159,227,
0,543,435,153,159,225,
0,536,431,152,158,223,
0,575,464,151,161,220,
0,600,459,150,160,219,
0,591,454,148,159,217,
0,583,448,147,158,216,
0,576,443,146,156,225,
0,569,438,145,156,223,
0,563,433,143,154,221,
0,556,428,143,153,220,
0,550,423,142,152,217,
0,542,420,140,165,216,
0,621,481,140,164,213,
0,611,476,138,163,211,
0,604,471,164,161,219,
0,596,464,163,160,216,
0,588,459,161,159,231,
0,581,454,159,158,231,
0,574,448,159,156,228,
0,568,444,157,155,226,
0,560,440,156,153,224,
0,551,444,155,159,222,
0,627,449,153,158,220,
0,619,444,152,156,218,
0,611,440,184,155,216,
0,603,435,182,153,215,
0,595,429,180,152,213,
0,588,424,179,152,211,
0,580,420,177,150,209,
0,574,415,176,149,207,
0,567,412,174,148,206,
0,559,473,173,166,204,
0,604,467,171,164,203,
0,596,462,169,163,201,
0,588,456,167,161,199,
0,582,451,167,160,216,
0,574,445,166,159,215,
0,568,440,164,158,212,
0,560,435,163,156,211,
0,553,431,162,155,209,
0,547,427,160,154,207,
0,543,465,159,189,205,
0,615,459,158,187,203,
0,607,454,157,185,201,
0,600,448,156,184,199,
0,591,444,154,182,199,
0,583,438,153,180,198,
0,576,432,152,179,196,
0,569,428,151,177,195,
0,563,423,150,176,193,
0,556,419,148,176,192,
0,599,465,147,177,191,
0,617,459,145,176,189,
0,609,454,145,174,188,
0,601,448,143,173,186,
0,594,444,143,172,220,
0,587,438,142,169,217,
0,579,433,140,168,215,
0,572,428,140,167,213,
0,566,423,139,166,211,
0,559,419,137,179,209,
0,632,446,135,180,207,
0,622,440,135,178,206,
0,614,435,152,177,204,
0,606,431,152,176,202,
0,599,426,151,174,209,
0,591,420,150,172,207,
0,583,415,148,171,206,
0,575,412,147,169,204,
0,569,408,146,167,202,
0,563,430,145,182,199,
0,651,433,143,179,199,
0,641,429,142,179,221,
0,633,423,141,177,260,
0,624,419,140,176,258,
0,616,415,139,174,255,
0,608,409,138,172,253,
0,601,406,137,171,251,
0,593,401,135,169,248,
0,586,398,135,167,247,
0,580,456,134,172,244,
0,617,451,133,169,241,
0,609,446,131,168,240,
0,601,440,134,167,238,
0,593,435,132,166,236,
0,586,431,131,164,234,
0,579,425,131,163,231,
0,572,420,129,162,231,
0,566,415,129,161,228,
0,559,412,127,159,227,
0,552,448,127,169,225,
0,620,442,126,167,223,
0,611,438,129,167,224,
0,604,432,130,166,222,
0,595,428,129,164,220,
0,588,423,127,163,218,
0,581,417,127,161,216,
0,574,413,126,159,215,
0,567,409,125,159,213,
0,560,405,124,165,211,
0,553,460,124,176,210,
0,624,454,122,175,207,
0,615,448,134,174,206,
0,607,443,131,172,205,
0,600,439,134,171,204,
0,591,433,132,169,201,
0,584,428,131,167,199,
0,577,423,131,167,199,
0,571,419,129,165,197,
0,563,415,127,188,195,
0,585,447,127,186,195,
0,604,441,126,184,192,
0,596,437,215,183,205,
0,588,432,211,182,203,
0,582,427,209,180,250,
0,574,423,207,179,248,
0,568,417,205,177,246,
0,560,413,204,176,243,
0,553,408,201,174,241,
0,547,439,199,191,239,
0,628,445,199,188,237,
0,617,440,196,187,235,
0,609,435,195,185,232,
0,601,431,193,184,231,
0,593,425,192,183,229,
0,587,422,190,181,227,
0,579,415,189,179,225,
0,572,412,188,177,224,
0,566,407,185,176,222,
0,559,449,184,195,220,
0,639,444,183,193,218,
0,630,439,181,192,216,
0,622,434,179,191,214,
0,614,429,178,189,214,
0,606,423,177,188,212,
0,598,419,176,185,211,
0,591,414,174,184,208,
0,583,410,173,183,207,
0,576,406,172,181,206,
0,570,456,171,190,204,
0,641,451,169,188,203,
0,632,446,167,187,199,
0,624,440,167,185,199,
0,616,436,166,184,198,
0,609,432,164,182,196,
0,601,427,163,180,195,
0,593,421,161,179,193,
0,586,417,160,177,192,
0,579,412,159,188,191,
0,575,449,158,195,189,
0,647,444,157,193,188,
0,639,439,156,191,193,
0,631,434,155,190,191,
0,623,430,201,188,189,
0,615,424,199,187,188,
0,607,420,196,184,187,
0,600,415,195,184,185,
0,591,410,193,182,184,
0,585,407,192,199,183,
0,632,409,190,196,181,
0,639,404,188,195,179,
0,631,401,187,193,204,
0,622,397,184,192,203,
0,614,393,184,190,201,
0,606,390,183,189,199,
0,599,386,180,187,198,
0,591,382,179,185,196,
0,583,377,178,184,195,
0,577,437,177,203,193,
0,653,487,175,200,192,
0,641,480,174,199,190,
0,632,475,172,198,188,
0,624,470,171,195,219,
0,615,463,169,194,229,
0,608,459,167,192,227,
0,600,452,167,191,225,
0,593,448,166,189,223,
0,585,443,164,188,221,
0,579,499,163,210,219,
0,651,492,162,207,217,
0,639,486,160,206,219,
0,632,480,207,204,217,
0,623,475,206,203,241,
0,615,470,204,201,239,
0,607,463,203,199,236,
0,600,457,200,198,235,
0,591,453,199,196,232,
0,584,448,197,195,231,
0,578,490,195,198,228,
0,632,483,194,195,227,
0,622,478,192,194,225,
0,614,472,191,192,223,
0,606,467,189,191,220,
0,599,462,188,190,219,
0,591,456,186,188,217,
0,583,451,184,187,216,
0,576,446,184,185,214,
0,570,441,182,190,212,
0,569,519,180,192,210,
0,630,513,179,191,208,
0,620,508,177,189,210,
0,611,501,176,188,207,
0,604,496,175,185,206,
0,596,489,173,184,204,
0,588,484,172,184,203,
0,582,478,171,182,201,
0,574,472,169,179,199,
0,568,468,167,196,198,
0,628,504,167,195,196,
0,636,498,166,193,195,
0,625,492,164,192,193,
0,616,487,163,190,192,
0,609,481,161,188,190,
0,601,476,160,187,189,
0,593,471,159,185,188,
0,587,463,158,184,186,
0,579,460,157,182,184,
0,572,523,156,207,184,
0,656,524,155,206,182,
0,647,518,153,204,180,
0,636,512,211,202,179,
0,627,505,209,200,214,
0,620,499,207,199,224,
0,612,494,205,198,221,
0,604,488,204,195,220,
0,596,481,201,195,217,
0,590,476,199,192,216,
0,583,515,199,219,214,
0,636,508,196,216,211,
0,627,503,195,215,210,
0,617,496,193,213,208,
0,609,491,192,211,206,
0,602,486,190,209,204,
0,595,480,188,207,203,
0,587,475,187,206,201,
0,580,468,185,204,199,
0,573,463,184,203,198,
0,567,507,183,214,196,
0,630,500,181,212,195,
0,622,495,179,211,193,
0,611,488,178,209,192,
0,604,483,176,207,190,
0,595,478,176,206,188,
0,588,472,174,204,188,
0,581,467,172,203,185,
0,574,461,172,199,184,
0,568,455,170,203,184,
0,572,499,169,201,182,
0,630,494,167,199,180,
0,621,487,167,198,186,
0,611,482,164,196,184,
0,604,476,163,195,186,
0,595,472,163,193,184,
0,588,466,161,192,184,
0,582,461,159,191,182,
0,574,455,159,189,180,
0,568,451,158,203,179,
0,638,480,156,201,177,
0,629,475,156,199,176,
0,621,470,199,198,183,
0,611,463,197,196,182,
0,603,459,195,195,203,
0,595,454,193,193,200,
0,588,448,192,191,199,
0,580,444,190,190,197,
0,574,440,189,188,195,
0,568,499,188,204,194,
0,636,492,186,201,192,
0,627,487,184,199,191,
0,619,481,183,198,189,
0,608,476,181,196,188,
0,601,471,179,195,185,
0,593,465,178,193,184,
0,586,460,177,192,183,
0,579,455,175,190,182,
0,572,449,174,188,180,
0,566,444,172,216,179,
0,647,440,172,215,177,
0,638,435,169,213,176,
0,630,431,240,211,175,
0,619,427,237,209,203,
0,611,423,235,207,199,
0,604,418,231,206,199,
0,596,415,230,204,196,
0,589,411,228,203,195,
0,582,406,227,201,193,
0,575,486,224,207,192,
0,647,480,223,206,190,
0,638,473,220,204,206,
0,630,468,219,203,203,
0,620,463,216,201,207,
0,611,457,216,199,206,
0,604,452,213,198,204,
0,596,448,211,196,203,
0,590,444,210,195,200,
0,582,438,208,199,199,
0,608,494,207,201,198,
0,641,487,205,199,195,
0,633,482,204,198,201,
0,625,476,201,195,199,
0,615,472,199,194,203,
0,607,465,199,193,201,
0,600,460,197,192,199,
0,591,455,195,190,198,
0,585,451,194,188,196,
0,577,473,193,195,195,
0,653,524,192,193,193,
0,643,516,190,192,192,
0,635,511,188,190,190,
0,626,504,187,188,188,
0,615,499,185,188,196,
0,608,493,184,186,195,
0,600,487,183,184,193,
0,593,482,181,183,191,
0,586,476,179,182,190,
0,579,563,179,195,188,
0,662,591,177,192,187,
0,652,583,176,191,185,
0,643,575,175,190,195,
0,635,568,173,188,193,
0,624,561,172,186,192,
0,616,555,171,185,190,
0,609,548,169,184,188,
0,601,542,167,182,187,
0,594,536,167,180,185,
0,587,528,166,211,184,
0,631,523,164,209,182,
0,622,516,163,207,183,
0,614,511,162,205,182,
0,604,505,161,204,179,
0,596,499,159,202,178,
0,589,495,158,199,176,
0,582,489,157,199,176,
0,575,484,156,197,174,
0,568,479,155,195,173,
0,562,521,154,206,172,
0,626,514,153,204,170,
0,617,508,153,203,171,
0,609,502,195,200,169,
0,600,496,194,199,214,
0,591,491,192,198,211,
0,584,486,191,196,209,
0,578,480,189,194,207,
0,571,475,187,193,205,
0,564,470,185,192,204,
0,608,476,184,221,201,
0,649,471,183,220,199,
0,639,465,181,217,199,
0,632,460,179,216,196,
0,622,455,179,214,195,
0,614,451,177,212,193,
0,607,447,176,211,192,
0,599,443,175,209,190,
0,591,438,173,207,188,
0,584,434,172,215,187,
0,660,491,171,212,185,
0,651,484,169,211,184,
0,642,480,183,209,183,
0,633,473,180,207,181,
0,624,468,179,206,179,
0,615,463,177,204,178,
0,608,457,176,203,176,
0,600,452,174,201,175,
0,591,448,173,199,174,
0,585,468,172,199,173,
0,651,503,170,199,172,
0,641,496,168,197,170,
0,633,491,168,195,169,
0,624,485,167,193,173,
0,615,480,166,192,191,
0,607,474,164,191,188,
0,600,468,163,190,187,
0,591,463,162,188,185,
0,584,459,160,187,184,
0,578,500,159,191,183,
0,651,494,158,188,181,
0,643,487,157,187,227,
0,633,483,158,185,225,
0,625,477,156,184,223,
0,615,472,155,183,221,
0,608,467,153,182,219,
0,600,461,152,180,216,
0,592,455,152,179,215,
0,585,451,151,177,213,
0,579,496,150,177,211,
0,647,489,148,176,209,
0,639,483,147,175,233,
0,630,478,151,174,231,
0,622,472,157,172,235,
0,612,467,155,171,231,
0,604,462,153,169,230,
0,596,457,152,168,227,
0,590,452,151,167,225,
0,583,448,150,166,224,
0,593,492,148,170,222,
0,619,486,147,167,220,
0,611,480,187,167,257,
0,603,474,184,166,255,
0,595,469,183,164,252,
0,586,463,182,163,249,
0,579,459,179,162,247,
0,572,454,178,161,244,
0,566,449,176,159,243,
0,559,444,175,183,240,
0,639,439,174,180,239,
0,631,433,172,179,236,
0,622,430,171,177,246,
0,614,425,169,176,243,
0,607,422,168,175,242,
0,596,417,167,173,240,
0,590,414,166,172,238,
0,582,410,164,171,236,
0,575,406,163,169,233,
0,568,411,161,192,231,
0,627,430,160,190,230,
0,619,425,159,188,227,
0,611,420,228,185,231,
0,603,415,237,184,241,
0,595,412,235,183,252,
0,585,408,231,182,250,
0,579,403,230,179,247,
0,572,399,228,179,245,
0,564,396,226,177,243,
0,559,457,224,177,241,
0,595,449,223,175,239,
0,587,444,220,174,259,
0,579,440,219,172,255,
0,572,435,217,172,253,
0,565,430,216,169,251,
0,556,425,214,168,248,
0,551,421,211,167,246,
0,543,416,209,166,243,
0,537,412,207,165,242,
0,547,442,207,190,240,
0,627,435,205,188,238,
0,619,431,204,185,271,
0,610,425,201,184,268,
0,603,421,199,183,266,
0,595,416,199,182,263,
0,585,412,196,180,262,
0,578,408,195,179,259,
0,572,403,194,177,255,
0,565,399,192,183,254,
0,611,397,191,199,252,
0,631,391,190,198,249,
0,623,388,188,195,255,
0,614,384,187,194,254,
0,607,381,185,193,252,
0,600,378,184,192,249,
0,590,375,183,190,248,
0,582,371,181,188,245,
0,575,368,179,187,243,
0,568,365,178,185,241,
0,622,455,177,184,239,
0,614,448,176,182,237,
0,605,444,174,181,238,
0,598,439,173,179,236,
0,590,434,172,178,233,
0,583,430,171,176,231,
0,574,424,169,176,230,
0,567,420,167,174,227,
0,560,415,167,173,226,
0,553,444,166,181,224,
0,619,474,164,179,223,
0,610,467,163,177,223,
0,603,462,236,176,236,
0,595,455,233,175,235,
0,587,451,231,173,231,
0,579,447,228,172,231,
0,571,441,226,171,228,
0,564,437,224,169,226,
0,558,432,223,167,224,
0,551,480,221,177,223,
0,635,473,219,176,220,
0,626,467,217,174,236,
0,617,462,216,172,233,
0,610,456,214,171,231,
0,601,451,211,169,230,
0,595,447,210,167,227,
0,585,441,208,167,225,
0,578,437,206,166,223,
0,572,432,205,165,222,
0,575,476,204,184,220,
0,643,470,201,183,217,
0,635,463,199,180,237,
0,626,457,199,179,235,
0,617,453,197,177,233,
0,609,448,195,176,231,
0,602,443,194,175,229,
0,593,438,192,174,227,
0,585,433,191,172,225,
0,579,429,189,175,223,
0,623,492,188,185,221,
0,622,486,187,184,220,
0,613,480,220,182,251,
0,605,473,218,179,248,
0,598,468,216,179,246,
0,590,463,215,177,243,
0,583,457,212,176,241,
0,574,452,211,174,239,
0,568,448,209,173,236,
0,560,443,207,176,235,
0,628,460,205,175,233,
0,620,455,204,173,231,
0,611,448,201,172,251,
0,604,444,199,170,248,
0,595,440,199,169,247,
0,588,434,197,167,244,
0,581,430,195,166,242,
0,572,425,193,164,240,
0,566,422,192,163,237,
0,560,454,191,185,236,
0,630,470,189,184,233,
0,620,463,188,182,251,
0,612,457,187,179,265,
0,605,452,185,178,263,
0,597,448,184,177,260,
0,590,443,183,176,259,
0,583,438,181,174,255,
0,574,433,179,173,253,
0,567,428,178,172,252,
0,560,483,177,176,249,
0,627,477,175,175,248,
0,617,472,174,174,244,
0,610,465,236,172,243,
0,601,460,231,171,241,
0,594,455,230,169,239,
0,587,449,228,167,237,
0,578,444,227,167,236,
0,571,440,224,166,233,
0,564,435,222,164,231,
0,575,494,220,187,230,
0,633,487,218,185,227,
0,625,481,216,184,251,
0,616,475,215,182,248,
0,608,470,216,180,246,
0,601,464,214,179,243,
0,593,460,212,177,241,
0,584,455,211,176,239,
0,577,449,208,175,237,
0,571,444,207,183,235,
0,652,440,205,190,232,
0,647,436,204,188,231,
0,639,432,203,187,229,
0,632,426,200,185,227,
0,623,422,199,184,225,
0,615,417,198,182,224,
0,607,414,196,180,222,
0,598,409,195,179,220,
0,591,406,192,177,219,
0,583,401,192,184,217,
0,631,441,190,182,216,
0,622,436,188,180,214,
0,614,432,187,179,214,
0,606,426,185,176,212,
0,599,422,184,175,231,
0,591,417,183,174,230,
0,583,412,182,172,228,
0,575,408,180,171,226,
0,568,404,179,170,224,
0,562,463,177,185,222,
0,644,486,176,184,220,
0,635,480,175,182,217,
0,627,475,190,181,216,
0,619,467,188,179,216,
0,611,462,187,177,215,
0,603,457,185,176,212,
0,595,452,184,175,211,
0,585,448,182,173,209,
0,579,443,179,172,207,
0,572,478,179,184,206,
0,646,472,177,182,204,
0,636,467,176,179,203,
0,628,460,175,179,201,
0,620,455,173,176,207,
0,611,450,172,175,204,
0,604,445,171,174,203,
0,596,440,169,172,201,
0,588,435,167,171,199,
0,580,432,167,170,198,
0,596,448,166,183,196,
0,639,441,164,182,195,
0,631,438,163,179,212,
0,622,431,162,179,210,
0,614,427,161,177,208,
0,606,423,159,175,207,
0,599,418,159,174,205,
0,591,414,158,172,203,
0,582,409,156,171,201,
0,575,406,155,181,199,
0,643,479,153,194,198,
0,635,472,152,192,196,
0,626,467,155,191,207,
0,617,460,153,190,206,
0,611,455,152,187,231,
0,602,451,151,185,229,
0,595,446,150,184,227,
0,588,440,149,183,225,
0,579,436,147,182,223,
0,572,433,147,196,220,
0,641,475,145,194,219,
0,632,469,144,192,216,
0,624,463,177,191,223,
0,615,457,175,190,221,
0,608,452,174,188,222,
0,600,448,172,186,220,
0,593,443,171,184,217,
0,585,438,169,184,216,
0,577,433,167,182,215,
0,570,429,167,195,212,
0,638,424,164,193,210,
0,628,419,163,192,209,
0,620,415,162,190,207,
0,611,411,160,189,209,
0,604,407,159,187,207,
0,596,403,158,185,205,
0,589,399,157,184,204,
0,582,395,156,183,201,
0,574,391,155,181,199,
0,567,461,153,198,198,
0,633,455,152,195,196,
0,624,449,151,194,196,
0,616,444,150,192,195,
0,608,439,148,191,226,
0,600,433,147,189,224,
0,593,429,147,187,221,
0,585,423,145,185,220,
0,579,420,144,184,217,
0,569,415,143,183,216,
0,606,449,142,198,214,
0,647,444,141,195,211,
0,639,439,188,194,210,
0,631,433,187,193,208,
0,622,428,185,191,207,
0,614,423,184,189,205,
0,607,419,182,188,203,
0,599,415,180,186,201,
0,591,410,179,184,199,
0,583,406,177,187,199,
0,635,407,176,186,196,
0,625,402,174,184,195,
0,617,398,173,183,193,
0,609,395,172,182,192,
0,602,390,171,179,203,
0,595,386,168,179,200,
0,587,383,167,177,199,
0,579,379,167,176,198,
0,573,376,165,175,195,
0,564,377,163,184,194,
0,633,423,162,182,192,
0,625,419,161,180,191,
0,616,414,159,179,195,
0,608,409,159,177,193,
0,601,404,157,176,194,
0,593,399,156,175,192,
0,585,396,155,173,191,
0,579,391,153,172,189,
0,572,387,152,170,188,
0,564,471,152,188,187,
0,657,522,150,186,184,
0,647,515,148,184,216,
0,639,509,148,184,214,
0,632,504,147,182,212,
0,623,496,147,179,210,
0,615,491,145,178,208,
0,608,485,144,177,207,
0,600,480,143,176,205,
0,592,475,142,174,203,
0,583,542,141,177,201,
0,654,534,140,176,199,
0,645,527,139,174,199,
0,636,521,138,172,197,
0,628,515,137,172,247,
0,620,508,135,169,243,
0,611,502,135,167,241,
0,604,496,134,167,239,
0,596,491,133,166,237,
0,590,485,132,172,236,
0,600,480,131,207,232,
0,627,475,131,205,231,
0,618,470,135,204,228,
0,610,464,135,201,227,
0,603,460,133,199,225,
0,595,454,132,198,223,
0,588,449,131,196,221,
0,580,444,130,195,220,
0,573,440,129,193,217,
0,567,435,127,194,216,
0,635,432,127,193,214,
0,625,427,126,192,212,
0,617,423,161,190,211,
0,609,419,159,189,209,
0,601,415,158,188,207,
0,593,411,156,185,206,
0,587,406,155,184,204,
0,579,403,153,183,203,
0,572,399,152,182,201,
0,566,455,152,194,199,
0,652,515,150,192,198,
0,643,508,148,191,195,
0,636,502,190,189,195,
0,627,496,188,188,193,
0,619,491,186,185,192,
0,611,483,184,184,191,
0,603,478,183,183,189,
0,595,473,181,182,188,
0,588,467,179,179,187,
0,582,504,178,200,185,
0,637,496,176,199,184,
0,628,491,175,197,182,
0,620,484,176,195,181,
0,612,480,174,193,215,
0,604,474,172,192,211,
0,596,467,172,190,209,
0,590,462,170,189,207,
0,582,457,168,188,206,
0,575,452,167,185,204,
0,568,455,167,201,203,
0,616,450,164,199,199,
0,608,446,163,198,199,
0,600,440,162,196,197,
0,593,436,161,195,220,
0,585,432,159,193,217,
0,579,427,159,191,216,
0,572,423,157,190,214,
0,564,418,156,188,212,
0,558,414,155,188,210,
0,610,534,154,191,208,
0,639,527,152,190,206,
0,631,519,153,188,204,
0,622,513,152,187,203,
0,614,508,151,185,201,
0,606,502,150,184,199,
0,599,495,148,182,198,
0,591,489,147,180,196,
0,583,483,146,179,195,
0,577,556,145,195,193,
0,667,745,144,193,192,
0,656,733,143,192,190,
0,647,723,222,191,222,
0,639,711,219,188,220,
0,631,702,216,188,217,
0,623,691,215,185,216,
0,615,679,212,184,214,
0,608,671,211,183,211,
0,600,662,209,181,210,
0,592,654,207,195,208,
0,623,646,206,193,207,
0,615,637,204,191,206,
0,607,630,201,190,215,
0,599,622,199,188,214,
0,591,614,199,187,211,
0,583,607,197,185,209,
0,577,598,195,184,207,
0,569,591,194,182,206,
0,563,583,192,180,204,
0,558,577,191,206,203,
0,618,571,190,204,201,
0,609,564,188,203,224,
0,601,558,186,200,222,
0,593,551,185,199,220,
0,587,546,184,198,219,
0,579,540,182,195,216,
0,572,532,180,194,215,
0,566,527,179,192,212,
0,559,521,178,191,211,
0,552,516,176,199,209,
0,632,511,175,199,207,
0,624,505,174,197,206,
0,615,500,172,195,204,
0,608,496,171,193,203,
0,600,491,169,192,200,
0,592,484,168,191,199,
0,585,480,167,188,198,
0,579,476,166,187,196,
0,572,471,165,195,195,
0,564,466,163,205,193,
0,569,462,162,204,192,
0,562,457,161,201,206,
0,556,453,159,199,204,
0,550,449,159,199,202,
0,543,444,158,196,199,
0,537,440,156,195,199,
0,531,435,155,193,198,
0,526,432,154,192,195,
0,519,428,153,216,194,
0,568,423,152,215,192,
0,598,419,151,213,191,
0,590,415,150,211,204,
0,583,412,149,209,201,
0,575,409,147,207,199,
0,568,406,147,206,199,
0,561,401,146,204,196,
0,555,398,144,202,195,
0,548,394,143,201,193,
0,542,458,143,205,192,
0,632,498,142,203,190,
0,620,492,141,201,188,
0,612,486,231,199,231,
0,604,480,228,198,228,
0,597,475,225,196,227,
0,590,470,224,195,224,
0,583,463,222,193,222,
0,575,458,220,192,220,
0,568,453,218,190,219,
0,562,571,216,196,217,
0,630,585,215,195,215,
0,619,578,212,193,214,
0,611,571,211,192,211,
0,603,563,209,190,210,
0,595,557,207,189,208,
0,588,550,206,188,207,
0,581,542,204,185,205,
0,574,536,203,184,204,
0,568,529,200,183,201,
0,560,566,199,200,199,
0,629,559,198,199,199,
0,618,551,195,198,199,
0,610,544,194,195,198,
0,602,538,193,194,198,
0,595,531,192,192,196,
0,587,526,190,191,195,
0,580,518,188,190,193,
0,573,512,187,188,192,
0,567,507,185,194,190,
0,560,520,184,203,188,
0,594,513,183,201,187,
0,585,508,181,199,214,
0,577,502,179,198,211,
0,571,496,179,196,209,
0,563,491,177,195,207,
0,557,487,176,193,206,
0,551,480,175,192,204,
0,543,475,173,190,203,
0,538,517,172,198,201,
0,611,687,171,195,199,
0,649,675,169,194,198,
0,639,667,243,193,259,
0,630,657,246,192,255,
0,622,648,243,190,252,
0,614,639,241,188,250,
0,606,632,239,187,248,
0,599,622,237,184,246,
0,591,614,235,184,243,
0,583,647,233,191,241,
0,590,637,231,190,240,
0,583,628,230,188,238,
0,574,620,227,186,262,
0,567,612,225,184,259,
0,560,604,224,184,255,
0,553,597,222,182,254,
0,547,590,220,180,252,
0,541,581,218,179,249,
0,536,574,216,177,248,
0,529,580,215,196,245,
0,615,577,213,195,243,
0,607,570,211,193,241,
0,596,563,209,192,239,
0,589,557,207,190,236,
0,582,551,206,188,235,
0,574,543,204,187,233,
0,568,539,203,185,231,
0,560,531,201,184,229,
0,554,526,199,183,227,
0,548,519,199,199,225,
0,551,514,197,198,224,
0,545,509,195,195,222,
0,537,504,227,194,220,
0,531,499,224,193,224,
0,526,493,223,192,223,
0,519,487,220,190,220,
0,515,483,219,188,219,
0,509,478,216,186,217,
0,504,473,216,199,216,
0,508,468,214,200,214,
0,573,463,211,199,211,
0,566,459,210,198,222,
0,557,455,207,195,219,
0,550,451,206,194,217,
0,543,446,204,192,215,
0,537,442,203,191,214,
0,531,438,201,190,211,
0,524,432,199,188,209,
0,519,440,198,199,208,
0,560,480,196,199,207,
0,566,475,195,196,205,
0,559,470,193,195,204,
0,550,463,192,193,201,
0,543,459,206,192,199,
0,537,454,204,191,199,
0,531,448,202,189,197,
0,524,444,200,188,195,
0,519,439,199,185,194,
0,513,434,198,203,193,
0,565,595,195,200,192,
0,556,587,194,199,190,
0,551,579,216,198,215,
0,541,572,214,195,212,
0,536,564,211,194,211,
0,529,558,209,193,208,
0,523,551,207,191,207,
0,518,686,207,190,205,
0,511,731,204,188,204,
0,505,720,203,204,201,
0,615,710,201,203,199,
0,606,700,199,201,199,
0,599,690,211,199,199,
0,588,680,207,198,199,
0,582,671,206,195,199,
0,574,663,204,195,197,
0,568,654,203,193,195,
0,560,646,201,192,194,
0,553,636,199,190,192,
0,547,628,198,204,191,
0,595,620,196,201,189,
0,587,612,195,199,195,
0,579,605,193,199,193,
0,571,598,192,196,210,
0,563,591,190,195,208,
0,556,583,188,193,207,
0,550,577,188,192,205,
0,543,574,186,191,203,
0,537,731,184,199,201,
0,554,720,184,200,199,
0,608,709,182,199,198,
0,600,700,251,197,265,
0,590,689,350,195,263,
0,583,679,344,193,284,
0,575,671,340,192,281,
0,568,662,337,191,278,
0,562,654,334,189,275,
0,555,646,331,188,273,
0,548,719,328,207,271,
0,622,801,326,205,268,
0,624,788,323,204,266,
0,615,776,319,201,263,
0,606,764,317,199,262,
0,598,753,313,199,259,
0,591,742,312,197,257,
0,583,732,309,195,255,
0,575,721,306,193,253,
0,569,711,304,192,251,
0,563,700,302,201,248,
0,556,690,299,199,247,
0,551,681,296,198,244,
0,543,671,295,196,243,
0,536,664,292,195,241,
0,531,655,289,193,239,
0,524,647,287,192,236,
0,519,639,285,190,235,
0,513,632,283,188,233,
0,508,624,280,187,231,
0,503,615,279,204,230,
0,626,607,276,202,227,
0,617,600,274,199,226,
0,609,593,271,199,225,
0,600,587,270,197,223,
0,592,579,344,195,221,
0,585,573,341,194,219,
0,578,568,338,192,217,
0,571,561,335,191,216,
0,564,555,332,190,214,
0,558,547,329,220,212,
0,590,541,326,217,211,
0,583,536,323,216,209,
0,575,529,321,214,207,
0,567,524,319,212,235,
0,560,519,315,211,231,
0,553,513,312,209,230,
0,547,508,310,207,227,
0,540,504,307,206,225,
0,535,520,304,204,224,
0,563,622,302,202,222,
0,620,612,300,200,220,
0,612,604,297,199,219,
0,604,597,295,198,217,
0,595,589,292,196,216,
0,587,582,289,195,214,
0,579,575,287,193,211,
0,572,568,286,192,210,
0,566,560,284,190,208,
0,560,552,281,195,207,
0,556,546,279,194,205,
0,548,540,276,192,204,
0,542,534,275,191,202,
0,536,527,273,190,200,
0,528,521,271,188,199,
0,523,515,268,187,198,
0,517,510,265,185,195,
0,512,504,263,184,195,
0,507,563,263,183,193,
0,502,743,260,212,192,
0,580,744,258,209,190,
0,572,733,255,207,193,
0,565,723,255,206,231,
0,558,711,253,204,230,
0,550,702,311,203,227,
0,543,692,307,201,225,
0,536,683,304,199,224,
0,531,673,301,198,222,
0,524,664,299,196,220,
0,519,655,295,212,217,
0,632,646,294,210,216,
0,624,638,291,207,239,
0,615,630,288,206,236,
0,608,622,286,204,234,
0,598,615,283,203,231,
0,591,607,280,201,230,
0,583,600,279,199,227,
0,575,592,276,198,225,
0,569,585,274,196,224,
0,563,768,271,205,222,
0,664,755,270,203,220,
0,655,743,268,201,219,
0,647,732,265,199,216,
0,638,721,263,198,230,
0,627,711,261,196,227,
0,620,702,259,195,225,
0,611,691,257,193,223,
0,604,683,255,192,221,
0,597,813,253,191,219,
0,590,796,251,201,217,
0,583,783,249,199,216,
0,575,771,248,198,214,
0,569,760,246,196,212,
0,563,749,243,195,211,
0,555,738,242,193,209,
0,549,728,240,192,207,
0,543,718,239,190,205,
0,536,707,237,189,204,
0,531,698,235,195,202,
0,531,688,233,196,200,
0,524,679,231,195,199,
0,519,670,231,193,198,
0,513,661,228,192,195,
0,508,652,280,190,214,
0,501,644,275,188,211,
0,496,636,273,187,209,
0,491,628,271,185,207,
0,486,621,268,184,206,
0,481,701,266,216,204,
0,615,899,263,214,203,
0,606,902,262,211,200,
0,598,882,259,209,199,
0,591,867,257,208,206,
0,583,852,255,206,240,
0,574,839,252,205,239,
0,568,825,250,203,236,
0,561,813,248,201,233,
0,553,800,246,199,231,
0,547,788,244,204,230,
0,620,775,243,201,227,
0,611,764,241,199,226,
0,604,752,239,198,224,
0,595,742,237,196,223,
0,588,732,235,195,221,
0,579,722,232,193,219,
0,572,712,231,192,216,
0,566,752,230,191,215,
0,559,740,227,190,214,
0,574,729,227,192,211,
0,664,831,224,191,209,
0,654,818,224,189,233,
0,646,804,222,188,231,
0,636,897,255,187,229,
0,628,907,317,184,227,
0,619,903,312,184,224,
0,611,882,310,182,223,
0,604,903,307,180,221,
0,596,910,304,180,219,
0,589,911,302,204,217,
0,582,885,299,201,216,
0,575,870,304,199,214,
0,568,856,301,198,211,
0,562,842,298,196,214,
0,556,829,295,195,211,
0,547,896,292,193,209,
0,542,905,290,192,207,
0,536,891,287,191,206,
0,530,873,286,217,204,
0,663,860,284,216,203,
0,652,841,281,213,201,
0,643,828,281,211,204,
0,635,816,280,209,203,
0,627,803,358,207,222,
0,619,792,353,206,220,
0,608,780,348,204,217,
0,601,768,344,203,216,
0,594,758,342,201,214,
0,587,748,339,211,212,
0,700,737,335,209,210,
0,689,725,332,207,223,
0,679,716,376,206,239,
0,671,706,371,204,237,
0,662,697,368,203,235,
0,654,688,364,200,232,
0,643,679,359,199,230,
0,635,671,356,198,228,
0,627,663,353,196,227,
0,620,818,350,208,224,
0,623,816,347,207,223,
0,615,799,344,204,221,
0,607,787,342,203,219,
0,600,775,338,201,217,
0,592,763,335,199,216,
0,585,752,333,198,214,
0,577,741,329,196,211,
0,571,731,327,195,210,
0,564,759,324,193,208,
0,633,899,321,203,207,
0,731,902,319,201,205,
0,719,879,350,199,216,
0,709,864,384,198,214,
0,700,850,380,195,227,
0,690,835,376,194,225,
0,681,823,373,193,223,
0,670,810,369,192,221,
0,662,854,366,190,219,
0,652,903,362,191,217,
0,644,903,359,201,216,
0,637,882,355,199,214,
0,630,863,353,198,216,
0,622,849,350,196,214,
0,615,835,347,195,253,
0,607,823,344,193,251,
0,598,809,341,192,248,
0,591,797,337,190,246,
0,583,785,335,188,243,
0,577,775,332,203,241,
0,572,764,329,204,239,
0,565,752,327,202,237,
0,559,739,376,199,236,
0,552,729,371,199,235,
0,547,719,368,197,233,
0,541,867,364,195,231,
0,534,859,361,194,229,
0,527,844,356,192,227,
0,522,831,354,191,225,
0,516,818,351,199,223,
0,511,805,348,196,221,
0,506,792,344,195,220,
0,502,778,342,193,218,
0,496,767,339,192,233,
0,491,755,335,190,253,
0,487,745,334,188,251,
0,480,735,331,187,248,
0,476,724,327,185,246,
0,472,814,324,184,243,
0,467,801,322,215,241,
0,538,788,319,212,239,
0,531,775,317,211,237,
0,525,762,387,208,236,
0,519,750,390,207,236,
0,513,739,385,205,233,
0,507,728,382,204,231,
0,499,719,378,201,230,
0,494,709,374,199,227,
0,489,700,371,199,225,
0,494,691,367,198,224,
0,543,681,364,196,222,
0,537,673,360,195,220,
0,531,663,358,193,219,
0,524,655,355,192,217,
0,518,647,352,190,216,
0,512,639,348,188,214,
0,504,632,345,187,212,
0,499,628,342,185,210,
0,494,623,339,187,208,
0,489,615,335,192,207,
0,483,608,334,190,205,
0,479,600,331,189,204,
0,473,593,327,187,203,
0,468,587,326,185,233,
0,463,579,323,184,231,
0,460,623,319,183,229,
0,454,783,318,181,227,
0,450,770,315,179,224,
0,446,759,312,188,223,
0,586,896,310,186,221,
0,604,881,307,184,219,
0,595,862,305,184,217,
0,588,847,303,182,216,
0,580,834,300,180,216,
0,573,821,299,179,214,
0,566,899,295,177,212,
0,558,899,294,176,211,
0,551,879,291,175,208,
0,545,898,288,192,207,
0,591,908,287,191,205,
0,583,911,284,189,204,
0,575,905,283,188,201,
0,569,881,280,185,204,
0,562,865,279,184,209,
0,556,852,276,183,207,
0,548,838,275,182,206,
0,540,883,272,179,204,
0,535,904,270,178,201,
0,560,903,268,205,199,
0,708,881,281,204,199,
0,698,866,332,201,198,
0,688,847,327,199,196,
0,679,835,326,198,207,
0,670,822,322,196,205,
0,661,809,319,195,204,
0,652,796,316,193,201,
0,642,897,312,192,199,
0,634,907,311,190,198,
0,627,903,307,195,196,
0,654,880,305,193,195,
0,644,865,303,192,224,
0,636,847,300,190,221,
0,627,834,297,188,219,
0,620,821,295,187,217,
0,612,808,293,185,216,
0,606,863,291,184,214,
0,596,901,287,183,211,
0,590,909,286,185,209,
0,583,913,284,188,207,
0,575,915,281,187,206,
0,569,904,279,185,204,
0,563,876,277,184,203,
0,557,862,295,182,200,
0,551,847,292,180,199,
0,544,834,290,179,198,
0,539,821,287,177,196,
0,531,888,284,176,195,
0,526,906,282,186,193,
0,590,911,280,184,191,
0,582,915,277,183,190,
0,575,918,275,182,214,
0,568,913,273,180,211,
0,560,886,271,178,222,
0,553,870,268,176,220,
0,547,856,267,176,218,
0,541,843,264,174,216,
0,533,830,263,173,215,
0,527,817,261,188,212,
0,604,805,259,187,210,
0,595,793,257,185,227,
0,588,782,255,184,225,
0,580,768,254,182,224,
0,573,757,252,180,221,
0,566,747,250,179,220,
0,559,736,248,177,217,
0,552,727,247,176,216,
0,544,717,244,175,214,
0,539,765,243,181,211,
0,622,880,241,179,209,
0,614,903,240,178,208,
0,606,901,238,176,207,
0,598,876,236,175,210,
0,591,862,235,173,208,
0,583,847,233,172,206,
0,575,834,231,171,205,
0,569,821,230,169,203,
0,560,808,227,167,201,
0,555,796,227,182,199,
0,547,784,225,179,198,
0,542,773,224,178,211,
0,536,762,222,177,209,
0,529,749,220,175,222,
0,524,738,219,174,220,
0,518,728,217,172,217,
0,512,719,216,171,216,
0,507,708,215,169,214,
0,500,699,212,193,211,
0,593,690,211,199,209,
0,588,681,210,199,207,
0,579,673,208,196,206,
0,572,664,207,195,204,
0,566,655,206,193,216,
0,559,647,204,192,215,
0,551,639,203,190,212,
0,545,632,201,188,211,
0,539,780,200,187,209,
0,531,877,199,199,207,
0,532,898,198,197,205,
0,526,879,196,195,204,
0,519,864,195,193,201,
0,514,850,193,192,199,
0,508,831,197,190,230,
0,503,819,195,188,227,
0,497,807,194,187,225,
0,492,794,192,185,224,
0,487,783,192,184,222,
0,482,896,190,190,219,
0,583,905,188,188,217,
0,575,899,187,187,216,
0,568,878,186,185,214,
0,561,863,184,184,212,
0,555,846,184,183,211,
0,548,831,182,180,209,
0,542,819,181,179,207,
0,536,807,179,178,206,
0,529,794,179,177,204,
0,522,895,177,195,202,
0,524,905,176,194,199,
0,518,899,175,192,199,
0,512,878,241,191,198,
0,506,863,239,189,196,
0,500,846,236,188,195,
0,496,855,234,186,193,
0,490,840,231,184,192,
0,485,827,231,183,190,
0,480,814,228,182,189,
0,475,802,226,188,187,
0,472,790,224,186,185,
0,467,778,222,184,188,
0,462,768,220,183,186,
0,457,756,297,182,203,
0,454,743,295,179,201,
0,449,733,291,178,199,
0,445,723,289,177,198,
0,441,713,287,176,195,
0,437,704,284,186,194,
0,556,839,280,185,192,
0,610,824,279,184,191,
0,602,809,276,183,220,
0,594,796,273,182,218,
0,587,784,271,180,252,
0,579,769,269,178,248,
0,572,758,267,177,247,
0,565,747,265,176,244,
0,559,736,263,174,242,
0,551,761,262,193,240,
0,549,843,259,192,238,
0,542,828,255,190,236,
0,536,815,337,188,233,
0,530,801,333,187,231,
0,524,790,329,185,230,
0,519,775,327,183,227,
0,513,763,324,182,226,
0,508,752,321,180,224,
0,502,741,318,179,223,
0,496,864,316,190,220,
0,582,847,312,188,219,
0,574,833,310,187,216,
0,567,820,307,184,215,
0,560,807,304,184,214,
0,553,795,302,182,211,
0,546,780,300,180,210,
0,540,828,297,179,207,
0,534,877,295,177,207,
0,527,861,292,176,205,
0,520,847,290,184,204,
0,578,833,287,183,201,
0,571,820,285,181,201,
0,563,807,283,179,199,
0,556,795,280,178,244,
0,550,783,278,176,242,
0,543,768,275,175,240,
0,537,758,274,174,238,
0,531,782,271,172,236,
0,524,871,270,178,234,
0,591,856,268,208,231,
0,646,841,265,207,230,
0,637,828,263,205,227,
0,628,815,262,203,225,
0,620,801,259,201,224,
0,612,790,257,199,222,
0,604,775,255,198,220,
0,598,764,254,196,218,
0,590,752,252,195,216,
0,583,742,250,195,215,
0,575,891,248,194,212,
0,568,907,246,192,211,
0,561,910,244,191,209,
0,555,896,242,189,207,
0,549,876,240,188,217,
0,543,858,239,186,216,
0,536,844,237,184,214,
0,531,831,236,184,211,
0,524,817,233,182,209,
0,519,871,231,195,208,
0,639,872,231,194,207,
0,630,857,228,192,213,
0,621,843,227,191,225,
0,612,829,225,189,224,
0,605,816,224,188,223,
0,598,799,223,186,220,
0,590,788,220,184,219,
0,583,776,219,183,217,
0,575,766,217,182,215,
0,569,755,216,200,214,
0,667,743,215,199,211,
0,657,734,243,197,270,
0,648,724,284,195,282,
0,639,714,281,193,280,
0,632,704,279,192,276,
0,624,694,275,191,274,
0,615,684,273,189,271,
0,608,675,271,187,270,
0,600,667,269,185,267,
0,593,659,267,193,264,
0,584,651,263,191,263,
0,577,643,262,190,260,
0,572,636,259,188,257,
0,564,627,257,187,255,
0,558,620,255,185,254,
0,551,611,254,184,252,
0,545,604,252,182,249,
0,540,598,249,180,248,
0,534,684,248,184,246,
0,555,838,246,201,243,
0,671,823,243,199,241,
0,662,809,241,198,239,
0,652,796,240,196,238,
0,644,783,238,195,235,
0,636,772,236,193,233,
0,627,758,233,192,231,
0,620,747,231,190,230,
0,612,736,231,188,228,
0,604,726,228,201,227,
0,679,723,227,201,224,
0,719,712,288,199,223,
0,708,703,284,198,221,
0,699,694,281,196,219,
0,689,684,280,195,217,
0,679,675,276,193,216,
0,671,664,274,192,215,
0,662,655,271,190,212,
0,654,833,270,188,211,
0,646,836,268,195,209,
0,659,822,265,193,207,
0,647,809,263,192,207,
0,639,796,260,191,205,
0,631,783,258,189,203,
0,624,772,255,188,201,
0,615,761,254,185,199,
0,608,747,252,184,199,
0,601,736,250,183,197,
0,595,801,248,182,196,
0,588,902,247,211,195,
0,796,909,244,209,193,
0,779,912,242,207,192,
0,768,910,240,206,192,
0,755,887,238,204,199,
0,745,871,236,202,196,
0,734,856,235,199,195,
0,724,839,232,199,193,
0,715,827,231,197,192,
0,705,814,230,195,190,
0,696,802,227,204,189,
0,688,790,226,202,188,
0,676,778,224,200,186,
0,668,768,222,199,184,
0,659,756,220,197,187,
0,652,745,219,195,185,
0,643,736,217,194,184,
0,636,723,216,192,183,
0,628,713,214,191,180,
0,621,704,212,191,179,
0,643,891,211,197,178,
0,785,881,210,195,177,
0,770,866,207,194,227,
0,758,851,207,192,224,
0,747,837,205,191,222,
0,736,824,204,189,220,
0,727,811,203,188,218,
0,717,860,201,185,216,
0,707,850,199,184,215,
0,697,835,198,199,212,
0,689,822,196,199,211,
0,679,809,195,197,209,
0,670,796,194,195,216,
0,661,784,291,193,213,
0,653,773,287,192,211,
0,645,761,285,190,209,
0,638,751,282,189,207,
0,630,737,280,187,206,
0,623,728,278,185,204,
0,615,829,275,198,203,
0,608,899,273,196,201,
0,601,883,271,195,199,
0,592,868,268,193,227,
0,586,854,265,192,225,
0,579,839,263,190,223,
0,573,826,262,188,221,
0,567,813,259,187,219,
0,560,798,257,185,217,
0,555,786,255,184,216,
0,549,775,253,201,214,
0,543,763,251,199,211,
0,537,752,249,198,227,
0,530,742,358,196,251,
0,524,732,353,195,248,
0,519,721,350,193,246,
0,514,711,347,192,243,
0,509,702,344,190,241,
0,504,691,340,188,240,
0,499,682,337,187,238,
0,494,673,335,194,236,
0,593,665,332,192,233,
0,585,656,327,191,231,
0,575,649,325,189,230,
0,569,641,323,188,227,
0,562,633,319,186,225,
0,555,625,317,185,224,
0,548,619,314,184,222,
0,542,609,312,182,220,
0,536,603,310,195,219,
0,530,729,307,203,217,
0,550,887,304,201,215,
0,543,870,302,199,214,
0,535,855,299,198,211,
0,527,840,296,196,209,
0,522,827,295,195,207,
0,516,896,292,193,206,
0,511,896,290,192,204,
0,505,873,287,190,204,
0,499,859,286,198,201,
0,532,845,284,196,199,
0,563,831,281,195,199,
0,555,818,280,193,197,
0,547,806,276,192,195,
0,540,793,275,190,194,
0,534,782,272,188,192,
0,527,770,271,187,191,
0,521,760,268,186,190,
0,515,745,267,184,188,
0,510,736,264,188,187,
0,569,726,263,185,185,
0,561,716,260,184,184,
0,552,706,259,183,200,
0,545,696,255,182,210,
0,540,688,255,180,208,
0,533,679,252,179,207,
0,527,670,251,177,205,
0,520,662,249,176,203,
0,515,652,248,174,201,
0,509,643,246,206,199,
0,556,636,244,204,198,
0,549,833,242,201,214,
0,540,819,240,199,248,
0,534,806,238,199,246,
0,527,792,236,197,243,
0,521,780,235,195,241,
0,515,769,233,193,239,
0,510,758,231,192,237,
0,504,888,230,191,235,
0,499,871,228,206,232,
0,630,856,227,204,231,
0,620,841,225,203,229,
0,610,828,224,200,227,
0,603,878,279,199,259,
0,595,862,275,198,255,
0,588,847,273,195,254,
0,580,833,271,194,252,
0,574,820,268,193,249,
0,567,874,265,192,247,
0,577,905,263,195,244,
0,625,909,262,193,243,
0,617,899,259,192,240,
0,608,877,283,191,239,
0,600,863,280,189,236,
0,591,848,276,188,235,
0,585,835,274,186,231,
0,577,822,271,184,231,
0,571,809,270,184,228,
0,564,894,268,196,227,
0,639,907,265,195,225,
0,636,905,263,192,224,
0,628,884,260,191,222,
0,618,868,259,190,220,
0,610,855,255,188,238,
0,603,840,254,187,236,
0,595,899,252,185,233,
0,588,908,250,184,231,
0,580,909,248,182,230,
0,574,888,246,190,227,
0,577,871,244,188,225,
0,570,856,248,187,224,
0,563,843,327,185,223,
0,555,830,323,184,221,
0,548,817,319,182,222,
0,543,804,316,180,220,
0,536,792,313,179,217,
0,531,781,311,178,216,
0,525,768,307,176,214,
0,519,756,305,200,213,
0,513,745,303,199,211,
0,508,735,300,198,209,
0,504,725,398,195,207,
0,496,716,391,194,207,
0,492,706,387,192,205,
0,487,696,384,191,204,
0,481,688,380,190,201,
0,478,679,376,188,199,
0,472,668,372,187,199,
0,468,660,369,190,198,
0,560,715,367,188,195,
0,551,809,363,187,197,
0,545,796,359,185,195,
0,536,783,356,184,212,
0,531,771,353,183,209,
0,524,760,350,181,207,
0,519,748,347,179,206,
0,512,737,344,178,204,
0,507,780,342,177,203,
0,501,898,339,188,201,
0,499,896,335,186,199,
0,495,877,398,184,204,
0,488,862,393,183,203,
0,483,847,388,182,238,
0,478,833,384,180,235,
0,472,820,380,179,232,
0,467,807,377,177,231,
0,463,897,374,176,228,
0,459,910,371,182,227,
0,527,913,368,184,224,
0,542,909,364,183,223,
0,536,884,361,181,248,
0,528,868,358,179,245,
0,521,856,384,178,243,
0,515,841,380,177,240,
0,509,828,376,176,239,
0,504,888,374,174,236,
0,498,906,369,173,234,
0,492,912,367,188,231,
0,512,914,363,185,231,
0,505,904,359,184,228,
0,499,880,357,182,227,
0,494,864,353,180,224,
0,487,851,350,179,235,
0,482,838,347,177,231,
0,477,824,344,176,230,
0,472,812,342,175,228,
0,467,799,338,174,227,
0,463,785,335,184,224,
0,592,774,333,182,223,
0,583,763,330,180,222,
0,576,752,327,179,221,
0,569,742,325,177,249,
0,560,732,322,176,247,
0,553,721,319,175,243,
0,547,711,317,174,241,
0,540,702,315,172,239,
0,535,804,312,171,237,
0,528,788,310,176,235,
0,609,775,307,175,233,
0,600,764,305,174,231,
0,593,752,303,172,229,
0,585,741,306,171,227,
0,575,730,319,169,225,
0,569,719,318,167,223,
0,563,710,315,167,221,
0,556,700,312,166,220,
0,549,691,309,164,217,
0,600,803,306,177,216,
0,599,791,304,176,214,
0,591,778,302,175,216,
0,583,766,299,173,214,
0,575,755,296,172,246,
0,568,743,294,171,243,
0,560,732,291,169,240,
0,553,722,289,167,238,
0,547,711,287,167,236,
0,541,711,286,190,235,
0,647,699,284,190,231,
0,673,689,281,188,231,
0,664,680,366,187,229,
0,655,671,454,185,227,
0,647,664,448,184,228,
0,636,655,443,182,226,
0,627,647,438,180,224,
0,620,639,433,179,223,
0,612,632,430,178,220,
0,604,624,425,181,219,
0,598,615,421,179,216,
0,591,608,417,177,216,
0,583,601,414,176,214,
0,576,594,409,175,211,
0,570,588,406,173,217,
0,561,580,401,172,216,
0,556,574,398,171,214,
0,549,568,395,169,211,
0,543,562,391,167,210,
0,537,711,387,177,208,
0,617,720,384,176,207,
0,609,710,381,174,205,
0,601,700,378,172,204,
0,593,689,375,171,201,
0,586,679,371,169,199,
0,577,671,368,168,199,
0,571,662,364,167,197,
0,563,652,361,166,195,
0,556,644,359,164,194,
0,551,636,356,184,192,
0,600,626,353,182,191,
0,591,618,351,180,190,
0,584,610,348,179,188,
0,577,603,350,177,223,
0,570,595,352,176,220,
0,561,588,348,174,217,
0,555,582,344,173,216,
0,548,575,342,172,214,
0,542,568,339,171,212,
0,536,561,336,172,210,
0,532,553,334,171,209,
0,527,548,332,169,208,
0,521,542,328,167,207,
0,515,536,327,167,207,
0,510,531,323,166,205,
0,504,526,321,164,203,
0,499,520,318,163,201,
0,494,569,316,162,199,
0,488,560,313,174,198,
0,568,553,312,175,196,
0,560,649,309,173,195,
0,553,743,307,172,193,
0,546,731,304,170,192,
0,540,719,302,168,199,
0,534,709,300,167,196,
0,526,699,297,166,194,
0,519,689,295,165,192,
0,513,679,294,163,191,
0,508,671,291,185,190,
0,568,841,289,184,188,
0,560,843,287,182,187,
0,553,829,285,180,185,
0,547,815,283,179,184,
0,540,803,281,177,184,
0,531,790,279,176,182,
0,526,778,276,174,180,
0,519,767,275,173,179,
0,514,755,272,172,177,
0,508,744,271,192,177,
0,554,734,269,191,175,
0,547,721,267,188,174,
0,540,711,265,187,172,
0,534,702,263,185,220,
0,527,692,262,184,216,
0,519,684,259,183,214,
0,514,675,257,181,211,
0,508,805,255,179,210,
0,503,902,254,178,207,
0,574,910,252,195,206,
0,700,911,251,193,204,
0,689,889,249,192,228,
0,679,871,248,190,226,
0,670,858,246,188,265,
0,661,844,243,187,262,
0,651,831,242,185,259,
0,642,817,240,184,255,
0,634,806,239,183,254,
0,627,793,237,182,252,
0,633,782,236,195,249,
0,639,768,234,193,248,
0,632,756,231,192,246,
0,624,747,231,190,243,
0,615,736,230,188,255,
0,608,726,228,187,254,
0,600,716,227,185,251,
0,591,707,224,184,248,
0,585,697,224,183,246,
0,579,688,222,189,244,
0,573,679,220,188,242,
0,566,752,219,187,240,
0,560,737,217,185,238,
0,553,726,216,184,236,
0,547,716,215,182,240,
0,542,705,214,180,238,
0,534,696,212,179,236,
0,527,686,210,177,233,
0,523,676,209,176,231,
0,517,668,207,183,230,
0,624,659,206,182,227,
0,615,649,205,179,226,
0,608,641,204,177,233,
0,600,634,203,177,235,
0,592,627,201,175,236,
0,585,620,199,174,233,
0,575,611,199,172,231,
0,569,605,197,172,228,
0,563,598,195,169,227,
0,556,591,195,185,225,
0,596,584,193,184,223,
0,588,577,244,182,261,
0,580,570,252,180,258,
0,573,564,249,179,255,
0,566,558,248,177,253,
0,560,551,245,176,251,
0,551,625,243,175,249,
0,545,617,240,173,246,
0,539,608,238,172,244,
0,533,600,236,195,242,
0,527,592,234,192,240,
0,521,583,231,191,238,
0,515,575,231,189,236,
0,510,569,228,188,252,
0,504,562,227,186,249,
0,499,556,225,184,248,
0,493,550,223,183,246,
0,487,543,221,182,243,
0,483,537,220,188,240,
0,556,553,217,195,239,
0,567,545,216,193,236,
0,559,537,214,192,236,
0,552,531,212,190,235,
0,545,526,211,188,250,
0,539,519,209,187,248,
0,532,515,207,184,246,
0,525,510,206,184,243,
0,519,504,204,182,240,
0,513,499,203,183,239,
0,507,495,201,181,236,
0,502,489,199,179,235,
0,496,483,305,178,232,
0,491,480,302,176,231,
0,486,475,299,175,248,
0,481,470,295,174,246,
0,476,465,294,172,243,
0,470,462,290,171,241,
0,465,457,287,169,239,
0,462,543,286,193,237,
0,583,568,283,192,235,
0,575,561,280,190,233,
0,568,552,279,188,238,
0,560,545,276,187,236,
0,553,539,273,185,235,
0,546,532,271,184,231,
0,540,526,269,182,231,
0,532,519,267,180,228,
0,526,514,264,179,226,
0,519,508,263,196,224,
0,619,503,260,195,223,
0,610,497,259,193,268,
0,603,490,255,192,263,
0,595,485,255,190,265,
0,588,480,252,188,263,
0,579,475,251,186,261,
0,573,470,248,184,259,
0,564,465,247,184,255,
0,558,664,244,182,254,
0,685,763,243,205,251,
0,750,750,241,203,249,
0,739,739,239,201,248,
0,728,726,237,199,245,
0,718,715,236,198,243,
0,708,704,233,196,241,
0,699,695,231,195,239,
0,689,685,231,193,237,
0,679,676,228,192,235,
0,670,667,227,192,233,
0,707,778,225,194,231,
0,710,855,223,192,229,
0,700,840,316,191,227,
0,690,823,312,189,225,
0,680,809,308,188,236,
0,671,798,305,186,233,
0,664,785,303,184,231,
0,655,774,300,184,230,
0,644,762,297,182,227,
0,636,752,295,191,225,
0,629,740,292,191,224,
0,622,729,289,189,222,
0,615,719,287,188,220,
0,607,707,285,185,218,
0,600,699,357,184,247,
0,593,689,353,183,244,
0,587,679,350,181,241,
0,579,671,346,179,240,
0,572,663,342,179,237,
0,566,655,339,182,236,
0,591,647,335,179,233,
0,583,639,332,178,231,
0,576,631,354,177,230,
0,569,621,350,176,258,
0,563,614,347,174,261,
0,556,607,344,172,259,
0,550,600,340,172,255,
0,543,593,338,170,254,
0,536,586,334,169,251,
0,531,579,332,184,249,
0,526,572,327,182,247,
0,519,567,326,180,245,
0,515,560,323,179,243,
0,510,552,319,177,241,
0,504,547,318,176,239,
0,499,540,315,174,237,
0,494,536,312,172,235,
0,489,529,310,172,233,
0,483,524,307,170,231,
0,479,519,304,195,228,
0,511,513,302,193,227,
0,505,508,300,192,227,
0,499,503,297,191,225,
0,494,497,295,188,236,
0,487,492,292,187,233,
0,483,568,291,185,231,
0,478,563,287,184,230,
0,472,556,286,183,227,
0,467,549,284,198,225,
0,565,543,281,204,223,
0,593,536,279,203,221,
0,585,529,276,201,263,
0,577,523,275,199,262,
0,570,515,272,198,259,
0,563,509,271,195,257,
0,556,515,268,194,255,
0,550,508,267,192,252,
0,543,503,264,191,249,
0,536,614,263,199,248,
0,676,639,260,198,245,
0,666,631,259,196,243,
0,657,622,263,194,241,
0,647,614,262,193,239,
0,639,604,259,191,268,
0,632,596,257,189,266,
0,624,588,255,188,263,
0,615,582,254,186,262,
0,608,574,252,184,259,
0,600,807,249,193,255,
0,709,811,248,192,254,
0,699,798,246,190,252,
0,689,784,243,188,250,
0,679,772,242,187,250,
0,671,759,240,185,248,
0,662,748,239,184,246,
0,653,736,237,183,243,
0,645,726,235,181,241,
0,635,716,233,179,240,
0,627,706,231,195,238,
0,620,696,230,194,236,
0,612,687,228,192,238,
0,605,678,227,191,236,
0,598,669,246,189,233,
0,591,659,271,188,231,
0,583,651,269,185,230,
0,577,642,267,184,228,
0,571,634,264,183,226,
0,563,627,262,182,224,
0,649,619,259,193,222,
0,742,611,257,192,220,
0,730,604,255,190,224,
0,719,597,253,188,222,
0,710,590,251,187,220,
0,700,582,248,184,218,
0,690,575,247,184,216,
0,681,568,245,182,215,
0,672,563,243,180,213,
0,663,711,241,181,211,
0,780,891,239,179,209,
0,779,874,236,178,207,
0,768,860,235,177,263,
0,756,844,233,176,262,
0,745,831,231,174,259,
0,735,815,230,172,255,
0,724,801,227,172,254,
0,715,790,226,170,252,
0,705,778,224,168,249,
0,694,768,223,195,248,
0,685,755,221,193,245,
0,676,745,219,191,243,
0,668,735,217,190,243,
0,659,724,216,188,240,
0,652,715,216,187,239,
0,643,703,214,184,236,
0,636,694,212,183,235,
0,628,684,211,182,233,
0,621,675,209,180,231,
0,612,668,207,196,229,
0,605,659,206,194,227,
0,598,651,204,192,225,
0,591,643,207,191,224,
0,585,635,208,189,222,
0,578,625,259,188,220,
0,572,618,257,185,218,
0,566,611,255,184,216,
0,560,799,252,183,215,
0,553,854,250,182,214,
0,546,839,248,195,211,
0,548,824,246,194,209,
0,542,812,243,192,211,
0,536,799,241,191,210,
0,531,787,240,189,208,
0,525,772,238,188,207,
0,519,761,236,185,205,
0,514,750,233,184,204,
0,509,739,231,183,201,
0,504,728,230,182,200,
0,557,719,228,207,199,
0,611,708,226,206,197,
0,603,700,224,204,196,
0,595,690,222,201,195,
0,588,681,220,199,199,
0,580,670,219,199,198,
0,573,662,217,197,196,
0,567,654,216,195,195,
0,560,646,214,193,193,
0,552,638,212,195,192,
0,624,630,211,195,190,
0,615,622,209,193,188,
0,607,615,207,192,251,
0,599,608,206,191,248,
0,591,600,204,188,246,
0,583,591,203,188,243,
0,577,585,201,185,241,
0,569,579,199,184,239,
0,563,572,199,183,237,
0,556,566,198,199,235,
0,548,560,195,198,233,
0,542,553,195,195,231,
0,536,547,193,194,230,
0,530,542,192,192,228,
0,524,536,204,191,227,
0,519,529,203,190,225,
0,513,524,200,188,224,
0,508,608,199,185,222,
0,502,624,198,184,220,
0,497,615,195,192,219,
0,608,607,193,191,216,
0,599,599,192,189,215,
0,591,591,252,188,212,
0,583,583,249,186,226,
0,576,575,248,184,224,
0,569,568,245,183,222,
0,563,561,243,181,220,
0,556,555,241,179,217,
0,550,547,239,178,216,
0,543,542,237,207,214,
0,551,536,234,205,212,
0,545,529,231,204,211,
0,539,523,231,201,210,
0,532,518,264,199,209,
0,527,512,316,199,207,
0,520,505,313,196,206,
0,515,500,310,195,204,
0,510,496,307,193,203,
0,504,678,304,196,201,
0,572,691,302,207,199,
0,679,681,298,206,198,
0,669,671,295,204,230,
0,659,662,294,203,227,
0,651,653,291,201,225,
0,643,644,288,199,224,
0,635,633,286,198,222,
0,627,625,284,196,220,
0,619,617,281,195,218,
0,611,609,280,207,216,
0,604,669,277,206,215,
0,654,714,274,204,212,
0,646,704,323,203,243,
0,636,694,329,200,240,
0,628,684,327,199,238,
0,620,674,323,198,236,
0,612,663,319,195,233,
0,605,654,318,193,231,
0,598,667,315,192,230,
0,591,657,312,214,228,
0,732,647,310,211,226,
0,729,639,306,209,224,
0,719,632,304,207,224,
0,709,624,301,206,222,
0,700,615,299,204,220,
0,690,608,295,203,219,
0,680,599,294,199,216,
0,671,591,291,199,215,
0,664,583,289,198,214,
0,655,577,287,209,211,
0,647,571,284,207,210,
0,638,564,366,206,248,
0,630,558,360,204,253,
0,622,551,358,203,273,
0,615,545,354,201,270,
0,608,646,351,199,268,
0,600,633,348,198,265,
0,593,625,344,196,263,
0,586,616,341,195,260,
0,579,608,339,204,258,
0,609,601,335,203,255,
0,599,593,335,201,284,
0,591,585,355,199,281,
0,583,579,352,198,279,
0,577,572,348,196,275,
0,570,564,345,195,273,
0,563,556,342,193,271,
0,558,550,339,192,268,
0,551,543,335,195,267,
0,583,537,334,216,263,
0,683,531,330,214,262,
0,671,526,327,212,259,
0,662,519,324,211,257,
0,653,515,376,209,255,
0,644,509,371,207,253,
0,636,504,367,205,251,
0,628,665,364,203,249,
0,620,655,359,201,247,
0,612,646,356,216,244,
0,606,637,353,215,243,
0,598,628,350,213,241,
0,589,620,398,211,241,
0,582,612,406,209,239,
0,575,604,400,207,236,
0,568,596,396,206,235,
0,562,590,393,204,233,
0,556,580,390,203,231,
0,550,573,385,201,230,
0,543,568,383,211,227,
0,555,560,379,210,226,
0,547,553,376,207,224,
0,540,547,371,206,230,
0,534,540,368,204,227,
0,527,535,365,203,226,
0,523,528,361,201,224,
0,517,523,359,199,222,
0,512,515,355,198,220,
0,506,510,353,196,219,
0,502,646,350,216,217,
0,609,701,347,214,216,
0,600,691,344,211,214,
0,591,680,340,210,215,
0,583,671,337,208,236,
0,575,662,335,207,234,
0,568,652,332,205,231,
0,561,644,329,204,231,
0,555,633,327,201,228,
0,548,625,324,199,226,
0,542,617,322,220,224,
0,616,610,319,217,223,
0,606,603,317,216,247,
0,599,595,313,214,243,
0,591,588,312,212,241,
0,583,580,309,211,240,
0,575,574,307,209,237,
0,569,568,304,207,235,
0,563,700,302,206,233,
0,556,688,300,212,231,
0,606,679,297,225,230,
0,695,668,295,223,227,
0,682,659,294,221,227,
0,672,650,291,219,224,
0,664,641,288,217,222,
0,655,633,287,216,220,
0,647,625,284,214,219,
0,639,617,282,211,216,
0,631,608,280,210,216,
0,623,600,278,219,214,
0,615,592,276,216,211,
0,608,585,274,215,210,
0,600,579,335,213,252,
0,591,572,370,211,249,
0,584,564,367,209,247,
0,578,559,363,207,244,
0,572,551,359,206,242,
0,566,545,356,204,240,
0,559,538,353,203,238,
0,552,570,351,230,236,
0,704,705,347,227,234,
0,705,695,344,225,231,
0,692,685,341,223,270,
0,683,675,337,221,265,
0,673,665,335,220,263,
0,665,656,332,217,261,
0,655,647,329,216,259,
0,647,639,326,215,255,
0,639,628,323,211,254,
0,632,620,321,220,252,
0,624,613,318,218,250,
0,616,605,316,216,248,
0,608,598,313,215,299,
0,600,591,310,213,295,
0,593,583,307,211,292,
0,586,576,305,209,290,
0,579,569,303,207,287,
0,573,792,300,206,284,
0,567,844,298,204,282,
0,560,830,295,217,280,
0,664,816,294,215,277,
0,654,803,291,213,275,
0,643,790,289,211,272,
0,635,778,286,209,270,
0,627,768,284,207,268,
0,619,755,282,206,265,
0,611,743,280,204,263,
0,604,788,278,203,261,
0,596,775,275,209,259,
0,589,764,273,214,257,
0,646,752,271,211,255,
0,637,741,270,209,253,
0,626,731,268,207,251,
0,619,719,265,206,248,
0,611,711,263,204,247,
0,603,700,262,203,244,
0,595,691,259,201,243,
0,588,679,258,199,240,
0,582,671,255,200,239,
0,575,663,255,199,237,
0,568,655,252,198,235,
0,562,647,252,195,233,
0,554,638,251,194,231,
0,548,631,248,193,257,
0,542,623,247,192,255,
0,536,615,245,190,252,
0,530,608,243,188,250,
0,524,600,241,188,248,
0,519,592,240,198,246,
0,639,585,239,195,243,
0,628,579,236,194,241,
0,620,572,243,192,280,
0,610,566,241,191,276,
0,603,560,239,189,273,
0,595,553,237,188,271,
0,588,547,236,187,268,
0,580,542,233,185,267,
0,574,633,231,184,263,
0,567,775,231,207,262,
0,738,761,229,204,259,
0,726,750,227,203,257,
0,716,739,226,201,257,
0,704,728,224,199,255,
0,694,717,223,198,252,
0,684,707,221,196,249,
0,675,697,220,195,248,
0,667,688,218,193,246,
0,659,676,216,192,244,
0,651,867,216,206,241,
0,643,857,214,204,240,
0,635,842,212,203,238,
0,627,828,211,200,236,
0,617,815,209,199,234,
0,610,803,207,198,231,
0,603,790,207,196,231,
0,595,779,205,195,228,
0,589,768,204,193,227,
0,583,753,203,192,225,
0,664,743,201,210,224,
0,770,732,199,208,222,
0,758,723,216,207,231,
0,747,711,281,205,228,
0,734,703,278,204,227,
0,723,693,275,201,224,
0,713,684,272,199,222,
0,704,675,270,199,220,
0,695,667,268,197,219,
0,686,655,265,199,217,
0,677,647,263,199,216,
0,668,639,262,197,214,
0,660,632,259,195,233,
0,652,624,257,194,231,
0,642,617,254,192,228,
0,634,609,252,191,226,
0,627,603,250,189,224,
0,619,595,248,188,222,
0,612,589,246,187,220,
0,605,727,244,200,219,
0,750,788,242,199,216,
0,737,775,271,197,215,
0,728,764,269,195,259,
0,716,752,266,193,257,
0,704,741,263,192,254,
0,695,730,260,191,252,
0,686,719,259,189,249,
0,676,710,256,188,248,
0,668,700,255,186,245,
0,659,716,252,209,243,
0,743,893,251,207,241,
0,732,878,353,206,255,
0,721,863,348,204,268,
0,711,847,344,203,265,
0,699,834,340,201,263,
0,690,821,337,199,259,
0,680,807,334,198,257,
0,671,796,331,196,255,
0,664,783,327,195,253,
0,655,865,326,207,251,
0,696,889,323,206,249,
0,686,872,323,204,249,
0,676,857,321,203,247,
0,667,844,318,200,244,
0,656,830,315,199,243,
0,647,816,312,198,240,
0,639,804,310,196,239,
0,632,792,307,195,236,
0,624,780,304,193,235,
0,617,766,302,207,232,
0,610,755,300,206,231,
0,603,744,297,204,231,
0,595,734,310,203,228,
0,589,724,306,201,227,
0,580,713,303,199,224,
0,575,704,300,198,223,
0,568,696,297,196,221,
0,562,687,295,195,219,
0,556,678,293,199,217,
0,646,667,291,201,216,
0,638,659,287,199,214,
0,629,651,286,198,220,
0,620,643,284,196,217,
0,612,635,281,195,216,
0,603,627,279,193,214,
0,595,620,277,192,211,
0,588,612,275,190,210,
0,582,605,272,188,208,
0,574,598,271,196,207,
0,648,590,268,194,205,
0,639,583,267,192,204,
0,632,576,334,191,244,
0,623,570,346,190,243,
0,615,563,343,188,240,
0,605,558,339,187,238,
0,598,551,335,185,236,
0,591,546,332,184,233,
0,583,540,329,183,231,
0,577,646,327,216,230,
0,675,788,323,214,227,
0,665,775,321,211,225,
0,655,764,318,209,224,
0,647,752,316,207,238,
0,639,740,313,207,236,
0,628,729,310,205,233,
0,620,719,307,203,231,
0,613,710,304,201,229,
0,606,700,302,199,227,
0,599,691,300,212,225,
0,606,679,297,210,224,
0,598,670,295,208,260,
0,591,662,391,207,257,
0,583,652,386,205,255,
0,575,644,382,204,252,
0,568,636,377,201,250,
0,562,628,374,199,248,
0,556,620,370,199,246,
0,550,613,367,197,243,
0,556,606,364,203,241,
0,593,596,359,200,240,
0,585,590,357,199,238,
0,578,583,354,198,236,
0,571,576,351,195,233,
0,562,569,348,195,231,
0,555,563,344,193,230,
0,548,557,342,192,227,
0,543,551,338,190,225,
0,536,544,335,202,224,
0,545,539,333,207,222,
0,539,531,329,206,220,
0,532,526,384,204,219,
0,526,520,379,203,217,
0,520,515,376,200,216,
0,514,510,371,199,214,
0,509,504,367,198,211,
0,504,499,364,195,209,
0,499,495,359,194,207,
0,494,490,358,203,207,
0,563,486,354,200,205,
0,556,480,351,199,204,
0,549,475,372,197,205,
0,543,470,368,195,204,
0,536,465,400,193,201,
0,527,462,396,192,199,
0,521,457,391,191,199,
0,516,453,387,190,197,
0,510,615,384,188,195,
0,504,606,380,211,195,
0,618,598,376,209,193,
0,609,588,374,207,192,
0,601,580,370,205,190,
0,593,573,367,204,198,
0,587,566,364,201,196,
0,577,559,359,199,195,
0,571,552,356,199,192,
0,563,545,353,197,191,
0,557,540,351,195,190,
0,551,534,348,205,188,
0,619,771,345,203,187,
0,611,758,342,201,185,
0,603,747,339,199,184,
0,595,736,336,198,206,
0,588,724,334,196,204,
0,579,714,331,194,201,
0,571,704,327,193,199,
0,564,874,325,192,198,
0,558,871,323,193,196,
0,625,856,319,220,195,
0,698,838,317,219,193,
0,688,824,315,216,192,
0,679,812,312,215,190,
0,670,799,310,212,212,
0,660,787,307,211,210,
0,649,775,305,209,208,
0,641,764,303,207,206,
0,633,753,300,206,204,
0,625,743,297,224,203,
0,633,732,295,221,200,
0,624,719,294,220,199,
0,616,710,291,217,213,
0,609,700,289,216,211,
0,601,691,348,214,209,
0,595,681,344,211,207,
0,585,673,340,210,206,
0,579,664,337,208,204,
0,572,656,334,207,201,
0,566,648,331,220,199,
0,572,639,327,217,199,
0,564,631,325,216,197,
0,558,623,322,214,195,
0,551,615,319,211,204,
0,545,608,316,210,212,
0,539,601,314,207,211,
0,532,595,311,207,208,
0,527,588,308,204,206,
0,520,581,305,203,204,
0,515,663,304,206,203,
0,560,749,301,204,200,
0,553,735,299,203,233,
0,546,723,295,199,230,
0,540,712,294,199,227,
0,534,703,291,198,225,
0,527,692,289,196,224,
0,519,692,287,195,222,
0,513,839,284,193,220,
0,508,825,283,192,217,
0,503,812,280,207,216,
0,609,799,278,204,214,
0,601,783,276,203,215,
0,593,771,274,200,212,
0,585,760,271,199,212,
0,578,749,270,198,211,
0,572,739,268,196,209,
0,563,728,265,195,207,
0,556,718,263,193,205,
0,550,708,262,195,204,
0,588,699,260,216,202,
0,633,689,259,214,199,
0,625,679,257,211,249,
0,617,669,255,209,246,
0,609,660,253,207,243,
0,601,652,251,206,241,
0,593,644,249,204,240,
0,584,636,248,203,238,
0,577,628,246,201,236,
0,571,775,244,207,233,
0,614,900,242,207,231,
0,606,908,240,205,229,
0,598,908,239,203,237,
0,590,884,238,201,235,
0,583,870,236,199,233,
0,575,855,234,198,231,
0,568,841,232,196,229,
0,560,828,231,195,227,
0,553,815,229,193,224,
0,547,803,227,204,223,
0,691,792,226,201,221,
0,681,780,224,199,220,
0,671,766,223,198,235,
0,663,755,222,196,232,
0,654,743,220,195,231,
0,646,734,219,193,229,
0,637,723,216,192,227,
0,627,713,216,190,225,
0,619,704,214,188,223,
0,611,696,212,205,220,
0,639,687,211,203,219,
0,632,678,209,201,217,
0,624,667,240,199,216,
0,615,659,238,198,214,
0,608,651,236,196,212,
0,600,643,233,195,211,
0,593,786,231,193,209,
0,583,888,230,192,207,
0,577,871,227,190,206,
0,571,856,226,206,204,
0,565,901,224,204,203,
0,559,909,222,203,242,
0,551,914,220,199,240,
0,546,917,219,199,238,
0,540,918,216,197,236,
0,534,908,216,195,233,
0,528,880,214,193,231,
0,521,866,211,192,228,
0,515,851,210,191,227,
0,598,902,208,194,225,
0,641,909,207,192,223,
0,632,914,206,191,280,
0,624,916,204,189,277,
0,615,912,203,188,275,
0,608,886,201,186,271,
0,600,871,199,184,270,
0,593,856,199,184,267,
0,583,843,197,182,263,
0,577,830,196,206,262,
0,700,817,194,204,259,
0,688,804,193,203,257,
0,679,793,192,201,257,
0,670,779,191,199,255,
0,662,768,286,198,253,
0,652,756,283,195,251,
0,643,747,280,194,248,
0,636,736,277,193,247,
0,626,727,274,192,244,
0,619,717,271,207,242,
0,706,721,270,206,240,
0,696,711,268,204,238,
0,686,701,265,203,244,
0,676,689,263,200,243,
0,668,680,260,199,240,
0,659,671,259,198,238,
0,651,664,255,195,236,
0,643,655,255,194,235,
0,632,647,252,193,231,
0,624,799,250,216,231,
0,739,785,248,215,228,
0,728,774,246,212,227,
0,717,761,244,211,225,
0,707,747,242,208,224,
0,697,736,240,207,222,
0,688,726,238,205,220,
0,679,715,236,204,219,
0,670,705,235,201,216,
0,659,696,232,199,215,
0,652,687,231,207,213,
0,643,676,230,206,211,
0,636,668,227,204,270,
0,627,659,226,202,267,
0,620,649,224,200,263,
0,612,641,223,199,262,
0,606,633,221,198,259,
0,599,625,219,195,257,
0,590,618,217,194,255,
0,583,611,216,198,252,
0,628,790,214,204,249,
0,622,775,212,203,248,
0,614,764,230,201,247,
0,606,752,227,199,244,
0,598,738,225,197,242,
0,591,728,224,195,240,
0,583,797,222,194,239,
0,575,783,220,192,236,
0,568,771,218,191,235,
0,562,760,216,206,231,
0,588,748,214,204,231,
0,580,737,212,201,228,
0,574,727,211,199,236,
0,567,716,210,199,234,
0,560,704,208,196,231,
0,553,694,207,195,230,
0,547,684,205,193,228,
0,541,675,204,192,226,
0,534,667,202,191,224,
0,528,658,200,208,223,
0,607,731,199,207,220,
0,598,719,198,204,220,
0,590,708,196,203,219,
0,583,699,220,201,248,
0,575,686,267,199,244,
0,568,676,263,198,242,
0,562,668,262,196,240,
0,556,870,259,195,238,
0,547,904,257,193,236,
0,541,910,255,206,233,
0,535,903,252,204,231,
0,528,880,251,201,230,
0,523,865,310,199,227,
0,518,851,307,199,226,
0,512,834,304,196,224,
0,507,821,301,195,222,
0,502,808,299,193,220,
0,496,796,295,192,219,
0,491,784,293,191,217,
0,551,897,290,202,215,
0,612,908,287,200,213,
0,605,911,285,199,220,
0,597,907,283,197,217,
0,590,879,280,195,216,
0,582,864,279,193,215,
0,575,849,275,192,212,
0,568,836,273,191,211,
0,561,895,271,189,209,
0,553,904,269,199,207,
0,590,889,267,204,206,
0,583,871,264,203,204,
0,575,857,265,201,204,
0,568,844,263,199,203,
0,561,827,262,198,201,
0,555,814,259,195,199,
0,547,801,257,194,199,
0,542,790,255,193,196,
0,536,778,254,191,195,
0,527,768,252,213,194,
0,583,756,249,211,192,
0,575,745,248,209,191,
0,568,736,263,207,216,
0,561,726,260,206,214,
0,554,713,257,204,237,
0,547,704,255,202,235,
0,540,695,254,199,231,
0,535,686,252,199,231,
0,527,724,249,197,228,
0,521,788,248,207,227,
0,526,775,244,205,224,
0,519,763,243,204,222,
0,513,752,241,201,220,
0,508,740,239,199,225,
0,503,728,238,199,223,
0,497,716,236,196,221,
0,492,707,233,195,219,
0,487,696,231,193,217,
0,483,688,231,192,216,
0,476,678,228,193,214,
0,562,670,227,192,211,
0,555,661,225,190,220,
0,548,653,224,189,217,
0,542,645,222,188,240,
0,535,635,220,185,238,
0,528,627,219,184,236,
0,523,620,217,183,233,
0,516,613,216,181,231,
0,511,606,214,180,230,
0,539,752,212,201,227,
0,592,747,211,199,225,
0,584,736,245,198,224,
0,577,724,262,196,222,
0,571,713,259,195,220,
0,563,701,257,192,218,
0,556,691,255,191,216,
0,550,681,253,190,215,
0,543,671,251,188,212,
0,537,664,248,193,211,
0,529,655,246,192,209,
0,524,646,243,191,207,
0,518,638,243,190,211,
0,512,630,240,188,208,
0,507,622,238,187,207,
0,501,612,236,184,205,
0,496,605,235,183,204,
0,491,598,232,182,201,
0,486,591,231,180,199,
0,480,584,229,203,199,
0,604,578,227,201,198,
0,595,572,225,199,195,
0,588,566,239,198,199,
0,580,560,263,195,198,
0,573,553,260,195,206,
0,566,546,259,192,204,
0,559,540,255,191,203,
0,552,571,254,190,200,
0,546,604,252,188,199,
0,540,596,249,206,198,
0,532,588,247,204,195,
0,526,580,245,202,221,
0,519,574,243,199,221,
0,514,566,241,199,220,
0,508,559,239,197,217,
0,504,551,237,195,216,
0,497,543,235,193,214,
0,492,537,233,192,211,
0,487,531,231,190,210,
0,483,575,230,198,208,
0,587,734,227,196,207,
0,579,722,225,195,211,
0,572,711,224,193,209,
0,564,701,255,192,207,
0,558,691,295,190,206,
0,551,679,292,188,204,
0,544,670,289,186,203,
0,538,660,287,185,200,
0,531,652,284,184,199,
0,526,643,281,193,198,
0,568,635,279,192,195,
0,561,627,276,190,236,
0,555,619,274,188,232,
0,547,611,324,187,231,
0,541,604,319,185,228,
0,535,595,317,184,227,
0,528,588,314,182,225,
0,523,580,312,180,223,
0,516,574,308,188,221,
0,536,568,305,189,219,
0,560,560,302,188,216,
0,553,555,300,186,262,
0,546,548,297,185,259,
0,540,542,295,184,255,
0,532,536,292,182,254,
0,527,528,290,180,252,
0,520,524,287,179,249,
0,515,518,285,177,248,
0,509,513,284,209,245,
0,621,508,281,207,243,
0,632,503,278,205,240,
0,624,497,275,204,244,
0,615,492,273,201,242,
0,608,487,271,199,240,
0,600,483,269,199,238,
0,592,478,267,196,236,
0,585,472,265,195,234,
0,578,468,263,193,231,
0,572,464,261,200,230,
0,564,460,259,199,228,
0,556,455,257,198,226,
0,550,451,311,195,224,
0,543,448,307,194,223,
0,537,444,305,192,220,
0,531,439,302,191,219,
0,526,434,300,189,217,
0,519,431,297,188,216,
0,514,427,295,187,214,
0,509,484,291,188,212,
0,588,479,289,187,211,
0,578,472,287,185,286,
0,571,467,284,184,282,
0,564,462,281,182,280,
0,557,456,280,181,277,
0,551,534,278,179,275,
0,543,524,275,177,271,
0,537,518,273,176,270,
0,531,630,271,183,268,
0,538,761,268,213,265,
0,639,748,266,211,263,
0,627,737,263,209,260,
0,620,727,262,207,257,
0,611,716,268,206,255,
0,604,705,265,204,254,
0,596,696,263,203,252,
0,589,684,260,199,249,
0,582,675,259,199,248,
0,575,760,256,207,246,
0,679,809,255,207,243,
0,718,796,253,205,241,
0,707,783,251,203,239,
0,697,772,248,201,237,
0,688,760,299,199,240,
0,679,749,295,199,238,
0,670,738,292,196,236,
0,662,725,290,195,233,
0,653,896,287,193,231,
0,644,908,285,210,230,
0,712,905,283,207,228,
0,699,883,280,206,227,
0,689,867,278,204,248,
0,679,854,286,203,247,
0,671,839,364,201,244,
0,662,827,359,199,242,
0,654,814,357,198,240,
0,645,798,353,196,238,
0,637,787,350,195,236,
0,630,894,348,204,233,
0,689,907,344,202,231,
0,676,910,341,199,230,
0,668,899,337,199,227,
0,659,878,334,197,226,
0,650,863,332,195,224,
0,641,849,328,194,223,
0,633,835,326,192,221,
0,625,819,323,190,219,
0,618,806,320,189,217,
0,611,891,318,196,216,
0,604,873,316,194,214,
0,595,858,312,193,214,
0,588,844,310,191,211,
0,581,830,307,190,210,
0,575,817,304,188,209,
0,568,804,303,187,207,
0,562,793,300,185,205,
0,556,778,297,184,204,
0,550,768,295,188,203,
0,543,757,293,204,201,
0,588,745,291,201,199,
0,577,736,289,199,216,
0,571,726,286,198,214,
0,563,716,284,196,212,
0,557,706,281,195,211,
0,550,697,280,193,208,
0,543,686,278,192,207,
0,537,677,275,190,205,
0,531,668,273,203,204,
0,600,776,271,201,201,
0,632,764,269,199,199,
0,621,752,268,198,199,
0,613,740,264,195,196,
0,605,802,263,195,220,
0,598,788,261,193,217,
0,590,776,259,192,216,
0,583,761,257,190,214,
0,575,750,255,188,211,
0,569,739,254,195,210,
0,620,728,252,193,207,
0,611,718,250,191,207,
0,601,707,248,190,251,
0,593,698,246,188,248,
0,585,688,244,187,246,
0,579,679,243,185,243,
0,572,671,241,184,241,
0,565,660,239,183,239,
0,559,652,238,180,237,
0,551,644,236,203,235,
0,587,636,235,201,232,
0,579,628,233,199,231,
0,569,621,231,198,247,
0,562,614,230,196,243,
0,556,607,227,195,241,
0,549,600,226,193,240,
0,543,593,224,192,237,
0,536,584,223,190,236,
0,531,577,222,188,233,
0,525,572,220,211,231,
0,539,566,219,209,230,
0,532,560,217,207,243,
0,524,553,312,206,241,
0,519,547,310,204,238,
0,513,542,307,202,236,
0,508,758,304,199,234,
0,503,744,300,199,231,
0,497,731,298,198,230,
0,492,719,295,204,228,
0,519,710,293,215,226,
0,599,700,291,212,224,
0,590,689,287,211,223,
0,581,679,285,209,221,
0,574,671,283,207,219,
0,567,662,280,206,217,
0,560,654,279,204,216,
0,553,644,276,203,214,
0,547,635,274,200,211,
0,540,627,271,210,210,
0,599,619,270,208,208,
0,617,611,268,206,207,
0,609,604,265,204,207,
0,600,596,268,203,206,
0,591,590,339,201,204,
0,583,583,335,199,202,
0,577,575,332,199,200,
0,570,569,329,196,199,
0,563,561,327,195,198,
0,557,556,323,216,196,
0,641,548,321,215,195,
0,632,543,318,212,193,
0,623,536,316,211,192,
0,612,531,312,209,191,
0,604,526,310,207,194,
0,598,595,307,206,192,
0,590,613,304,204,191,
0,583,604,302,203,189,
0,575,723,300,199,188,
0,569,814,297,216,187,
0,632,799,295,213,185,
0,624,787,292,211,187,
0,615,775,289,209,204,
0,606,763,287,207,205,
0,599,752,284,206,204,
0,591,740,282,204,202,
0,583,729,280,203,199,
0,576,719,278,200,199,
0,569,707,275,199,196,
0,563,698,274,205,195,
0,611,688,271,204,194,
0,603,679,270,201,199,
0,595,671,268,199,198,
0,585,662,265,199,196,
0,578,654,263,197,195,
0,572,646,261,195,193,
0,564,637,259,193,192,
0,558,630,257,192,190,
0,551,711,255,206,188,
0,595,896,254,207,187,
0,699,904,275,206,185,
0,688,888,297,204,192,
0,679,871,295,203,191,
0,668,857,291,201,227,
0,659,843,289,199,225,
0,650,829,287,198,223,
0,641,816,284,196,221,
0,633,803,281,195,220,
0,626,852,280,236,217,
0,691,838,277,234,216,
0,711,824,275,231,214,
0,702,811,272,230,246,
0,692,798,270,227,243,
0,679,786,268,226,260,
0,671,775,266,224,259,
0,662,763,263,223,255,
0,654,752,262,220,254,
0,646,742,259,219,251,
0,638,812,257,218,249,
0,796,881,255,216,247,
0,783,865,254,215,244,
0,771,851,252,212,243,
0,760,836,249,211,241,
0,745,824,248,209,239,
0,735,810,246,207,236,
0,725,798,243,206,235,
0,715,785,242,204,231,
0,705,775,240,204,231,
0,696,883,239,204,229,
0,781,875,237,201,227,
0,768,860,235,199,225,
0,758,846,233,199,224,
0,746,831,231,198,222,
0,733,819,259,195,220,
0,723,806,255,194,217,
0,713,793,254,193,216,
0,704,782,252,192,215,
0,695,770,249,190,213,
0,686,868,248,199,211,
0,729,852,246,199,209,
0,718,839,243,196,207,
0,708,825,241,195,207,
0,699,812,240,193,205,
0,687,799,237,192,203,
0,678,787,235,191,201,
0,669,775,233,189,199,
0,661,764,231,188,199,
0,653,753,230,187,197,
0,649,740,228,218,195,
0,657,730,227,216,194,
0,648,720,225,215,193,
0,639,711,224,212,192,
0,632,701,222,211,190,
0,624,692,220,209,188,
0,615,683,219,207,187,
0,609,674,216,206,185,
0,602,665,216,204,184,
0,595,657,214,204,183,
0,595,647,212,204,182,
0,587,639,211,201,180,
0,580,632,209,199,179,
0,574,624,207,198,178,
0,567,617,259,197,194,
0,560,609,255,195,192,
0,554,603,252,193,191,
0,548,595,251,192,189,
0,543,589,248,191,188,
0,536,583,247,207,186,
0,595,575,244,206,184,
0,586,568,242,204,183,
0,579,562,299,202,200,
0,572,556,295,199,199,
0,563,550,292,199,197,
0,556,543,289,198,195,
0,550,538,287,195,193,
0,543,532,284,194,192,
0,536,620,281,192,190,
0,531,682,280,211,188,
0,652,670,276,208,187,
0,642,660,275,207,196,
0,633,651,272,205,195,
0,625,642,270,204,195,
0,615,633,268,201,193,
0,608,625,265,199,192,
0,600,617,263,199,190,
0,592,609,261,197,189,
0,585,705,259,195,187,
0,593,695,257,205,185,
0,707,681,255,203,184,
0,697,672,304,200,227,
0,688,663,339,199,224,
0,678,654,335,198,223,
0,667,645,332,195,220,
0,658,636,327,195,217,
0,649,628,326,193,216,
0,641,620,323,192,215,
0,633,612,319,190,212,
0,642,605,317,198,211,
0,694,595,314,195,209,
0,684,588,312,194,213,
0,675,582,309,192,211,
0,665,575,307,191,209,
0,655,568,304,189,207,
0,646,561,300,188,205,
0,638,555,298,187,204,
0,630,548,295,185,202,
0,623,572,294,195,200,
0,702,745,291,195,199,
0,691,734,289,192,198,
0,681,723,287,191,195,
0,671,712,284,190,194,
0,664,702,282,188,199,
0,652,692,280,187,197,
0,644,683,278,185,195,
0,636,673,275,184,193,
0,627,664,273,183,192,
0,620,656,271,203,190,
0,717,646,269,200,188,
0,705,638,267,199,187,
0,696,630,289,196,202,
0,686,622,286,195,199,
0,676,614,284,193,216,
0,665,606,280,192,214,
0,657,599,278,191,211,
0,648,591,275,189,209,
0,639,633,273,188,207,
0,633,661,271,209,206,
0,688,648,268,207,204,
0,679,639,267,205,205,
0,670,632,335,203,203,
0,661,623,332,201,210,
0,652,614,329,199,207,
0,641,607,327,198,206,
0,633,599,323,196,204,
0,625,591,319,195,202,
0,618,583,317,193,200,
0,611,577,315,195,199,
0,604,568,312,193,198,
0,596,562,310,192,195,
0,590,556,307,190,194,
0,583,550,304,188,192,
0,575,543,302,187,191,
0,568,537,299,185,190,
0,561,531,295,184,188,
0,556,526,294,183,187,
0,550,520,291,182,184,
0,600,515,289,197,184,
0,660,556,287,195,182,
0,651,550,327,193,181,
0,643,542,359,191,179,
0,634,536,355,190,178,
0,625,528,352,188,177,
0,615,523,348,187,176,
0,608,516,344,185,174,
0,600,511,342,184,173,
0,593,505,339,199,172,
0,587,500,335,200,171,
0,579,494,332,199,169,
0,573,489,330,196,172,
0,566,484,327,195,171,
0,560,480,324,193,215,
0,553,475,321,192,212,
0,545,471,318,190,211,
0,540,466,316,189,208,
0,534,462,313,187,207,
0,527,457,311,209,205,
0,623,483,307,207,203,
0,615,475,305,204,201,
0,607,591,355,203,199,
0,598,582,374,201,198,
0,591,574,370,199,203,
0,583,567,366,198,201,
0,574,560,362,196,199,
0,568,552,359,195,198,
0,560,546,355,193,196,
0,555,692,352,199,194,
0,595,731,350,198,193,
0,587,717,347,196,226,
0,579,707,344,195,224,
0,572,696,340,193,232,
0,564,687,337,192,230,
0,558,677,335,190,228,
0,550,770,331,188,225,
0,543,758,327,187,224,
0,537,745,326,185,222,
0,531,735,323,192,220,
0,526,723,319,190,217,
0,519,711,318,188,216,
0,515,701,402,186,214,
0,509,691,398,184,212,
0,504,681,393,184,211,
0,499,672,390,182,209,
0,493,664,385,180,207,
0,487,655,382,179,206,
0,483,647,379,182,204,
0,522,639,376,199,202,
0,580,705,371,198,200,
0,572,693,368,195,199,
0,566,683,365,195,198,
0,559,673,433,192,196,
0,551,664,427,191,195,
0,545,655,423,190,193,
0,537,646,417,188,192,
0,531,638,414,187,190,
0,525,721,409,206,188,
0,668,789,406,205,187,
0,656,775,401,203,185,
0,647,761,398,200,192,
0,639,750,395,199,191,
0,631,739,391,198,195,
0,623,728,387,196,193,
0,615,718,384,194,192,
0,606,707,380,193,189,
0,598,697,377,191,188,
0,591,688,374,192,186,
0,583,679,370,190,184,
0,577,670,367,188,184,
0,571,659,371,187,182,
0,563,651,368,185,202,
0,557,643,364,184,231,
0,551,635,361,182,230,
0,544,627,358,181,227,
0,536,619,355,179,225,
0,531,611,352,178,224,
0,526,604,349,203,222,
0,573,597,345,201,220,
0,566,590,344,199,217,
0,559,582,340,197,216,
0,551,575,337,195,214,
0,545,568,335,194,212,
0,539,563,332,192,211,
0,532,556,329,191,209,
0,524,550,327,189,207,
0,519,543,324,188,205,
0,513,538,322,199,204,
0,563,532,319,197,201,
0,556,527,317,195,199,
0,548,519,315,193,199,
0,542,514,312,192,198,
0,536,509,310,190,195,
0,529,504,307,189,195,
0,523,499,305,188,193,
0,515,494,303,185,191,
0,510,488,300,185,189,
0,553,524,297,191,188,
0,603,516,295,189,187,
0,595,510,294,188,195,
0,587,503,291,185,193,
0,579,496,289,184,215,
0,572,491,287,183,212,
0,566,486,285,182,211,
0,559,480,283,180,209,
0,551,583,280,179,207,
0,543,675,279,183,205,
0,539,664,276,183,203,
0,532,655,275,181,201,
0,527,646,273,179,199,
0,520,635,271,178,198,
0,515,627,269,176,219,
0,509,619,267,175,217,
0,504,611,265,174,216,
0,497,603,263,172,214,
0,492,595,261,172,211,
0,487,588,259,193,209,
0,592,581,257,192,207,
0,583,718,255,190,216,
0,575,707,261,188,217,
0,569,694,259,186,216,
0,561,684,255,184,214,
0,555,675,255,183,211,
0,548,665,252,182,210,
0,540,656,251,180,207,
0,534,647,248,179,206,
0,527,639,247,212,204,
0,598,632,246,210,203,
0,590,623,243,208,200,
0,582,615,241,207,199,
0,575,606,240,204,199,
0,568,598,257,203,198,
0,560,591,255,201,195,
0,553,583,253,199,194,
0,545,577,251,198,193,
0,540,571,248,196,191,
0,534,563,247,199,190,
0,527,558,244,198,188,
0,521,551,257,196,187,
0,515,545,384,195,185,
0,510,537,380,193,193,
0,504,531,376,191,192,
0,499,526,372,190,190,
0,494,519,368,188,188,
0,487,515,365,187,187,
0,483,509,361,191,185,
0,556,657,358,195,184,
0,577,647,355,194,182,
0,570,638,352,192,181,
0,563,628,348,191,179,
0,556,618,345,189,200,
0,549,609,343,188,199,
0,543,601,339,185,197,
0,536,595,337,184,195,
0,528,587,334,183,194,
0,523,580,331,194,192,
0,568,573,327,192,190,
0,560,619,325,190,188,
0,553,610,323,189,195,
0,547,600,319,187,193,
0,540,591,317,185,201,
0,534,584,315,184,199,
0,527,577,312,183,198,
0,521,569,310,181,196,
0,514,563,307,179,194,
0,508,556,304,195,192,
0,529,550,302,193,191,
0,523,543,300,192,192,
0,518,588,297,190,191,
0,511,609,295,188,189,
0,505,600,293,187,188,
0,499,593,291,185,186,
0,494,585,289,184,184,
0,489,577,287,183,183,
0,483,571,284,180,182,
0,478,563,281,209,179,
0,574,556,280,207,178,
0,567,550,278,206,207,
0,560,543,275,204,206,
0,552,536,273,202,204,
0,546,529,271,199,201,
0,540,524,270,199,199,
0,533,518,268,197,199,
0,527,512,265,195,197,
0,519,507,263,194,195,
0,549,502,262,195,193,
0,614,496,259,193,192,
0,606,492,310,192,248,
0,598,487,355,190,243,
0,590,480,351,188,241,
0,583,476,348,187,240,
0,575,471,344,185,238,
0,568,466,341,184,236,
0,561,462,338,183,233,
0,553,527,335,192,231,
0,574,629,331,195,229,
0,568,620,327,194,227,
0,560,611,326,192,225,
0,553,604,323,191,224,
0,547,593,319,189,222,
0,540,586,318,188,220,
0,534,579,315,185,218,
0,527,572,312,184,216,
0,522,564,310,183,215,
0,515,558,307,201,213,
0,604,551,304,199,211,
0,595,545,302,197,209,
0,588,539,299,195,207,
0,580,532,296,194,206,
0,573,525,295,192,204,
0,566,519,292,191,203,
0,559,513,290,189,201,
0,552,508,287,188,199,
0,545,502,286,186,198,
0,538,497,283,203,197,
0,609,492,280,201,195,
0,601,487,279,199,222,
0,593,481,276,198,221,
0,585,476,274,196,219,
0,579,471,304,195,217,
0,572,465,302,192,216,
0,564,461,299,191,213,
0,558,455,296,189,211,
0,551,451,294,188,209,
0,543,448,291,204,207,
0,595,496,288,202,206,
0,587,575,286,199,204,
0,579,567,284,199,203,
0,572,560,287,197,200,
0,565,551,343,195,199,
0,559,543,339,193,198,
0,551,537,335,192,195,
0,545,531,332,190,194,
0,539,525,329,189,193,
0,593,769,326,198,192,
0,680,786,323,196,190,
0,671,774,319,195,188,
0,662,761,401,193,187,
0,653,750,396,192,194,
0,644,736,392,190,192,
0,636,726,388,188,191,
0,628,716,385,187,189,
0,620,705,381,185,188,
0,612,696,377,201,186,
0,604,687,374,205,184,
0,596,677,371,203,183,
0,589,668,367,201,184,
0,583,659,364,199,182,
0,575,652,360,198,246,
0,568,641,358,196,243,
0,563,633,355,195,241,
0,556,625,352,193,239,
0,550,617,348,192,236,
0,543,610,345,199,235,
0,553,603,342,198,232,
0,547,595,339,196,231,
0,540,588,336,195,228,
0,534,582,334,193,227,
0,527,575,331,192,225,
0,522,568,327,190,224,
0,516,560,326,188,222,
0,511,555,323,187,220,
0,505,548,320,185,218,
0,500,623,318,196,216,
0,647,839,315,195,214,
0,639,824,312,193,212,
0,631,810,310,192,211,
0,622,797,307,190,219,
0,614,784,305,188,224,
0,606,770,303,187,222,
0,599,759,300,185,220,
0,591,748,299,184,219,
0,583,737,295,182,216,
0,577,728,295,198,215,
0,569,717,291,195,212,
0,562,707,289,195,211,
0,556,697,287,193,209,
0,550,688,285,192,210,
0,543,679,283,190,208,
0,537,668,281,188,207,
0,531,659,280,186,205,
0,526,652,277,184,204,
0,519,643,275,186,201,
0,514,636,273,216,199,
0,607,627,271,213,199,
0,600,620,269,211,247,
0,591,612,267,209,243,
0,583,606,265,207,241,
0,576,598,263,206,240,
0,569,590,262,204,238,
0,563,583,259,203,236,
0,556,575,257,200,233,
0,550,569,255,201,231,
0,588,563,254,201,230,
0,636,557,252,199,227,
0,628,668,249,198,262,
0,620,656,248,196,259,
0,611,647,247,195,255,
0,604,639,244,193,254,
0,596,627,243,192,252,
0,589,620,241,190,249,
0,582,611,240,188,248,
0,575,604,238,207,246,
0,657,755,236,205,243,
0,663,742,234,203,241,
0,654,730,233,201,241,
0,645,719,231,199,240,
0,637,708,230,199,238,
0,628,699,228,196,236,
0,620,687,227,195,233,
0,613,677,225,193,231,
0,605,668,224,192,230,
0,598,713,223,210,228,
0,605,703,221,208,226,
0,597,692,219,207,231,
0,590,683,217,204,229,
0,583,673,216,203,236,
0,575,664,215,201,233,
0,569,655,214,199,231,
0,563,644,211,198,229,
0,556,636,211,196,227,
0,550,636,209,195,225,
0,543,813,207,207,224,
0,606,799,206,206,222,
0,598,786,205,204,220,
0,590,774,204,203,217,
0,583,763,248,201,252,
0,575,752,246,199,249,
0,568,740,243,198,247,
0,561,728,242,195,244,
0,555,717,240,194,242,
0,548,707,238,195,240,
0,543,871,236,211,239,
0,646,855,233,210,236,
0,638,840,231,208,238,
0,630,827,230,207,236,
0,621,814,227,205,236,
0,613,800,226,203,233,
0,606,788,224,201,231,
0,598,774,222,199,230,
0,591,763,220,198,228,
0,583,752,219,214,226,
0,576,741,217,212,224,
0,568,737,216,211,223,
0,562,898,281,209,248,
0,555,887,278,207,245,
0,548,871,275,206,243,
0,542,856,273,204,240,
0,536,841,270,202,238,
0,531,824,268,199,236,
0,524,812,266,199,235,
0,519,860,263,221,232,
0,515,902,262,219,231,
0,508,888,259,217,228,
0,503,871,323,215,227,
0,497,857,319,213,225,
0,492,844,316,211,224,
0,487,830,313,209,222,
0,483,814,311,207,220,
0,478,828,308,206,218,
0,473,902,305,204,216,
0,468,894,303,215,215,
0,572,875,300,212,214,
0,561,860,297,211,211,
0,555,846,295,209,209,
0,548,831,292,207,209,
0,542,819,290,206,207,
0,536,807,287,204,207,
0,529,792,285,202,205,
0,523,780,283,199,204,
0,517,769,280,199,201,
0,511,759,279,216,199,
0,587,747,276,214,199,
0,577,737,274,212,245,
0,569,727,271,211,247,
0,563,717,270,208,265,
0,556,707,267,207,263,
0,550,698,265,205,260,
0,543,687,263,204,257,
0,536,678,262,201,255,
0,530,673,259,201,253,
0,543,708,257,211,251,
0,634,697,255,209,248,
0,624,688,254,207,252,
0,615,678,251,205,248,
0,608,668,260,204,247,
0,600,660,258,202,244,
0,591,652,255,199,242,
0,584,641,254,199,240,
0,577,634,252,197,238,
0,571,627,249,215,236,
0,564,619,248,213,235,
0,558,611,246,211,231,
0,550,604,249,209,231,
0,543,598,248,207,228,
0,537,591,245,206,231,
0,531,583,243,204,228,
0,526,577,241,203,226,
0,519,638,240,201,225,
0,514,683,238,199,223,
0,508,673,236,212,221,
0,509,664,234,210,220,
0,504,654,231,207,217,
0,496,645,231,207,257,
0,491,636,313,205,254,
0,486,628,310,204,252,
0,481,707,307,202,249,
0,476,808,304,199,247,
0,472,792,302,199,244,
0,467,780,299,196,242,
0,463,768,295,204,240,
0,617,756,294,203,239,
0,608,745,291,201,236,
0,598,735,391,199,235,
0,590,724,387,198,231,
0,583,713,383,196,230,
0,575,704,379,195,228,
0,568,695,375,193,227,
0,562,683,371,192,225,
0,556,679,368,190,223,
0,549,671,365,203,221,
0,671,663,361,200,220,
0,662,654,359,199,269,
0,651,646,355,198,265,
0,642,638,352,196,263,
0,634,657,348,194,260,
0,626,716,345,193,258,
0,617,705,343,191,255,
0,610,692,339,189,254,
0,603,683,337,200,251,
0,595,672,334,207,249,
0,588,664,332,205,247,
0,582,655,328,204,244,
0,573,646,326,201,243,
0,567,638,323,199,240,
0,560,630,319,199,239,
0,553,622,318,197,236,
0,547,614,315,195,234,
0,542,605,312,193,232,
0,536,598,310,212,231,
0,551,591,307,211,229,
0,560,583,305,208,227,
0,553,577,303,207,237,
0,545,571,300,205,235,
0,539,564,297,204,231,
0,532,559,295,201,230,
0,526,551,294,199,228,
0,520,546,291,199,226,
0,515,539,289,196,224,
0,510,534,287,216,223,
0,611,527,285,213,220,
0,602,523,283,211,219,
0,594,518,280,209,226,
0,584,512,278,207,224,
0,577,507,275,206,222,
0,570,502,274,204,220,
0,563,496,271,203,217,
0,556,492,270,201,216,
0,551,486,268,199,215,
0,543,481,266,207,213,
0,611,476,263,205,211,
0,603,472,263,204,228,
0,595,467,260,201,267,
0,585,463,258,199,263,
0,577,459,287,199,261,
0,571,455,285,197,259,
0,563,450,283,195,255,
0,557,446,280,194,254,
0,551,441,278,192,252,
0,544,438,275,205,250,
0,539,433,273,203,248,
0,532,430,271,201,246,
0,527,425,268,199,243,
0,519,422,286,198,241,
0,513,418,284,196,240,
0,508,415,280,195,238,
0,503,411,279,193,236,
0,497,408,275,192,233,
0,492,403,273,206,231,
0,487,399,271,209,230,
0,519,397,269,207,228,
0,512,393,267,206,227,
0,507,391,263,204,224,
0,499,387,262,203,229,
0,494,384,259,201,227,
0,487,381,258,199,225,
0,483,377,255,198,223,
0,478,507,254,196,221,
0,473,565,252,209,220,
0,521,558,251,207,217,
0,523,551,248,206,216,
0,516,543,247,204,216,
0,510,536,245,202,214,
0,503,531,272,200,211,
0,497,524,270,199,210,
0,492,518,268,198,208,
0,486,512,265,196,207,
0,481,507,263,195,205,
0,476,611,260,199,204,
0,647,862,258,197,202,
0,636,844,255,195,200,
0,628,830,254,193,201,
0,620,816,252,192,199,
0,609,803,249,191,198,
0,601,792,248,189,196,
0,595,779,246,188,195,
0,588,768,243,187,193,
0,580,876,241,185,192,
0,574,856,240,211,191,
0,664,841,238,209,189,
0,654,828,236,207,188,
0,646,815,235,206,187,
0,635,802,233,204,203,
0,627,790,231,203,211,
0,619,778,230,201,209,
0,611,768,228,199,207,
0,604,755,227,198,206,
0,596,745,225,196,204,
0,589,732,224,204,203,
0,691,722,222,202,201,
0,680,712,220,199,199,
0,671,703,219,199,198,
0,660,694,217,198,196,
0,652,684,216,195,195,
0,643,675,215,194,193,
0,636,869,212,192,192,
0,627,867,211,191,190,
0,620,852,209,190,188,
0,667,835,208,201,187,
0,732,821,207,199,185,
0,722,807,206,199,184,
0,711,796,204,196,184,
0,700,783,203,195,188,
0,690,771,201,193,185,
0,681,760,199,192,184,
0,671,750,199,190,183,
0,664,739,198,189,182,
0,655,729,196,195,180,
0,726,900,195,198,179,
0,731,904,193,196,177,
0,720,886,192,195,184,
0,711,870,241,192,182,
0,698,856,284,191,180,
0,688,841,280,190,178,
0,679,828,278,188,177,
0,671,816,275,187,176,
0,662,803,272,185,174,
0,654,792,271,203,173,
0,732,776,268,199,172,
0,720,765,265,199,171,
0,711,755,263,197,169,
0,700,743,261,195,167,
0,688,734,259,193,175,
0,679,723,255,192,174,
0,671,713,255,191,172,
0,662,704,252,189,171,
0,654,696,251,188,169,
0,646,823,248,194,167,
0,722,856,247,192,167,
0,711,840,244,190,167,
0,701,827,243,188,166,
0,691,814,240,188,183,
0,679,800,300,185,180,
0,671,788,295,184,178,
0,663,776,294,183,176,
0,654,765,291,182,175,
0,646,754,287,180,174,
0,638,741,286,211,172,
0,682,731,284,209,171,
0,671,719,281,207,195,
0,664,711,279,206,193,
0,655,716,276,204,193,
0,643,856,273,202,192,
0,636,840,271,200,190,
0,628,827,269,199,188,
0,620,814,267,198,187,
0,613,801,264,195,185,
0,638,863,263,207,184,
0,718,847,260,204,182,
0,707,832,258,203,182,
0,697,819,255,201,180,
0,688,807,269,199,209,
0,676,793,266,198,207,
0,668,782,263,196,204,
0,659,770,262,195,203,
0,651,783,259,193,200,
0,643,851,257,210,199,
0,684,833,255,213,198,
0,673,819,252,211,195,
0,664,807,251,209,242,
0,655,794,248,207,240,
0,647,782,316,206,238,
0,636,770,312,204,235,
0,628,759,308,202,232,
0,620,748,305,199,231,
0,614,737,303,199,228,
0,606,728,300,216,227,
0,660,715,297,214,225,
0,652,705,295,211,223,
0,643,696,292,209,231,
0,633,686,290,207,230,
0,626,678,287,206,230,
0,615,668,285,204,227,
0,608,660,283,203,225,
0,601,652,280,201,224,
0,594,644,278,199,222,
0,588,852,275,216,220,
0,670,833,273,214,217,
0,660,819,271,211,216,
0,652,807,269,209,215,
0,643,794,267,207,214,
0,635,782,265,206,211,
0,624,771,263,205,209,
0,616,760,260,203,207,
0,609,748,259,201,206,
0,601,898,255,199,204,
0,595,888,255,211,203,
0,667,867,252,209,201,
0,657,854,300,206,238,
0,649,839,327,204,236,
0,639,825,324,203,233,
0,632,813,321,201,231,
0,622,843,318,199,229,
0,614,903,315,198,227,
0,606,910,312,196,224,
0,599,913,310,195,223,
0,591,910,307,195,221,
0,585,880,304,193,219,
0,578,865,302,192,217,
0,572,851,300,191,216,
0,566,838,297,190,214,
0,559,881,295,188,212,
0,551,905,291,187,211,
0,545,911,289,185,207,
0,540,910,287,184,207,
0,534,888,284,199,205,
0,632,871,282,207,204,
0,622,854,280,205,201,
0,615,840,281,204,199,
0,606,827,279,201,199,
0,599,814,276,199,207,
0,591,802,274,199,207,
0,582,791,271,197,204,
0,575,779,269,195,202,
0,568,768,267,193,200,
0,561,757,265,204,199,
0,627,746,263,201,197,
0,619,733,262,199,195,
0,611,723,259,198,194,
0,603,713,257,196,192,
0,595,704,255,195,204,
0,588,696,253,193,201,
0,579,766,251,192,199,
0,572,852,249,190,198,
0,565,837,248,188,196,
0,559,824,246,199,195,
0,551,810,243,197,193,
0,545,795,241,195,192,
0,540,783,240,193,190,
0,534,881,238,192,220,
0,527,899,255,191,220,
0,522,881,254,188,219,
0,515,865,252,187,216,
0,510,851,249,185,214,
0,504,838,247,184,212,
0,499,824,245,199,210,
0,545,812,243,198,208,
0,539,796,270,196,207,
0,531,783,276,195,206,
0,525,772,273,193,206,
0,519,761,271,192,204,
0,513,751,269,190,202,
0,505,739,265,188,199,
0,500,729,263,187,199,
0,496,836,262,187,198,
0,582,903,259,207,195,
0,655,909,257,206,194,
0,646,911,255,204,214,
0,638,914,254,201,211,
0,629,916,252,199,209,
0,621,919,249,199,207,
0,613,919,248,197,206,
0,604,909,246,195,204,
0,596,881,243,194,201,
0,589,866,241,206,199,
0,623,894,240,207,199,
0,614,907,238,205,197,
0,606,911,366,203,198,
0,598,897,364,201,195,
0,590,876,359,199,199,
0,583,862,356,198,197,
0,575,847,353,196,195,
0,568,834,349,195,193,
0,561,822,346,193,192,
0,556,809,344,216,191,
0,668,797,340,214,188,
0,657,785,337,211,188,
0,648,771,393,209,212,
