=~=~=~=~=~=~=~=~=~=~=~= PuTTY log 2021.04.22 12:58:27 =~=~=~=~=~=~=~=~=~=~=~=
6,483,659,150,432,
0,489,620,184,196,427,
0,483,611,183,195,423,
0,479,604,181,193,417,
0,473,596,179,192,414,
0,467,680,177,231,408,
0,513,706,176,229,404,
0,507,696,175,227,400,
0,502,686,192,225,396,
0,496,676,190,224,393,
0,489,664,190,21,390,
0,484,655,188,219,386,
0,480,647,186,217,383,
0StartUp!
121,460,579,139,198,504,
0,455,574,139,196,499,
0,453,568,137,195,496,
0,449,563,136,194,491,
0,446,559,135,193,487,
0,443,612,135,198,483,
0,457,615,135,196,480,
0,452,609,134,195,476,
0,449,603,133,194,472,
0,445,597,132,193,467,
0,441,589,131,192,463,
0,438,582,135,190,508,
0,432,574,134,188,503,
0,428,568,133,187,496,
0,423,560,131,185,490,
0,419,553,131,184,484,
0,415,591,129,192,480,
0,463,611,129,190,474,
0,458,603,127,188,470,
0,454,595,127,187,464,
0,448,588,126,185,492,
0,444,579,145,184,531,
0,438,572,143,183,525,
0,433,566,142,181,518,
0,428,559,141,180,512,
0,423,551,140,179,506,
0,420,664,139,190,500,
0,481,651,137,188,495,
0,476,641,135,186,489,
0,471,633,135,184,484,
0,465,627,135,184,483,
0,462,619,160,183,478,
0,455,611,159,181,472,
0,451,603,157,179,466,
0,447,595,156,179,462,
0,441,588,154,177,457,
0,438,664,153,235,452,
0,497,651,152,231,448,
0,491,641,164,230,444,
0,486,632,163,227,440,
0,480,625,192,225,478,
0,475,615,193,224,472,
0,468,608,191,222,465,
0,463,600,188,220,460,
0,458,592,187,219,455,
1,454,585,185,225,450,
1,497,659,184,240,445,
1,515,647,183,237,440,
2,508,638,181,236,436,
2,503,630,179,233,432,
3,497,620,192,231,480,
3,492,612,190,230,475,
3,484,604,188,227,467,
3,480,597,186,226,463,
3,474,590,184,224,457,
3,470,582,183,249,453,
4,511,629,182,247,448,
4,504,617,180,244,444,
4,498,609,179,242,439,
4,492,601,177,240,435,
5,487,593,195,239,494,
4,481,586,193,236,487,
5,475,579,191,234,480,
4,470,572,190,232,476,
5,464,564,188,231,471,
4,460,620,187,242,465,
4,510,655,185,240,460,
4,504,644,184,238,455,
4,497,635,182,236,451,
4,492,627,180,233,467,
4,487,618,188,231,492,
4,481,610,186,230,486,
4,475,602,184,227,479,
4,470,594,183,225,473,
4,464,587,181,224,468,
4,460,663,179,235,463,
4,506,652,178,232,458,
4,500,639,177,231,454,
3,495,632,176,228,449,
3,488,624,174,227,509,
4,483,615,199,225,502,
3,477,607,198,224,496,
3,472,599,195,221,489,
3,466,591,194,220,483,
3,462,583,192,218,479,
3,456,651,191,237,473,
3,511,639,190,235,468,
3,505,630,188,231,463,
3,499,622,187,231,458,
3,494,614,185,228,487,
3,487,604,184,227,483,
3,481,597,183,225,477,
3,476,589,180,223,470,
3,472,582,179,222,465,
3,466,575,178,229,460,
3,497,671,176,241,455,
3,519,662,175,240,451,
3,513,651,174,237,446,
3,508,642,172,235,441,
3,502,633,179,233,487,
2,496,625,177,231,481,
3,489,616,176,230,476,
3,484,608,174,227,470,
2,480,601,173,226,463,
3,474,593,172,231,460,
3,531,665,170,230,455,
3,524,655,168,228,449,
2,518,644,167,225,445,
3,511,636,167,224,440,
2,506,627,185,222,486,
2,500,619,184,220,480,
3,493,611,182,219,475,
3,487,603,180,217,468,
2,483,595,179,216,463,
3,478,664,177,233,459,
3,536,696,176,231,454,
3,528,684,174,230,449,
3,522,672,173,227,444,
3,516,663,172,226,467,
3,510,654,184,224,487,
3,504,645,182,222,483,
3,497,636,180,220,477,
3,492,628,178,219,471,
3,487,620,177,216,465,
2,482,678,175,255,460,
3,521,667,174,253,455,
3,515,655,172,251,451,
2,510,647,171,248,446,
3,504,637,169,246,504,
3,498,628,179,243,496,
2,492,620,177,242,491,
3,486,612,176,240,485,
2,480,604,174,238,479,
3,475,596,172,236,473,
2,471,688,172,235,467,
2,508,678,169,233,463,
2,502,666,168,231,458,
2,496,656,167,229,454,
2,489,647,167,227,492,
1,484,639,167,226,487,
2,480,631,166,224,481,
1,473,622,164,222,476,
2,467,614,162,220,470,
2,463,606,161,231,464,
2,472,641,159,243,460,
1,493,632,159,241,455,
1,487,622,158,240,450,
1,482,613,156,237,446,
1,476,605,156,235,483,
1,472,598,155,233,478,
1,466,590,153,231,472,
1,460,583,152,230,467,
1,455,575,151,227,460,
1,451,569,150,228,455,
1,504,644,148,227,451,
1,497,635,147,225,446,
1,492,624,147,224,441,
1,486,615,145,221,437,
1,480,608,152,219,498,
1,475,600,152,217,492,
1,470,591,150,216,487,
1,463,584,148,215,481,
1,459,577,147,212,475,
1,455,617,146,225,470,
1,508,644,145,223,464,
0,502,635,143,221,460,
0,496,624,143,219,455,
0,491,615,142,216,467,
0,485,608,152,215,500,
0,480,600,152,213,495,
0,474,592,150,211,489,
1,467,584,148,209,483,
0,463,577,147,208,478,
1,458,712,147,235,472,
0,504,700,145,232,467,
0,498,689,143,231,462,
0,492,678,143,229,457,
0,487,668,142,227,511,
0,481,659,167,224,504,
0,476,649,167,223,497,
0,472,641,166,221,492,
0,464,632,163,219,487,
0,460,624,162,217,480,
0,455,700,161,235,475,
0,513,689,159,232,470,
0,507,679,158,231,464,
0,500,668,157,229,460,
0,495,658,162,227,460,
0,489,649,160,225,455,
0,484,639,159,223,451,
0,479,632,158,221,446,
0,472,624,156,220,441,
0,467,615,155,222,436,
0,468,710,153,230,432,
0,483,698,152,228,428,
0,477,688,152,227,423,
0,472,675,151,224,419,
0,467,667,149,222,479,
0,462,657,148,220,473,
0,456,648,147,219,467,
0,451,639,145,217,463,
0,446,632,144,216,457,
0,442,624,143,235,451,
0,518,728,142,233,447,
0,511,718,141,231,442,
0,504,707,142,230,438,
0,499,694,141,227,433,
0,493,684,158,225,495,
0,487,675,157,224,487,
0,482,665,156,221,483,
0,477,656,154,220,478,
0,471,647,152,217,472,
0,465,682,152,224,466,
0,488,685,150,222,461,
0,483,675,149,220,455,
0,478,665,152,219,451,
0,472,654,151,217,469,
0,467,646,175,215,488,
0,462,636,174,213,483,
0,456,628,172,211,478,
0,451,620,171,209,472,
0,447,612,168,208,467,
0,442,664,167,216,461,
0,499,654,166,214,455,
0,494,644,164,211,451,
0,487,636,163,210,447,
0,483,625,162,207,508,
0,477,616,178,206,501,
0,472,609,176,205,495,
0,467,601,175,203,489,
0,462,594,174,201,484,
0,455,587,172,199,478,
0,451,647,170,223,472,
0,487,638,168,220,467,
0,483,630,167,219,463,
0,477,621,166,216,457,
0,472,611,175,215,467,
0,467,603,173,213,462,
0,462,595,172,211,456,
0,456,587,170,209,451,
0,451,580,168,207,448,
0,446,574,167,207,441,
0,468,649,166,212,437,
0,488,639,164,211,433,
0,483,632,163,208,428,
0,477,623,161,207,424,
0,472,612,160,205,475,
0,467,604,159,204,468,
0,462,596,158,201,463,
0,456,589,156,199,459,
0,451,582,156,199,454,
0,447,575,155,219,448,
0,523,675,153,216,443,
0,515,666,152,215,439,
0,510,656,151,213,434,
0,504,647,150,211,430,
0,499,636,158,209,483,
0,492,628,156,207,477,
0,487,620,155,206,472,
0,482,611,153,204,466,
0,476,604,152,203,461,
0,471,647,151,224,455,
0,496,673,150,222,450,
0,489,664,148,220,446,
0,484,655,147,218,441,
0,479,646,146,216,462,
0,473,635,161,214,488,
0,468,626,159,212,483,
0,463,617,158,211,478,
0,459,610,156,209,472,
0,454,602,156,207,467,
0,448,694,153,224,461,
0,496,682,152,222,455,
0,489,671,152,220,451,
0,484,664,150,217,447,
0,479,654,149,216,443,
0,473,643,160,214,438,
0,467,633,159,211,433,
0,463,625,157,211,429,
0,457,617,156,208,424,
0,452,609,155,207,420,
0,448,679,153,220,415,
0,499,668,152,218,412,
0,493,659,151,216,408,
0,487,649,150,215,404,
0,482,639,156,212,446,
0,476,631,155,211,440,
0,472,622,153,208,435,
0,466,614,152,207,431,
0,461,606,151,205,426,
0,455,599,150,205,423,
0,485,664,148,212,416,
0,504,655,147,211,412,
0,497,646,147,209,408,
0,492,636,145,207,404,
0,487,628,160,206,472,
0,480,617,159,204,465,
0,476,609,158,202,460,
0,471,601,156,199,455,
0,465,594,155,199,450,
0,459,587,153,211,446,
0,508,708,152,209,440,
0,502,697,151,207,435,
0,496,688,150,206,431,
0,489,678,148,204,427,
0,484,668,161,202,470,
0,479,656,159,199,464,
0,473,647,159,199,460,
0,468,639,157,197,455,
0,463,631,156,195,449,
0,457,660,155,215,445,
0,489,652,153,212,439,
0,483,643,152,211,435,
0,478,635,151,208,430,
0,472,625,150,207,446,
0,467,617,151,206,467,
0,463,608,150,204,462,
0,457,600,148,201,456,
0,452,592,147,199,451,
0,448,585,145,199,447,
0,443,645,144,215,442,
0,475,636,143,213,436,
0,469,626,142,211,432,
0,463,617,141,209,428,
0,459,609,140,207,486,
0,454,600,145,206,480,
0,449,591,144,204,474,
0,444,584,143,202,468,
0,440,577,142,199,463,
0,435,570,141,199,459,
0,433,648,140,211,454,
0,486,639,139,209,448,
0,480,630,137,207,444,
0,475,621,136,206,439,
0,470,613,154,204,483,
0,464,603,152,202,478,
0,460,595,152,199,472,
0,455,588,150,199,467,
0,450,580,148,197,462,
0,445,573,147,206,457,
0,490,646,146,219,452,
0,515,636,144,216,446,
0,510,627,143,215,441,
0,504,618,142,212,437,
0,499,611,152,211,503,
0,492,600,150,209,496,
0,487,592,149,207,491,
0,482,585,147,206,486,
0,476,577,147,204,480,
0,472,571,145,225,475,
0,483,659,144,223,470,
0,478,649,143,220,463,
0,472,639,142,219,459,
0,467,632,140,217,454,
0,462,623,146,216,505,
0,457,612,145,214,499,
0,452,604,143,211,494,
0,448,597,142,209,487,
0,443,589,141,207,483,
0,439,620,140,213,478,
0,496,620,139,211,472,
0,489,612,137,209,466,
0,483,604,140,207,461,
0,479,596,139,206,486,
0,473,588,172,204,519,
0,467,579,169,203,513,
0,463,572,167,199,508,
0,457,565,167,199,502,
0,453,559,166,198,496,
0,448,647,163,204,492,
0,512,638,162,202,486,
0,506,628,161,200,480,
0,500,620,159,199,474,
0,495,611,159,198,535,
0,489,604,159,195,527,
0,484,593,158,195,521,
0,479,587,156,192,515,
0,47StartUp!
121,475,513,153,199,503,
0,472,510,153,199,498,
0,467,506,152,199,495,
0,479,583,152,199,491,
0,511,577,151,198,487,
0,507,572,149,196,483,
0,502,566,148,195,479,
0,498,560,147,195,475,
0,494,555,147,193,499,
0,489,550,156,192,526,
0,486,543,154,190,519,
0,480,536,152,188,513,
0,473,530,151,187,507,
0,468,524,150,185,500,
0,463,553,148,192,495,
0,487,561,147,190,489,
0,482,554,146,188,483,
0,477,545,145,186,479,
0,472,539,143,184,510,
0,466,531,152,184,551,
0,461,525,151,182,543,
0,456,519,150,180,537,
0,451,513,147,179,531,
0,446,508,147,178,524,
0,441,553,145,188,517,
0,497,545,143,185,511,
0,491,538,143,184,505,
0,486,530,142,182,500,
0,480,523,140,181,535,
0,475,517,146,179,527,
0,470,513,145,179,524,
0,467,508,144,177,518,
0,460,502,143,176,510,
0,455,496,142,175,505,
0,455,600,141,216,499,
0,525,590,140,215,494,
0,519,582,139,212,488,
0,513,572,137,210,483,
0,507,566,160,208,535,
0,501,558,163,207,527,
0,496,551,161,205,521,
0,491,545,160,204,515,
0,483,538,159,201,508,
0,479,531,157,204,503,
0,519,632,156,212,497,
0,532,623,155,211,492,
0,527,614,153,209,486,
1,519,604,152,207,481,
1,514,595,180,205,530,
1,508,588,179,204,524,
2,503,580,177,201,518,
2,497,574,176,199,511,
3,490,567,174,199,504,
3,485,560,172,222,499,
3,531,583,171,219,493,
3,524,575,169,217,487,
3,519,568,167,216,483,
4,512,559,167,213,478,
4,507,551,203,211,531,
4,500,545,200,209,524,
4,495,539,199,207,519,
4,489,533,197,206,512,
5,483,527,195,204,505,
5,479,571,193,220,500,
5,556,604,192,217,495,
5,549,595,190,216,489,
5,542,588,189,214,484,
5,536,577,187,212,504,
5,529,571,193,210,533,
6,524,563,192,208,527,
5,518,556,191,207,519,
6,512,550,189,205,514,
6,504,543,187,203,507,
6,499,615,185,231,502,
6,536,607,184,228,496,
6,529,599,183,226,491,
6,523,591,181,224,486,
6,517,582,179,222,545,
6,511,574,188,220,537,
6,505,567,187,218,531,
6,499,560,185,216,525,
6,493,552,184,215,519,
5,487,546,182,213,512,
6,483,675,180,222,506,
6,534,664,179,220,500,
6,527,655,177,219,495,
6,521,647,176,216,489,
5,515,636,188,215,524,
6,509,627,187,212,518,
6,504,619,185,211,512,
5,498,611,184,209,506,
5,492,603,182,207,500,
5,486,595,180,215,494,
5,491,620,179,228,487,
5,514,611,177,225,483,
5,508,603,176,224,478,
5,503,595,175,222,473,
4,497,585,195,220,537,
4,492,578,192,217,530,
4,486,572,191,216,524,
4,481,564,189,215,518,
4,475,558,188,213,512,
4,470,553,185,227,505,
4,565,645,184,225,499,
4,557,636,183,224,494,
4,550,627,182,222,488,
4,543,619,179,220,483,
4,537,608,196,217,479,
4,531,600,195,216,473,
4,525,592,193,214,468,
4,519,585,192,212,463,
4,512,578,190,210,459,
4,507,620,188,227,454,
4,552,649,186,225,449,
4,545,639,185,223,444,
4,539,632,184,221,440,
4,532,623,182,219,465,
4,527,612,184,217,504,
4,520,604,183,216,498,
4,515,597,182,214,492,
4,509,590,179,211,487,
4,502,582,179,210,481,
4,497,693,177,227,475,
4,556,681,175,225,470,
3,549,671,174,223,465,
4,542,662,172,221,460,
3,536,651,171,220,505,
4,529,641,177,216,499,
3,524,633,176,215,493,
3,518,624,174,214,487,
3,512,616,172,211,482,
3,504,608,171,210,476,
3,499,675,169,227,470,
3,529,664,167,225,465,
3,523,655,167,224,460,
3,516,647,166,222,455,
3,511,636,184,220,504,
3,504,627,184,217,497,
3,499,619,183,216,491,
3,494,611,182,215,486,
3,488,603,180,212,480,
3,482,595,179,216,476,
3,504,659,176,226,468,
3,519,649,175,224,463,
3,512,639,174,223,459,
3,507,632,172,220,454,
3,500,621,184,219,511,
3,496,613,182,216,505,
3,489,605,179,215,499,
2,484,598,179,213,494,
2,480,590,177,211,487,
2,473,583,176,230,483,
2,523,636,174,230,476,
2,515,627,172,227,471,
2,510,619,171,226,466,
2,504,611,169,224,461,
2,499,600,172,222,502,
2,492,591,171,220,496,
2,487,584,169,217,491,
1,481,577,167,216,485,
2,476,571,167,215,480,
1,471,603,165,220,475,
1,526,629,163,219,468,
1,519,620,163,216,463,
1,513,611,161,215,458,
1,508,604,160,213,463,
1,502,594,184,211,502,
1,496,587,183,209,496,
1,491,579,181,207,490,
1,486,572,179,206,484,
1,480,565,178,204,480,
1,473,643,176,230,475,
1,540,633,175,227,467,
1,534,624,173,225,463,
1,527,615,172,223,457,
1,520,608,171,222,459,
1,515,598,188,220,454,
1,509,590,185,217,449,
1,504,583,184,216,444,
0,498,575,183,214,440,
1,492,568,181,211,435,
0,487,651,179,216,432,
1,523,641,177,214,427,
1,516,632,176,211,423,
0,511,624,175,210,419,
0,504,615,175,208,480,
0,499,605,173,207,473,
1,494,598,172,204,467,
0,487,590,170,203,463,
0,483,582,169,201,457,
0,478,575,167,200,452,
0,492,694,166,207,448,
0,516,683,164,206,442,
0,511,673,163,204,438,
0,504,664,162,203,433,
0,499,655,167,201,492,
0,494,643,166,199,486,
0,487,635,164,198,480,
0,483,627,163,196,475,
0,478,619,161,195,470,
0,472,611,159,217,465,
0,526,653,159,219,460,
0,519,643,158,216,454,
0,512,635,156,215,449,
0,507,626,155,213,444,
0,501,618,175,211,494,
0,495,608,173,209,488,
0,489,600,172,207,483,
0,484,592,170,206,478,
0,480,585,168,204,472,
0,473,612,167,224,467,
0,536,639,166,222,462,
0,529,630,164,220,455,
0,524,621,163,217,451,
0,517,612,161,216,477,
0,511,605,184,214,515,
0,505,595,183,212,508,
0,499,588,181,211,503,
0,495,580,179,208,497,
0,489,573,178,207,492,
0,484,647,176,207,487,
0,519,638,175,206,481,
0,513,628,173,204,475,
0,507,620,172,203,469,
0,501,611,171,201,526,
0,496,604,173,199,518,
0,490,594,172,198,512,
0,484,587,171,196,505,
0,480,579,169,195,500,
0,475,572,167,193,495,
0,470,644,166,203,489,
0,509,635,165,201,483,
0,504,626,163,199,478,
0,497,617,162,198,472,
0,492,609,167,196,519,
0,486,601,166,195,514,
0,481,591,164,193,508,
0,476,583,163,192,502,
0,471,577,162,190,496,
0,465,570,160,196,492,
0,461,639,159,201,486,
0,515,630,158,199,479,
0,509,621,156,198,473,
0,504,612,156,196,469,
0,497,604,155,195,525,
0,492,596,153,193,519,
0,487,587,152,192,512,
0,481,579,151,190,507,
0,476,572,150,188,501,
0,471,566,149,192,496,
0,473,633,147,195,490,
0,507,624,147,193,483,
0,501,615,145,192,479,
0,496,608,144,190,473,
0,491,600,166,188,521,
0,484,591,164,187,515,
0,480,582,163,185,510,
0,474,575,161,184,504,
0,469,568,159,183,498,
0,463,606,159,206,493,
0,522,636,157,204,487,
0,513,627,156,201,480,
0,507,619,155,199,476,
0,502,610,153,199,479,
0,496,603,163,197,521,
0,490,595,163,195,515,
0,484,585,161,193,508,
0,480,578,159,192,503,
0,475,571,158,191,497,
0,470,644,157,200,492,
0,518,634,156,199,487,
0,510,625,154,196,480,
0,504,616,153,195,475,
0,498,608,152,194,525,
0,492,600,163,192,518,
0,487,592,162,191,511,
0,481,583,161,189,505,
0,476,575,159,187,499,
0,472,568,158,186,494,
0,467,644,157,204,489,
0,519,635,156,201,483,
0,513,626,153,199,477,
0,507,617,152,199,472,
0,501,609,159,197,492,
0,496,601,159,195,487,
0,489,593,159,193,481,
0,484,583,157,192,476,
0,480,577,156,190,471,
0,473,569,155,192,466,
0,470,705,153,200,461,
0,502,694,152,199,455,
0,496,684,151,198,450,
0,490,673,150,195,446,
0,485,664,152,194,497,
0,480,655,152,192,492,
0,473,647,150,191,486,
0,469,636,148,189,480,
0,463,627,147,188,475,
0,459,620,147,215,470,
0,467,669,145,216,465,
0,486,659,143,213,460,
0,480,651,143,211,454,
0,475,641,142,209,449,
0,470,633,148,207,505,
0,464,624,147,206,499,
0,460,616,145,204,494,
0,455,607,144,202,488,
0,450,599,143,200,483,
0,446,623,142,204,478,
0,494,655,140,202,472,
0,487,645,140,199,467,
0,481,636,139,199,462,
0,476,627,137,197,467,
0,471,620,159,195,505,
0,465,611,158,194,499,
0,460,604,156,192,494,
0,455,593,155,191,487,
0,450,587,153,189,483,
0,446,685,152,198,478,
0,497,683,152,195,472,
0,489,673,150,194,467,
0,484,664,148,192,461,
0,479,654,147,191,517,
0,473,646,159,189,510,
0,468,637,159,188,504,
0,463,627,157,187,498,
0,458,618,156,184,492,
0,454,611,155,184,487,
0,449,669,153,227,482,
0,502,659,152,225,476,
0,494,649,151,224,472,
0,488,639,150,222,465,
0,483,632,166,220,496,
0,478,624,165,217,490,
0,472,615,163,216,484,
0,467,606,162,214,479,
0,462,598,161,212,473,
0,457,591,159,211,469,
0,452,654,158,209,463,
0,503,644,157,208,459,
0,495,636,156,207,454,
0,489,627,156,205,448,
0,483,619,173,204,494,
0,478,610,171,201,487,
0,472,603,169,199,482,
0,467,592,167,199,476,
0,463,585,167,196,472,
0,457,579,166,196,467,
0,467,648,163,195,462,
0,500,639,163,194,455,
0,492,631,161,193,451,
0,487,622,159,191,446,
0,481,614,171,190,483,
0,476,606,169,188,477,
0,471,598,167,187,472,
0,466,588,167,185,467,
0,460,581,165,184,461,
0,455,577,163,190,456,
0,486,573,162,188,451,
0,482,566,161,187,447,
0,476,560,159,185,443,
0,470,552,158,184,441,
0,465,547,171,183,481,
0,460,540,169,182,476,
0,455,535,167,179,471,
0,450,527,167,179,465,
0,446,521,166,177,460,
0,441,615,164,201,455,
0,486,633,162,199,451,
0,480,624,161,198,446,
0,473,615,159,196,441,
0,467,608,158,195,503,
0,463,600,161,193,499,
0,457,591,159,192,493,
0,452,584,159,190,487,
0,448,575,158,188,482,
0,443,568,156,187,477,
0,440,649,155,199,472,
0,486,639,153,198,467,
0,480,631,152,196,462,
0,473,623,151,195,456,
0,468,614,158,193,504,
0,463,606,158,192,497,
0,457,598,156,190,492,
0,454,591,155,188,486,
0,448,582,154,187,481,
0,444,574,152,188,476,
0,440,660,152,198,471,
0,495,649,150,196,465,
0,489,639,149,195,460,
0,482,632,147,192,455,
0,477,624,172,191,492,
0,472,615,171,190,486,
0,466,607,169,188,480,
0,461,600,167,187,475,
0,455,590,166,184,470,
0,451,583,165,200,465,
0,452,647,163,199,460,
0,487,638,162,199,455,
0,480,629,161,197,451,
0,473,620,159,195,446,
0,468,612,175,193,492,
0,463,604,173,192,487,
0,458,596,171,191,481,
0,454,589,169,189,476,
0,448,579,167,187,471,
0,444,656,167,194,465,
0,487,756,166,192,460,
0,489,743,164,191,455,
0,483,733,163,189,451,
0,476,722,161,188,446,
0,472,711,160,186,503,
0,466,701,159,184,497,
0,461,691,158,183,492,
0,455,682,156,182,486,
0,451,671,156,180,480,
0,447,733,154,197,476,
0,492,721,153,195,470,
0,486,710,152,193,465,
0,480,700,151,192,460,
0,474,689,149,190,455,
0,468,679,152,188,460,
0,463,671,151,187,455,
0,459,662,149,185,450,
0,454,653,147,184,446,
0,449,643,147,183,441,
0,444,673,145,201,437,
0,479,664,144,199,432,
0,473,654,143,199,428,
0,467,644,143,196,424,
0,461,636,157,195,480,
0,455,628,161,193,475,
0,451,620,159,192,469,
0,447,612,158,191,463,
0,441,605,157,189,459,
0,438,595,156,188,454,
0,433,780,154,202,449,
0,491,768,152,200,444,
0,484,755,152,199,440,
0,479,743,151,198,435,
0,472,732,165,195,486,
0,467,721,163,194,480,
0,462,711,162,193,475,
0,457,702,160,191,468,
0,452,691,159,190,463,
0,448,679,158,199,459,
0,454,743,157,198,454,
0,492,731,156,196,449,
0,487,719,154,194,444,
0,481,710,153,193,440,
0,475,700,160,191,490,
0,470,689,159,190,484,
0,464,679,158,188,479,
0,460,671,156,187,473,
0,455,662,156,185,468,
0,450,659,154,199,463,
0,478,671,152,198,458,
0,472,662,152,196,454,
0,467,652,151,195,449,
0,462,643,149,192,444,
0,455,636,156,192,487,
0,451,627,154,190,481,
0,446,620,153,188,476,
0,441,612,152,187,471,
0,436,605,151,185,465,
0,432,652,150,198,461,
0,472,641,148,195,455,
0,467,632,147,193,451,
0,461,624,146,192,447,
0,455,615,145,191,441,
0,449,608,151,189,483,
0,445,600,150,188,477,
0,440,591,147,186,472,
0,435,585,147,184,467,
0,432,579,145,184,461,
0,428,636,144,195,456,
0,496,627,143,194,451,
0,489,617,142,192,448,
0,484,609,141,191,443,
0,478,601,140,190,491,
0,472,593,158,188,501,
0,467,586,156,186,495,
0,462,579,155,184,489,
0,457,572,153,184,484,
0,451,565,152,182,480,
0,448,576,151,207,473,
0,487,568,150,206,468,
0,483,561,148,204,463,
0,477,555,147,203,459,
0,470,548,147,200,513,
0,465,543,147,199,505,
0,460,536,146,198,499,
0,455,531,145,195,494,
0,450,525,143,195,487,
0,445,519,143,193,483,
0,441,591,142,199,478,
0,464,583,140,198,472,
0,460,575,140,196,467,
0,455,568,138,195,463,
0,448,560,150,193,512,
0,444,553,147,192,504,
0,439,547,147,190,498,
0,434,540,145,189,492,
0,430,534,144,188,487,
0,425,527,143,188,481,
0,463,600,142,188,476,
0,459,592,141,186,472,
0,453,584,140,184,467,
0,448,577,139,184,462,
0,442,569,163,182,520,
0,438,563,161,180,513,
0,433,556,159,179,507,
0,428,549,159,177,501,
0,423,542,158,176,496,
0,420,558,156,199,490,
0,469,614,155,196,484,
0,463,606,153,194,480,
0,458,598,152,192,475,
0,453,590,152,191,470,
0,447,582,159,190,464,
0,442,575,158,188,459,
0,438,568,156,187,454,
0,433,560,155,184,449,
0,428,554,153,184,444,
0,424,624,152,192,440,
0,467,615,151,189,435,
0,462,606,150,187,432,
0,456,599,148,185,428,
0,451,591,147,184,467,
0,445,583,166,183,477,
0,440,575,164,182,470,
0,435,568,163,179,465,
0,432,561,161,179,460,
0,427,555,159,177,455,
0,423,647,159,203,450,
0,476,636,158,199,446,
0,471,627,156,199,441,
0,465,620,155,196,436,
0,460,611,153,195,492,
0,454,603,153,193,485,
0,449,595,152,192,478,
0,444,588,150,191,472,
0,440,580,149,189,467,
0,435,573,147,188,463,
0,436,625,147,196,457,
0,469,617,145,195,452,
0,463,608,144,193,448,
0,459,600,143,192,443,
0,454,593,147,190,502,
0,448,585,147,188,496,
0,443,577,144,187,487,
0,438,571,143,185,483,
0,433,563,143,184,478,
0,429,557,142,197,472,
0,469,560,140,199,467,
0,463,553,140,197,463,
0,459,547,138,195,457,
0,454,540,137,193,453,
0,449,535,152,192,506,
0,443,528,151,191,499,
0,438,523,149,189,492,
0,433,516,147,188,487,
0,429,511,146,186,482,
0,424,529,145,199,477,
0,482,600,143,198,472,
0,476,592,143,195,467,
0,471,584,142,193,462,
0,465,577,141,192,456,
0,460,569,158,191,499,
0,454,563,156,189,494,
0,449,556,155,188,487,
0,444,549,153,186,481,
0,440,543,152,184,476,
0,435,604,151,195,471,
0,456,596,150,193,465,
0,451,589,148,192,461,
0,447,582,147,190,455,
0,441,574,147,188,499,
0,436,567,167,187,497,
0,431,560,164,185,492,
0,427,552,163,184,484,
0,423,546,161,182,480,
0,418,540,160,180,474,
0,415,679,159,188,468,
0,483,669,158,187,463,
0,476,659,156,184,459,
0,472,651,155,184,454,
0,465,641,159,182,486,
0,460,632,179,180,480,
0,454,624,177,179,474,
0,449,615,176,177,467,
0,444,608,175,176,462,
0,440,600,174,175,457,
0,435,593,172,191,452,
0,455,583,171,189,448,
0,451,577,169,188,444,
0,446,570,167,185,439,
0,441,563,179,184,504,
0,436,556,176,183,497,
0,431,550,175,181,492,
0,426,543,173,179,485,
0,422,537,172,178,480,
0,418,531,171,188,475,
0,476,679,169,189,470,
0,484,667,167,187,463,
0,480,657,166,185,459,
0,473,647,165,184,455,
0,468,639,183,183,504,
0,463,632,180,181,497,
0,456,623,178,179,492,
0,451,615,177,178,484,
0,448,607,175,176,480,
0,443,604,174,192,475,
0,491,660,172,190,469,
0,484,648,171,188,463,
0,480,639,169,186,459,
0,473,631,167,185,455,
0,468,623,172,184,501,
0,463,615,170,182,495,
0,457,607,167,180,489,
0,452,599,167,179,483,
0,448,591,166,177,478,
0,443,660,164,183,472,
0,489,675,163,181,467,
0,483,663,161,179,462,
0,478,654,160,178,457,
0,472,644,159,177,504,
0,467,636,180,175,512,
0,462,627,179,174,505,
0,455,619,176,172,499,
0,451,611,175,172,492,
0,446,604,174,170,487,
0,441,686,172,187,482,
0,473,675,171,184,476,
0,467,664,169,183,472,
0,462,654,167,182,467,
0,457,645,167,179,526,
0,452,636,171,178,519,
0,448,627,169,177,512,
0,441,620,167,176,505,
0,436,611,166,174,499,
0,432,604,165,173,495,
0,430,740,163,190,488,
0,483,728,162,188,483,
0,478,714,161,185,479,
0,472,704,159,184,473,
0,467,694,175,183,511,
0,462,684,172,181,505,
0,456,675,171,179,499,
0,451,665,169,178,492,
0,446,656,167,177,487,
0,441,647,167,183,481,
0,471,675,165,191,476,
0,475,665,163,189,472,
0,470,654,163,188,466,
0,463,645,161,185,462,
0,460,636,169,184,500,
0,454,628,167,183,495,
0,449,620,167,181,489,
0,444,612,165,179,483,
0,439,605,163,179,477,
0,434,615,162,192,472,
0,470,711,161,190,467,
0,463,701,159,188,462,
0,459,688,158,187,457,
0,454,679,157,184,452,
0,448,669,177,184,508,
0,444,659,176,182,502,
0,440,651,174,180,496,
0,433,643,172,179,488,
0,428,633,171,177,483,
0,425,703,169,194,478,
0,491,719,167,192,472,
0,484,708,167,190,467,
0,479,696,166,188,463,
0,473,686,164,187,497,
0,468,676,166,185,498,
0,463,667,164,184,492,
0,457,657,163,183,487,
0,451,649,161,181,480,
0,448,639,159,179,475,
0,443,735,159,192,470,
0,481,723,158,190,464,
0,476,711,156,188,460,
0,471,699,155,186,455,
0,465,688,155,184,500,
0,460,679,166,183,494,
0,455,670,164,182,487,
0,449,660,163,180,483,
0,444,652,161,179,476,
0,440,643,159,177,471,
0,435,685,159,187,465,
0,472,675,157,185,461,
0,467,665,156,184,455,
0,461,654,155,182,451,
0,455,646,173,180,504,
0,451,636,171,179,497,
0,446,628,169,177,492,
0,440,620,167,176,486,
0,435,612,166,175,480,
0,432,605,165,187,475,
0,489,657,163,191,469,
0,497,647,161,189,463,
0,492,639,161,188,460,
0,486,628,159,185,455,
0,481,620,179,184,510,
0,476,611,177,183,504,
0,471,604,176,181,497,
0,463,596,174,179,492,
0,459,589,172,179,486,
0,455,591,171,187,480,
0,493,657,169,185,475,
0,487,647,167,184,470,
0,481,639,167,182,464,
0,476,627,166,180,460,
0,471,620,180,179,504,
0,465,611,179,177,498,
0,460,604,177,176,492,
0,454,595,176,174,487,
0,449,588,174,173,480,
0,445,643,172,197,476,
0,494,643,171,195,470,
0,487,633,169,193,465,
0,482,623,167,192,460,
0,477,615,167,190,455,
0,472,607,188,188,451,
0,466,599,185,187,446,
0,461,591,184,185,442,
0,455,583,183,184,438,
0,450,576,180,182,432,
0,446,652,179,190,428,
0,486,643,177,188,423,
0,480,633,176,187,420,
0,475,623,175,185,416,
0,470,615,174,184,476,
0,464,607,184,182,470,
0,460,598,184,181,465,
0,454,591,182,179,460,
0,448,583,180,177,455,
0,444,575,178,176,449,
0,442,626,176,188,444,
0,481,617,175,185,440,
0,476,608,174,184,435,
0,470,599,172,183,431,
0,465,591,177,181,478,
0,460,583,176,179,472,
0,455,575,175,178,467,
0,450,568,173,177,462,
0,444,562,172,176,456,
0,440,556,170,193,451,
0,484,639,167,196,446,
0,484,631,167,195,441,
0,480,622,166,193,436,
0,473,611,164,192,432,
0,469,604,174,189,483,
0,463,595,172,188,478,
0,459,588,171,187,472,
0,454,580,169,184,467,
0,448,573,167,184,462,
0,443,582,166,207,455,
0,494,654,164,207,451,
0,487,644,163,206,447,
0,481,635,162,204,442,
0,476,624,161,202,438,
0,472,615,167,199,494,
0,466,608,167,199,487,
0,461,600,165,196,482,
0,455,592,163,195,476,
0,449,585,162,193,472,
0,446,657,161,211,465,
0,514,697,159,209,460,
0,508,687,158,207,455,
0,502,677,157,206,451,
0,496,664,156,204,482,
0,491,655,155,202,508,
0,485,647,153,199,503,
0,480,638,152,199,496,
0,474,630,152,197,491,
0,468,622,150,195,486,
0,463,664,148,206,480,
0,499,654,147,204,474,
0,494,643,147,202,469,
0,487,636,145,200,463,
0,483,624,144,199,523,
0,478,616,152,197,515,
0,472,608,152,195,510,
0,467,600,150,193,504,
0,462,593,148,192,498,
0,455,585,147,191,492,
0,455,617,146,199,486,
0,496,608,145,196,480,
0,490,600,143,195,476,
0,484,592,143,193,470,
0,480,583,147,192,522,
0,473,575,145,190,515,
0,468,568,144,188,510,
0,463,562,143,187,504,
0,459,556,142,185,497,
0,452,550,140,190,492,
0,462,638,139,193,486,
0,463,629,138,191,480,
0,457,620,137,190,476,
0,452,611,136,188,470,
0,448,602,155,186,465,
0,444,594,153,185,460,
0,439,587,152,184,455,
0,434,579,151,182,451,
0,430,572,149,180,446,
0,424,572,147,188,442,
0,500,643,147,187,436,
0,494,633,145,185,432,
0,487,624,143,184,428,
0,482,615,143,182,423,
0,477,606,159,180,491,
0,472,598,157,179,485,
0,467,590,156,177,480,
0,462,583,154,176,474,
0,456,575,152,175,469,
0,451,631,152,188,463,
0,495,639,150,186,457,
0,488,631,148,184,453,
0,483,622,147,184,448,
0,478,614,146,182,467,
0,472,604,159,179,487,
0,467,595,158,179,481,
0,462,588,156,177,476,
0,457,580,156,176,471,
0,452,574,154,174,466,
0,447,710,152,185,460,
0,491,697,152,184,455,
0,484,687,150,182,450,
0,479,677,148,180,445,
0,473,668,147,179,498,
0,468,655,167,177,492,
0,463,647,166,176,486,
0,457,639,164,175,480,
0,453,630,163,173,475,
0,448,622,161,172,470,
0,463,748,159,195,463,
0,504,736,159,194,459,
0,497,724,157,192,454,
0,492,713,156,191,449,
0,486,704,155,190,508,
0,480,691,153,188,502,
0,476,681,152,185,496,
0,470,671,151,184,491,
0,465,663,150,183,485,
0,460,654,148,188,480,
0,487,732,147,189,473,
0,498,719,146,188,468,
0,492,710,145,186,463,
0,487,699,143,184,458,
0,481,689,156,184,508,
0,476,676,154,182,502,
0,471,668,153,180,496,
0,466,659,152,179,491,
0,460,649,151,177,485,
0,455,652,150,193,480,
0,500,750,147,191,473,
0,494,738,146,189,468,
0,487,727,145,188,463,
0,483,716,143,186,459,
0,478,706,172,184,503,
0,472,694,169,183,496,
0,467,684,167,182,491,
0,462,675,167,180,486,
0,457,665,166,179,480,
0,452,710,164,193,475,
0,499,719,162,192,468,
0,492,709,161,190,463,
0,487,699,159,188,459,
0,481,688,159,187,487,
0,476,679,175,185,500,
0,471,668,174,183,495,
0,465,659,172,182,489,
0,460,649,171,180,483,
0,455,641,169,179,479,
0,450,707,167,196,473,
0,495,696,167,195,467,
0,489,686,165,193,462,
0,483,675,164,191,457,
0,479,666,163,190,526,
0,473,657,161,188,519,
0,467,647,160,186,512,
0,463,638,159,184,507,
0,458,630,158,184,501,
0,453,622,156,182,496,
0,451,790,156,192,489,
0,505,775,153,190,483,
0,499,764,152,189,478,
0,494,752,152,187,472,
0,487,740,152,185,531,
0,483,729,151,184,524,
0,477,716,150,182,519,
0,472,707,148,180,512,
0,467,696,147,179,507,
0,462,688,146,187,502,
0,480,809,145,192,496,
0,494,795,143,190,488,
0,487,782,143,188,483,
0,483,770,141,187,479,
0,477,759,141,185,501,
0,472,748,140,184,495,
0,466,734,139,182,489,
0,462,723,137,180,483,
0,456,713,136,179,479,
0,451,704,135,211,473,
0,481,696,135,209,468,
0,476,686,134,207,463,
0,471,676,133,206,457,
0,465,668,131,204,453,
0,460,659,151,202,483,
0,455,651,150,199,478,
0,450,639,148,199,472,
0,445,632,147,197,467,
0,440,624,145,195,462,
0,436,649,144,200,457,
0,487,639,143,199,452,
0,480,631,142,197,447,
0,475,622,140,195,443,
0,470,614,140,194,470,
0,464,607,159,192,515,
0,460,598,158,191,508,
0,455,591,156,189,503,
0,449,583,155,188,497,
0,445,577,153,186,492,
0,440,728,152,200,487,
0,489,746,152,199,481,
0,483,735,150,198,475,
0,478,723,148,195,470,
0,472,713,147,194,521,
0,467,703,167,192,515,
0,462,691,167,191,508,
0,457,681,164,189,503,
0,452,671,163,188,497,
0,448,663,162,186,492,
0,443,700,161,195,487,
0,463,689,159,194,481,
0,458,679,158,192,475,
0,453,670,156,191,470,
0,448,661,158,189,473,
0,443,652,156,188,468,
0,439,641,155,186,463,
0,434,633,153,184,458,
0,430,625,152,183,454,
0,425,617,152,185,449,
0,422,671,151,192,444,
0,483,662,149,190,440,
0,478,652,147,188,435,
0,472,643,147,187,431,
0,467,635,151,185,496,
0,462,626,150,184,489,
0,457,615,148,183,483,
0,452,608,147,180,479,
0,448,600,145,179,473,
0,443,594,144,201,468,
0,472,689,143,199,463,
0,489,679,142,199,458,
0,483,670,141,196,452,
0,478,659,140,195,448,
0,473,651,178,193,504,
0,467,642,176,192,498,
0,462,632,174,190,492,
0,457,623,173,188,487,
0,452,615,171,187,481,
0,448,664,170,193,476,
0,508,673,168,192,471,
0,500,664,167,190,466,
0,495,655,166,188,460,
0,488,646,164,187,485,
0,483,637,164,185,514,
0,478,628,163,184,508,
0,472,617,162,183,502,
0,467,610,160,180,496,
0,463,602,159,179,491,
0,458,687,158,207,486,
0,499,675,157,206,480,
0,492,666,156,204,476,
0,486,657,154,203,469,
0,480,647,153,200,514,
0,475,639,161,199,508,
0,470,630,159,198,502,
0,464,620,159,196,496,
0,460,611,157,194,489,
0,455,604,156,192,485,
0,450,659,155,199,480,
0,462,649,153,197,474,
0,455,639,152,195,469,
0,451,632,151,193,463,
0,446,623,177,192,519,
0,441,614,176,191,512,
0,436,607,174,189,505,
0,432,596,172,188,500,
0,428,590,171,185,495,
0,423,583,169,185,489,
0,420,686,167,192,484,
0,496,675,167,190,479,
0,489,664,172,188,473,
0,483,655,171,187,467,
0,479,647,170,185,512,
0,473,638,167,184,506,
0,467,629,167,183,500,
0,463,619,166,180,495,
0,457,611,164,179,489,
0,452,603,163,198,483,
0,476,665,161,195,479,
0,487,655,160,195,473,
0,480,647,159,192,468,
0,474,637,157,191,462,
0,469,628,161,190,465,
0,463,620,160,188,460,
0,459,612,159,187,455,
0,454,602,158,184,451,
0,449,595,156,184,447,
0,444,655,155,193,443,
0,499,684,153,191,438,
0,492,673,152,189,433,
0,484,664,152,188,428,
0,480,655,150,186,451,
0,474,646,156,184,481,
0,468,637,154,183,476,
0,463,628,152,182,471,
0,459,619,152,179,465,
0,454,611,151,179,460,
0,449,678,149,199,455,
0,487,667,147,199,451,
0,482,657,147,197,446,
0,475,648,145,195,440,
0,470,639,144,193,504,
0,464,632,150,192,496,
0,460,623,149,191,490,
0,455,615,147,189,484,
0,449,604,147,187,480,
0,445,597,145,185,474,
0,440,603,144,196,468,
0,480,595,143,195,463,
0,473,588,142,193,459,
0,467,580,140,192,452,
0,462,574,167,190,477,
0,457,567,164,188,472,
0,452,560,163,187,466,
0,448,554,162,185,461,
0,443,547,160,184,455,
0,438,540,159,184,451,
0,433,642,158,185,447,
0,467,632,156,184,441,
0,463,624,155,183,438,
0,455,615,153,181,432,
0,451,608,153,179,483,
0,446,600,152,179,477,
0,441,591,151,177,472,
0,436,583,150,176,466,
0,432,575,148,174,461,
0,428,568,147,184,455,
0,448,627,145,184,451,
0,486,619,145,182,447,
0,480,610,143,180,442,
0,473,602,142,179,436,
0,468,595,156,177,496,
0,463,587,153,176,489,
0,458,579,153,175,483,
0,454,572,152,174,479,
0,448,563,150,172,473,
0,444,557,149,192,468,
0,468,551,147,190,463,
0,463,543,147,188,458,
0,457,537,145,187,453,
0,451,531,143,185,469,
0,446,526,148,184,499,
0,441,520,147,183,494,
0,436,515,146,180,487,
0,432,510,145,179,483,
0,428,503,143,177,478,
0,423,568,143,184,472,
0,467,559,142,182,467,
0,462,551,140,180,462,
0,455,545,140,179,457,
0,451,538,138,177,451,
0,446,531,164,176,447,
0,440,525,163,175,443,
0,436,519,161,173,438,
0,432,513,159,172,433,
0,428,505,158,171,429,
0,423,622,157,211,425,
0,480,612,156,209,421,
0,473,604,155,207,417,
0,467,595,153,206,414,
0,462,588,186,204,462,
0,456,580,189,202,456,
0,451,574,187,200,451,
0,448,567,185,199,446,
0,443,559,184,198,441,
0,438,551,182,196,438,
0,433,585,180,204,432,
0,491,577,179,203,428,
0,485,569,177,201,423,
0,478,563,176,199,419,
0,472,556,175,198,477,
0,467,548,174,196,472,
0,462,542,172,194,465,
0,457,536,171,193,460,
0,452,527,169,192,455,
0,448,522,167,199,451,
0,448,550,167,197,446,
0,467,542,166,195,441,
0,461,536,164,193,436,
0,455,528,163,192,432,
0,450,523,177,191,492,
0,444,516,175,189,486,
0,440,511,174,188,480,
0,435,505,172,185,475,
0,432,499,171,184,470,
0,427,600,169,199,465,
0,480,664,167,198,460,
0,474,655,167,196,455,
0,469,646,166,195,450,
0,462,636,164,192,446,
0,457,628,176,192,440,
0,452,620,174,190,435,
0,448,611,172,188,431,
0,443,604,171,187,427,
0,438,595,169,185,423,
0,433,778,167,184,419,
0,474,796,167,183,415,
0,468,783,166,181,411,
0,463,771,163,179,408,
0,455,760,163,178,415,
0,451,748,163,177,469,
0,447,737,161,176,463,
0,441,727,160,174,459,
0,438,716,159,173,454,
0,433,704,158,172,448,
0,428,828,157,184,444,
0,486,813,156,183,440,
0,480,799,155,182,435,
0,475,787,153,179,430,
0,467,775,152,179,481,
0,463,764,157,177,481,
0,457,752,156,176,476,
0,452,742,155,175,470,
0,448,731,153,173,465,
0,444,718,152,172,460,
0,439,709,151,187,455,
0,480,699,150,185,450,
0,475,689,148,184,446,
0,470,679,147,183,441,
0,463,671,150,181,504,
0,457,663,150,179,496,
0,452,654,148,178,489,
0,448,646,147,177,484,
0,443,638,146,175,479,
0,439,627,145,177,473,
0,438,620,143,199,468,
0,465,612,143,198,463,
0,460,606,142,195,459,
0,455,598,140,194,454,
0,449,591,153,192,517,
0,444,583,152,191,509,
0,440,577,151,189,503,
0,435,571,150,188,497,
0,430,564,148,187,492,
0,426,599,147,195,487,
0,471,621,146,196,481,
0,464,612,145,195,476,
0,459,604,144,193,471,
0,454,596,143,192,466,
0,448,588,142,190,511,
0,443,581,141,188,504,
0,438,574,140,187,498,
0,433,567,139,185,492,
0,429,560,137,184,487,
0,425,639,136,199,482,
0,473,630,135,199,476,
0,467,621,135,196,472,
0,462,613,134,195,467,
0,457,604,132,193,465,
0,451,596,131,192,515,
0,446,589,131,190,507,
0,441,582,129,188,501,
0,436,575,129,187,496,
0,432,568,127,185,491,
0,428,755,127,202,485,
0,472,744,126,199,480,
0,467,733,125,198,475,
0,462,722,124,196,470,
0,455,711,124,195,505,
0,450,701,143,193,503,
0,445,691,142,192,495,
0,440,681,140,190,489,
0,435,672,140,188,484,
0,432,664,138,187,480,
0,428,755,137,195,473,
0,464,742,135,194,468,
0,459,731,135,193,463,
0,454,719,134,191,459,
0,449,710,143,190,504,
0,443,700,154,188,497,
0,438,689,152,187,489,
0,433,679,152,185,484,
0,429,671,150,184,480,
0,424,678,149,184,475,
0,455,864,147,199,468,
0,488,848,147,197,463,
0,483,834,145,195,459,
0,478,820,144,193,454,
0,472,807,143,192,507,
0,465,796,142,191,500,
0,460,783,140,189,493,
0,455,771,140,188,487,
0,451,760,138,186,482,
0,446,749,137,205,477,
0,466,736,135,203,472,
0,460,726,135,200,467,
0,455,716,134,199,462,
0,450,705,134,198,456,
0,446,696,135,195,489,
0,440,687,134,195,483,
0,435,678,132,192,476,
0,431,669,131,192,472,
0,426,660,131,190,467,
0,422,678,129,209,462,
0,472,719,128,207,455,
0,465,707,127,205,451,
0,460,697,127,203,448,
0,455,688,126,201,443,
0,450,678,150,199,491,
0,444,668,148,198,483,
0,440,659,147,196,478,
0,435,651,146,195,472,
0,431,679,145,193,467,
0,426,893,143,202,462,
0,531,908,142,199,457,
0,524,905,141,198,452,
0,518,883,140,196,448,
0,512,867,139,195,472,
0,506,854,162,193,473,
0,499,839,160,192,467,
0,494,827,159,190,462,
0,488,814,158,189,456,
0,483,801,156,188,452,
0,479,862,155,198,448,
0,476,843,153,195,442,
0,471,828,152,193,438,
0,465,815,152,192,433,
0,460,803,162,191,504,
0,455,790,167,189,498,
0,450,779,166,188,491,
0,446,768,164,186,486,
0,441,756,163,184,480,
0,436,745,162,184,475,
0,463,744,161,199,470,
0,496,731,159,196,464,
0,491,720,158,195,460,
0,485,711,162,193,455,
0,480,702,161,192,507,
0,474,692,159,191,500,
0,467,683,158,189,494,
0,463,674,156,188,487,
0,457,665,155,185,482,
0,453,657,154,202,477,
0,510,652,153,202,472,
0,504,641,152,199,467,
0,497,633,151,198,462,
0,492,625,149,196,457,
0,487,619,200,195,520,
0,481,611,198,193,514,
0,475,604,196,192,507,
0,470,597,194,190,501,
0,464,590,192,188,496,
0,460,588,191,190,490,
0,465,593,190,188,484,
0,460,583,188,185,480,
0,455,577,187,184,474,
0,451,571,185,183,469,
0,446,564,184,182,522,
0,440,558,182,180,516,
0,435,551,180,179,508,
0,432,546,179,177,503,
0,428,540,177,176,497,
0,423,641,176,192,492,
0,474,639,175,191,487,
0,468,627,173,188,481,
0,463,619,172,187,476,
0,457,611,171,185,524,
0,453,603,179,184,528,
0,447,595,176,183,523,
0,443,588,175,181,515,
0,438,580,174,179,508,
0,433,573,172,178,504,
0,429,710,171,190,497,
0,478,697,169,188,492,
0,472,684,167,187,487,
0,467,675,172,184,481,
0,462,665,171,184,527,
0,455,655,169,182,520,
0,450,647,167,180,515,
0,446,638,167,179,508,
0,440,630,165,177,502,
0,436,622,163,176,496,
0,439,657,163,199,491,
0,471,647,161,198,485,
0,465,637,159,195,480,
0,460,627,159,194,475,
0,455,620,182,193,519,
0,450,611,179,191,512,
0,444,604,178,190,507,
0,440,596,176,188,499,
0,435,589,175,187,494,
0,430,583,174,203,488,
0,486,639,172,202,483,
0,483,631,171,199,478,
0,478,620,169,199,473,
0,472,611,167,196,467,
0,467,604,167,195,512,
0,462,595,165,193,505,
0,455,588,163,192,499,
0,451,580,162,190,492,
0,446,574,161,189,487,
0,441,641,159,207,482,
0,513,728,159,206,476,
0,507,713,157,204,472,
0,501,704,156,202,467,
0,495,693,155,199,462,
0,489,683,155,199,518,
0,484,673,153,197,511,
0,478,664,152,195,505,
0,472,655,151,193,498,
0,467,647,150,192,492,
0,463,680,149,199,487,
0,460,670,147,198,481,
0,455,657,147,196,476,
0,451,648,145,194,472,
0,446,639,144,193,509,
0,441,632,162,192,513,
0,436,624,160,190,507,
0,432,615,159,188,501,
0,428,608,157,187,494,
0,423,600,156,185,488,
0,419,688,155,207,483,
0,458,677,153,206,478,
0,452,664,152,204,472,
0,448,655,151,201,467,
0,443,647,151,199,463,
0,438,638,155,198,459,
0,433,630,153,196,454,
0,428,621,152,195,449,
0,423,613,150,193,444,
0,419,605,149,192,440,
0,435,692,147,216,435,
0,473,681,147,214,431,
0,467,669,145,212,427,
0,462,659,145,210,423,
0,457,651,158,208,481,
0,452,641,156,207,476,
0,448,633,155,205,470,
0,441,625,153,204,464,
0,437,616,152,201,459,
0,432,609,151,203,454,
0,483,716,150,201,449,
0,481,705,148,199,444,
0,476,692,147,198,440,
0,471,683,146,195,435,
0,465,673,150,194,481,
0,460,664,148,193,476,
0,455,655,147,192,471,
0,449,646,145,190,465,
0,444,637,144,188,459,
0,440,645,143,196,454,
0,487,704,142,194,449,
0,480,694,141,193,444,
0,475,680,140,191,440,
0,470,671,139,189,435,
0,464,662,159,188,497,
0,459,652,158,186,492,
0,455,644,157,184,486,
0,448,636,155,184,480,
0,444,627,153,182,473,
0,440,691,152,204,468,
0,499,691,152,201,463,
0,492,681,150,199,459,
0,487,669,149,199,454,
0,481,659,147,196,497,
0,476,651,156,195,497,
0,471,642,155,193,492,
0,465,633,153,192,486,
0,459,625,152,190,481,
0,455,617,151,189,475,
0,449,609,150,201,469,
0,510,601,148,199,463,
0,504,595,147,198,459,
0,497,585,146,196,455,
0,492,579,147,195,500,
0,487,572,155,193,494,
0,481,565,153,192,487,
0,476,559,152,190,483,
0,470,551,150,188,478,
0,464,546,150,187,472,
0,460,655,147,191,465,
0,490,644,147,189,461,
0,484,636,149,188,455,
0,479,625,147,185,451,
0,473,617,158,184,488,
0,468,608,156,183,483,
0,463,600,155,182,477,
0,459,593,153,179,472,
0,452,585,152,179,467,
0,448,579,151,193,460,
0,471,639,150,204,455,
0,468,630,148,202,451,
0,463,621,148,200,446,
0,458,610,147,199,441,
0,454,602,151,197,492,
0,448,595,150,195,486,
0,444,587,148,193,481,
0,440,579,147,192,476,
0,433,572,145,191,470,
0,430,599,144,203,463,
0,482,686,143,201,459,
0,476,676,142,199,454,
0,471,667,141,198,449,
0,465,655,140,195,446,
0,460,646,153,194,510,
0,455,637,152,192,504,
0,450,628,151,191,498,
0,446,620,150,190,492,
0,440,612,147,188,486,
0,435,689,147,207,480,
0,493,705,145,206,475,
0,487,695,144,204,470,
0,481,684,143,202,465,
0,476,671,142,199,488,
0,471,664,155,199,496,
0,465,654,153,197,491,
0,460,645,152,195,486,
0,455,636,152,194,480,
0,449,628,150,192,473,
0,445,691,148,199,468,
0,504,679,147,198,463,
0,497,670,145,195,458,
0,492,660,144,194,454,
0,486,649,143,192,503,
0,480,639,147,191,496,
0,476,632,147,189,490,
0,470,624,145,188,484,
0,465,615,143,186,480,
0,459,608,143,184,472,
0,475,623,142,192,467,
0,519,613,140,190,463,
0,513,605,139,189,457,
0,508,598,138,187,452,
0,502,588,146,185,504,
0,496,581,145,184,497,
0,490,574,143,182,492,
0,485,568,142,181,486,
0,480,560,141,179,481,
0,473,555,140,194,474,
0,480,630,139,195,469,
0,479,620,137,193,463,
0,473,612,137,192,459,
0,467,604,135,190,455,
0,463,594,135,188,524,
0,457,587,134,187,517,
0,454,579,132,185,511,
0,448,572,131,184,505,
0,444,565,131,182,499,
0,439,576,130,193,493,
0,485,654,128,191,487,
0,479,644,127,190,481,
0,473,636,127,188,476,
0,468,627,126,187,472,
0,463,615,127,184,510,
0,457,608,126,184,504,
0,453,600,125,182,498,
0,448,592,124,180,492,
0,443,585,123,179,487,
0,438,608,122,187,480,
0,527,598,121,185,476,
0,519,590,120,184,471,
0,513,583,120,182,465,
0,508,575,119,180,500,
0,502,567,147,179,508,
0,496,560,146,177,502,
0,491,552,144,176,496,
0,486,547,143,175,491,
0,479,540,143,174,485,
0,474,675,140,190,479,
0,494,664,140,188,473,
0,488,654,139,187,467,
0,483,644,137,185,463,
0,478,636,137,184,508,
0,472,625,156,182,502,
0,467,616,155,180,496,
0,462,608,153,179,490,
0,457,601,152,177,484,
0,451,593,151,176,480,
0,450,676,149,198,473,
0,491,666,148,195,467,
0,485,656,147,194,463,
0,480,647,145,192,457,
0,474,639,171,191,513,
0,468,628,167,189,507,
0,463,620,167,187,500,
0,459,611,166,185,495,
0,454,604,163,184,489,
0,448,596,163,188,484,
0,478,716,161,188,478,
0,476,705,159,185,472,
0,471,695,158,184,467,
0,465,685,157,183,463,
0,460,675,156,182,507,
0,455,664,155,179,500,
0,450,654,153,178,495,
0,445,646,152,177,489,
0,441,637,151,176,483,
0,435,629,150,199,479,
0,518,621,148,196,472,
0,511,613,147,195,467,
0,504,606,146,193,462,
0,499,598,145,192,457,
0,494,589,169,190,511,
0,487,582,167,188,505,
0,483,575,167,187,499,
0,478,568,164,185,494,
0,472,561,163,184,487,
0,466,632,162,195,483,
0,473,648,160,193,476,
0,468,639,159,192,472,
0,463,631,164,190,466,
0,458,622,163,188,499,
0,454,611,164,187,511,
0,448,604,163,184,505,
0,444,595,162,184,499,
0,440,588,161,182,494,
0,435,580,159,180,487,
0,430,683,158,201,483,
0,474,671,156,199,476,
0,468,662,155,198,472,
0,463,652,153,196,466,
0,457,643,152,195,461,
0,452,632,156,193,455,
0,448,624,155,191,451,
0,443,615,153,190,448,
0,439,608,152,188,443,
0,434,600,152,187,439,
0,432,750,150,197,434,
0,491,737,148,195,429,
0,485,726,147,193,425,
0,480,715,146,192,421,
0,474,704,184,190,476,
0,469,692,184,188,471,
0,463,683,182,187,465,
0,459,673,180,185,460,
0,454,664,179,184,455,
0,449,655,177,193,451,
0,492,780,175,199,446,
0,504,767,174,197,440,
0,498,755,172,195,435,
0,492,743,171,193,432,
0,487,732,169,192,476,
0,481,719,168,190,471,
0,476,708,167,188,465,
0,472,699,166,187,460,
0,466,689,164,185,455,
0,462,679,163,206,451,
0,495,671,161,204,446,
0,487,662,161,202,440,
0,483,654,159,199,435,
0,478,645,158,199,431,
0,472,637,176,198,480,
0,467,627,174,195,473,
0,462,619,172,193,468,
0,456,611,171,192,463,
0,451,604,169,191,458,
0,448,659,167,193,454,
0,481,656,166,192,448,
0,476,647,165,190,443,
0,470,639,163,188,439,
0,464,630,163,188,473,
0,460,621,179,185,496,
0,455,611,178,184,489,
0,449,603,176,183,484,
0,445,595,175,181,479,
0,440,588,174,179,473,
0,436,709,172,191,468,
0,449,697,170,189,463,
0,444,687,169,188,457,
0,440,677,167,185,452,
0,435,668,167,184,515,
0,431,658,175,183,508,
0,427,647,174,180,502,
0,423,638,172,179,496,
0,419,630,171,178,491,
0,415,622,169,177,486,
0,411,688,167,193,480,
0,471,678,166,192,475,
0,465,668,165,190,469,
0,460,659,163,189,463,
0,455,649,167,187,480,
0,449,639,167,185,473,
0,444,630,165,184,468,
0,440,622,163,183,463,
0,435,614,163,181,458,
0,431,659,161,191,454,
0,432,811,159,196,449,
0,502,797,158,194,444,
0,496,783,157,192,439,
0,490,772,156,191,435,
0,484,760,161,190,491,
0,480,749,160,188,485,
0,474,735,159,186,480,
0,468,725,158,184,474,
0,463,714,156,184,469,
0,459,704,156,198,463,
0,462,734,154,195,459,
0,484,723,152,194,453,
0,480,711,152,192,448,
0,473,702,150,191,444,
0,468,692,155,190,504,
0,463,683,153,188,497,
0,459,671,152,185,492,
0,454,663,151,184,487,
0,449,654,150,183,481,
0,444,647,148,190,476,
0,511,638,147,188,471,
0,503,630,146,187,463,
0,497,623,145,184,460,
0,492,615,143,184,484,
0,486,608,185,182,504,
0,480,600,184,180,497,
0,475,591,182,179,492,
0,470,583,181,177,487,
0,464,577,179,176,481,
0,460,652,177,199,476,
0,491,641,176,198,471,
0,483,632,174,196,464,
0,479,624,173,195,460,
0,473,615,172,193,506,
0,468,608,172,192,499,
0,463,600,170,190,494,
0,457,590,168,188,487,
0,453,583,167,187,483,
0,448,575,166,185,478,
0,444,664,165,195,472,
0,483,654,163,193,467,
0,475,645,162,192,461,
0,470,636,160,190,455,
0,464,627,159,188,506,
0,460,619,158,187,499,
0,455,611,157,185,494,
0,449,601,156,184,488,
0,445,593,155,182,483,
0,440,585,153,184,478,
0,436,655,152,188,472,
0,476,646,151,185,467,
0,469,636,159,184,462,
0,463,627,158,183,456,
0,459,620,158,182,480,
0,454,611,157,180,474,
0,449,604,156,179,468,
0,444,593,155,177,463,
0,440,586,153,176,459,
0,435,579,152,206,454,
0,441,611,151,204,449,
0,462,602,150,203,444,
0,455,594,147,200,440,
0,449,587,147,199,435,
0,445,579,180,198,484,
0,440,572,178,195,479,
0,435,566,177,194,473,
0,431,557,175,192,468,
0,427,551,174,191,463,
0,423,606,172,198,459,
0,495,624,171,195,453,
0,487,615,169,194,448,
0,481,607,167,192,443,
0,476,599,166,191,472,
0,471,591,166,189,492,
0,465,583,165,188,487,
0,460,575,163,186,481,
0,455,568,162,184,476,
0,451,560,161,183,471,
0,446,675,159,207,466,
0,503,664,159,204,460,
0,494,655,158,203,455,
0,488,646,156,201,449,
0,483,636,155,199,504,
0,478,628,182,198,498,
0,472,620,179,196,492,
0,467,611,178,195,487,
0,463,601,176,192,481,
0,457,593,175,191,476,
0,452,647,174,206,471,
0,468,636,172,204,465,
0,462,627,171,203,460,
0,457,620,169,201,455,
0,451,611,167,199,508,
0,448,603,166,198,501,
0,443,595,165,196,495,
0,438,588,163,195,489,
0,433,579,162,192,484,
0,429,572,161,192,479,
0,425,617,159,196,473,
0,467,608,159,194,468,
0,460,600,158,193,463,
0,455,592,159,191,457,
0,449,585,159,190,508,
0,444,577,157,188,502,
0,440,570,156,187,496,
0,435,563,155,185,490,
0,431,555,153,184,485,
0,427,566,152,194,480,
0,423,687,152,192,475,
0,429,676,150,191,469,
0,423,667,149,189,464,
0,419,657,148,188,458,
0,415,648,155,185,511,
0,412,639,153,184,505,
0,408,632,152,183,499,
0,403,621,151,182,494,
0,399,613,150,179,487,
0,396,684,148,191,483,
0,476,716,147,189,478,
0,471,705,147,187,472,
0,463,695,147,185,467,
0,458,684,145,184,462,
0,454,675,145,183,456,
0,448,665,144,181,451,
0,444,656,143,179,448,
0,439,646,143,178,443,
0,434,637,141,177,439,
0,430,682,140,176,434,
0,427,671,140,176,430,
0,423,662,138,174,425,
0,417,652,137,172,422,
0,414,643,135,172,417,
0,409,635,164,171,413,
0,406,627,163,169,409,
0,401,619,161,167,406,
0,398,608,159,167,402,
0,395,601,159,166,399,
0,391,646,158,200,395,
0,477,636,156,199,391,
0,471,627,155,197,388,
0,463,619,153,195,385,
0,459,611,161,194,438,
0,454,603,159,192,432,
0,449,595,158,191,428,
0,444,588,156,189,423,
0,440,579,155,188,419,
0,435,572,154,188,415,
0,431,652,152,202,411,
0,475,641,152,199,407,
0,469,632,150,199,403,
0,463,624,148,197,399,
0,457,615,147,195,457,
0,452,608,146,193,451,
0,448,600,145,192,448,
0,443,591,143,191,442,
0,438,583,143,189,438,
0,433,587,142,207,433,
0,465,688,140,204,428,
0,498,678,140,203,423,
0,492,668,139,201,419,
0,486,659,137,199,415,
0,480,650,179,198,475,
0,474,639,178,196,470,
0,470,632,176,195,463,
0,464,624,175,193,459,
0,459,614,173,192,454,
0,455,664,172,192,449,
0,487,736,170,191,444,
0,481,724,168,189,440,
0,476,713,167,188,435,
0,468,704,166,186,431,
0,463,694,164,185,476,
0,459,684,163,184,470,
0,453,674,161,182,464,
0,449,665,160,180,460,
0,444,654,159,179,455,
0,440,752,158,199,449,
0,474,739,157,198,444,
0,468,728,156,196,440,
0,463,716,155,195,435,
0,455,706,153,193,444,
0,451,696,159,192,480,
0,447,686,158,190,475,
0,441,676,156,188,470,
0,437,668,155,187,464,
0,433,655,153,185,460,
0,429,681,152,192,455,
0,477,671,152,191,449,
0,472,662,150,189,445,
0,466,653,149,188,440,
0,460,644,162,186,502,
0,455,636,160,184,492,
0,449,627,159,183,487,
0,444,620,157,182,481,
0,440,612,156,180,476,
0,435,603,155,184,472,
0,432,689,153,195,466,
0,499,678,152,192,461,
0,493,668,152,191,455,
0,487,659,150,190,451,
0,480,650,148,188,512,
0,475,641,147,187,504,
0,470,632,146,184,498,
0,464,624,145,184,492,
0,460,615,143,182,487,
0,455,606,143,195,481,
0,457,666,142,194,476,
0,487,656,140,192,472,
0,481,647,140,191,467,
0,476,639,139,188,462,
0,470,631,156,187,506,
0,464,622,155,185,500,
0,460,614,153,184,495,
0,455,606,152,183,488,
0,450,598,151,182,483,
0,445,630,150,201,479,
0,512,639,148,199,473,
0,505,630,147,198,467,
0,499,622,147,195,463,
0,493,613,146,194,458,
0,486,605,155,192,516,
0,481,597,153,191,510,
0,476,590,152,189,504,
0,471,583,151,188,499,
0,465,575,150,186,493,
0,461,649,148,207,487,
0,481,639,147,205,483,
0,476,631,146,203,477,
0,470,622,145,201,472,
0,464,614,143,199,484,
0,459,605,172,198,514,
0,454,598,170,196,508,
0,449,590,168,195,502,
0,444,583,167,193,496,
0,440,575,166,192,491,
0,435,572,164,199,486,
0,496,565,163,199,480,
0,489,559,162,197,475,
0,483,551,199,195,470,
0,479,546,198,193,504,
0,472,540,195,192,496,
0,467,534,193,191,491,
0,462,528,192,189,485,
0,456,523,190,188,480,
0,451,518,189,186,475,
0,448,555,188,192,470,
0,497,547,185,190,464,
0,491,540,184,188,460,
0,486,534,183,187,455,
0,480,527,191,185,500,
0,473,520,188,184,493,
0,468,515,187,182,487,
0,463,509,185,180,482,
0,459,504,184,179,476,
0,454,499,182,179,472,
0,454,543,180,188,466,
0,481,537,179,187,461,
0,476,531,177,185,456,
0,470,524,176,184,451,
0,465,518,175,182,504,
0,458,512,174,180,496,
0,454,505,172,179,491,
0,448,500,171,177,484,
0,444,495,169,176,480,
0,440,490,167,190,475,
0,481,612,167,190,470,
0,475,604,166,188,463,
0,469,596,164,186,460,
0,463,588,163,185,455,
0,457,580,169,184,521,
0,452,573,167,182,513,
0,448,566,166,180,508,
0,443,560,164,179,502,
0,439,552,163,177,496,
0,435,597,162,207,491,
0,488,648,160,204,486,
0,482,639,159,203,480,
0,477,631,158,200,475,
0,472,622,157,199,470,
0,464,614,166,198,511,
0,460,606,164,195,504,
0,455,598,163,194,497,
0,450,591,161,192,492,
0,445,583,159,191,487,
0,440,671,159,199,481,
0,485,675,158,198,476,
0,479,666,156,195,471,
0,473,656,155,194,465,
0,468,647,154,193,476,
0,462,639,169,191,470,
0,457,631,167,190,463,
0,452,622,167,188,458,
0,448,614,165,187,454,
0,443,606,163,185,449,
0,438,609,163,204,444,
0,484,600,161,201,440,
0,479,591,159,199,435,
0,473,584,159,199,432,
0,468,578,161,196,494,
0,462,571,163,195,487,
0,456,563,161,193,480,
0,451,558,159,192,475,
0,447,551,159,191,470,
0,442,544,158,189,464,
0,444,625,156,206,460,
0,470,614,155,203,455,
0,463,606,153,201,450,
0,459,598,152,199,445,
0,454,590,179,198,491,
0,448,583,176,196,485,
0,443,575,175,195,478,
0,438,568,173,193,473,
0,433,561,172,192,467,
0,430,555,171,199,463,
0,485,663,168,198,457,
0,479,653,167,195,452,
0,473,644,166,195,448,
0,468,635,164,193,444,
0,463,627,166,191,492,
0,455,618,164,190,487,
0,451,610,163,188,480,
0,447,603,161,187,475,
0,441,595,159,185,470,
0,438,615,159,192,464,
0,502,661,158,190,459,
0,496,652,156,188,455,
0,490,643,155,186,449,
0,484,633,154,185,445,
0,479,625,161,184,441,
0,472,617,159,182,437,
0,467,609,158,180,432,
0,462,601,156,179,428,
0,457,593,156,177,423,
0,452,632,154,195,419,
0,472,620,152,193,415,
0,467,612,152,192,412,
0,462,604,151,190,408,
0,456,595,150,189,459,
0,451,588,191,187,460,
0,446,581,189,185,455,
0,441,574,187,184,448,
0,436,567,185,183,444,
0,432,560,184,181,440,
0,428,721,182,204,435,
0,503,713,180,203,430,
0,496,703,179,200,425,
0,491,692,177,199,422,
0,485,683,176,197,480,
0,480,673,175,195,475,
0,473,664,173,194,468,
0,467,655,172,192,462,
0,463,647,171,191,457,
0,458,638,169,190,452,
0,462,716,167,211,448,
0,493,701,166,208,443,
0,487,691,165,206,439,
0,482,681,163,204,433,
0,476,671,163,203,487,
0,472,662,161,201,482,
0,465,654,160,199,477,
0,460,644,159,198,470,
0,455,636,158,196,465,
0,450,628,156,201,460,
0,487,620,155,199,455,
0,483,610,154,198,450,
0,478,603,153,196,446,
0,472,595,152,195,441,
0,467,588,155,193,492,
0,462,581,153,192,487,
0,455,574,152,190,481,
0,451,568,151,188,475,
0,447,561,150,187,470,
0,441,572,148,194,464,
0,495,620,147,192,460,
0,487,609,147,191,455,
0,483,600,145,188,450,
0,477,593,144,187,445,
0,472,585,143,185,496,
0,467,577,142,184,490,
0,460,571,141,183,484,
0,455,563,140,182,478,
0,451,556,139,179,472,
0,446,685,137,192,467,
0,524,752,137,190,462,
0,518,737,135,188,457,
0,512,726,135,186,452,
0,505,716,134,184,496,
0,499,705,139,184,500,
0,495,695,137,182,494,
0,487,686,135,180,488,
0,482,675,135,179,482,
0,477,667,134,177,477,
0,472,721,132,184,472,
0,484,710,131,183,466,
0,479,697,131,180,462,
0,473,687,131,179,456,
0,468,678,131,178,491,
0,463,668,137,176,484,
0,459,659,136,175,480,
0,452,650,135,174,473,
0,448,641,134,172,467,
0,444,633,133,172,463,
0,444,768,131,190,457,
0,483,755,131,188,452,
0,477,740,135,187,448,
0,472,729,135,185,444,
0,466,719,135,184,496,
0,461,708,134,182,491,
0,455,699,132,180,484,
0,450,689,131,179,478,
0,446,679,130,177,472,
0,441,711,129,204,467,
0,526,896,127,204,463,
0,550,896,127,201,457,
0,543,873,126,199,452,
0,536,859,125,198,448,
0,530,845,159,195,496,
0,524,831,157,195,490,
0,518,818,156,193,484,
0,511,806,154,192,478,
0,505,793,153,190,472,
0,499,792,152,195,467,
0,524,902,151,193,462,
0,518,908,149,192,457,
0,511,892,151,190,452,
0,505,873,150,188,451,
0,499,859,148,187,507,
0,494,845,147,185,501,
0,488,831,146,184,496,
0,483,818,144,183,487,
0,477,806,143,181,483,
0,472,892,142,198,478,
0,521,888,141,195,472,
0,515,871,140,194,467,
0,509,854,163,192,463,
0,504,839,162,191,517,
0,497,826,172,189,519,
0,492,813,171,188,512,
0,487,801,169,185,506,
0,480,788,167,184,499,
0,475,777,166,183,494,
0,470,766,165,204,487,
0,465,755,163,201,483,
0,460,744,162,199,478,
0,455,732,165,198,473,
0,451,722,176,196,515,
0,447,711,193,195,509,
0,443,702,192,193,503,
0,438,694,190,192,497,
0,432,686,188,190,490,
0,428,676,186,188,485,
0,441,777,185,191,480,
0,499,764,184,189,474,
0,493,752,182,188,470,
0,487,738,180,185,464,
0,482,728,179,184,510,
0,476,716,177,183,504,
0,472,707,176,182,497,
0,465,696,175,179,492,
0,460,687,173,179,485,
0,455,679,172,183,480,
0,508,875,171,183,475,
0,537,857,169,182,470,
0,531,843,171,179,465,
0,525,825,169,178,460,
0,519,812,184,176,512,
0,513,799,182,175,505,
0,508,787,180,174,499,
0,500,775,179,173,494,
0,495,764,177,172,487,
0,489,753,176,189,482,
0,484,743,174,187,476,
0,480,732,172,185,472,
0,475,722,171,184,467,
0,470,710,169,182,462,
0,464,700,168,180,511,
0,460,691,167,179,505,
0,455,681,166,177,499,
0,449,672,164,176,494,
0,445,664,163,175,487,
0,440,655,162,184,481,
0,436,647,160,183,476,
0,432,639,159,181,472,
0,428,632,211,179,466,
0,423,622,208,178,512,
0,419,615,207,176,511,
0,415,608,205,175,505,
0,412,600,203,174,499,
0,408,593,201,172,494,
0,403,587,199,171,487,
0,400,711,198,185,481,
0,409,699,195,184,476,
0,404,688,195,182,472,
0,400,679,215,180,465,
0,396,667,212,179,519,
0,393,657,211,177,512,
0,390,648,209,176,505,
0,387,639,207,175,499,
0,382,632,205,173,494,
0,379,624,203,172,487,
0,376,615,201,182,482,
0,380,608,199,180,477,
0,376,600,199,179,472,
0,373,592,196,177,467,
0,370,583,195,176,516,
0,367,577,194,174,510,
0,364,571,192,172,504,
0,361,564,191,172,499,
0,358,558,190,169,493,
0,355,551,188,172,487,
0,352,545,186,172,481,
0,349,540,184,171,476,
0,346,534,184,169,471,
0,344,527,182,167,465,
0,341,522,192,167,510,
0,338,516,191,166,504,
0,335,511,189,164,497,
0,333,506,188,163,492,
0,330,500,186,162,487,
0,327,521,184,178,480,
0,338,556,183,176,475,
0,335,549,182,175,470,
0,332,542,180,173,465,
0,327,534,179,172,460,
0,326,527,195,170,505,
0,323,521,192,168,499,
0,320,515,191,167,494,
0,319,508,189,166,488,
0,316,504,188,165,483,
0,313,536,185,184,476,
0,359,527,184,182,472,
0,355,520,183,180,467,
0,352,515,215,179,462,
0,348,507,212,177,499,
0,344,501,211,176,499,
0,342,496,209,174,494,
0,338,491,207,173,487,
0,335,486,206,172,483,
0,331,481,204,170,478,
0,327,499,201,173,472,
0,402,494,199,172,466,
0,397,487,199,171,461,
0,392,482,197,169,455,
0,389,476,217,167,502,
0,385,471,239,166,496,
0,381,466,236,165,490,
0,377,462,235,163,484,
0,374,472,232,163,480,
0,369,513,230,161,473,
0,367,541,228,192,467,
0,418,534,226,191,463,
0,414,527,251,189,457,
0,409,519,248,188,453,
0,405,512,246,185,494,
0,400,506,243,184,487,
0,396,500,241,182,482,
0,392,495,239,181,476,
0,389,489,237,179,472,
0,384,483,235,180,467,
0,384,715,233,179,460,
0,379,702,231,178,455,
0,376,691,229,177,450,
0,371,681,227,175,446,
0,368,670,246,174,483,
0,365,660,243,172,478,
0,361,652,241,171,472,
0,359,643,240,169,467,
0,355,634,238,167,462,
0,352,673,235,184,457,
0,472,798,233,182,451,
0,465,784,231,180,446,
0,460,772,230,179,441,
0,455,760,227,177,438,
0,449,746,225,176,494,
0,445,735,224,174,487,
0,440,724,222,173,483,
0,435,715,220,172,477,
0,431,704,219,170,472,
0,426,799,216,185,467,
0,494,891,215,184,460,
0,487,872,213,182,455,
0,481,858,211,180,451,
0,476,844,210,179,489,
0,472,827,208,177,497,
0,466,814,207,176,492,
0,461,801,206,174,486,
0,455,790,204,173,480,
0,451,777,202,172,476,
0,446,894,199,190,470,
0,488,907,199,188,463,
0,483,911,198,187,459,
0,478,915,196,185,454,
0,472,913,195,184,506,
0,467,884,193,182,499,
0,462,868,192,180,494,
0,457,855,191,179,487,
0,452,840,189,177,483,
0,448,828,188,176,478,
0,442,889,185,189,472,
0,480,905,184,188,465,
0,473,904,184,185,461,
0,468,883,182,184,455,
0,463,867,180,183,451,
0,458,849,179,181,447,
0,454,835,178,179,442,
0,448,823,177,178,438,
0,444,810,176,177,433,
0,440,799,174,184,430,
0,499,902,172,186,425,
0,517,908,172,184,420,
0,511,897,170,184,416,
0,505,876,168,182,412,
0,499,862,167,180,460,
0,494,844,167,178,455,
0,488,831,166,177,450,
0,483,817,164,176,445,
0,478,805,163,174,440,
0,472,793,162,188,435,
0,467,782,160,185,430,
0,462,770,159,184,425,
0,456,760,159,183,422,
0,452,748,158,181,417,
0,448,738,156,179,478,
0,443,726,155,177,472,
0,439,716,154,176,467,
0,434,707,153,175,462,
0,430,697,152,174,457,
0,426,688,151,182,452,
0,467,760,150,179,446,
0,462,748,148,178,441,
0,456,736,149,177,438,
0,451,725,148,176,467,
0,447,715,147,174,492,
0,441,702,145,172,486,
0,437,691,145,171,480,
0,432,683,143,169,475,
0,428,673,143,167,470,
0,423,665,142,191,465,
0,419,814,141,189,459,
0,415,800,177,188,454,
0,412,788,317,186,449,
0,408,775,312,184,499,
0,403,764,309,183,492,
0,399,750,306,182,487,
0,396,739,304,179,481,
0,393,728,300,178,476,
0,390,718,297,177,472,
0,386,707,295,190,465,
0,384,697,292,188,460,
0,380,883,290,187,455,
0,376,903,287,185,450,
0,373,888,285,184,527,
0,369,871,283,182,521,
0,367,853,280,180,515,
0,364,839,279,179,509,
0,359,825,275,177,504,
0,358,812,273,180,497,
0,408,801,271,184,492,
0,523,788,269,183,486,
0,516,777,267,181,480,
0,511,766,265,179,475,
0,504,755,263,178,540,
0,499,743,261,176,532,
0,493,731,259,175,526,
0,487,721,257,174,519,
0,483,711,255,172,514,
0,478,702,253,188,508,
0,519,692,251,187,503,
0,512,684,248,185,496,
0,505,675,247,184,491,
0,500,665,245,182,486,
0,495,658,301,180,529,
0,489,649,297,179,523,
0,483,639,295,177,516,
0,479,632,292,176,511,
0,473,624,289,175,504,
0,468,617,287,204,499,
0,463,649,285,201,494,
0,457,815,281,199,487,
0,454,801,280,199,482,
0,449,788,278,196,495,
0,444,775,275,195,521,
0,440,764,273,193,515,
0,435,750,271,192,509,
0,432,739,268,190,504,
0,428,728,266,188,498,
0,423,718,263,199,492,
0,419,708,262,198,487,
0,415,699,259,195,481,
0,411,689,257,194,476,
0,407,679,255,192,540,
0,403,671,254,191,533,
0,399,662,252,190,527,
0,396,651,249,188,520,
0,391,685,248,186,515,
0,390,871,246,184,509,
0,386,896,244,199,504,
0,527,907,242,196,497,
0,520,911,240,195,491,
0,515,915,239,193,486,
0,508,909,236,192,535,
0,503,883,235,190,527,
0,497,868,233,188,521,
0,492,850,231,187,515,
0,487,836,230,185,510,
0,481,859,228,185,504,
0,476,902,227,188,499,
0,470,892,225,187,493,
0,465,873,223,185,487,
0,460,859,221,184,481,
0,455,846,248,183,531,
0,451,831,244,182,524,
0,447,816,243,179,518,
0,442,803,240,178,512,
0,438,792,239,177,506,
0,433,828,236,178,500,
0,430,903,235,176,495,
0,436,910,232,175,489,
0,432,913,231,174,483,
0,428,911,243,172,478,
0,423,888,241,172,540,
0,419,871,239,169,532,
0,415,854,237,169,527,
0,412,840,235,167,520,
0,408,827,232,167,515,
0,404,903,231,191,509,
0,524,906,230,189,504,
0,515,889,227,188,497,
0,510,872,225,185,491,
0,504,858,310,184,505,
0,499,844,318,183,531,
0,493,831,313,181,524,
0,487,815,312,180,518,
0,483,802,308,177,512,
0,477,790,305,176,506,
0,472,827,303,185,501,
0,582,903,300,184,495,
0,598,908,297,183,489,
0,591,897,316,181,483,
0,583,877,313,179,534,
0,575,862,310,178,527,
0,569,847,307,176,520,
0,562,831,304,175,515,
0,556,817,302,174,508,
0,550,806,300,172,503,
0,543,793,297,191,497,
0,537,781,295,189,492,
0,530,770,291,188,487,
0,524,759,302,186,480,
0,519,748,299,184,480,
0,513,738,295,183,475,
0,508,728,294,182,470,
0,503,716,291,179,464,
0,497,706,288,178,460,
0,492,697,286,180,455,
0,487,888,284,190,451,
0,483,905,281,188,446,
0,476,911,280,187,441,
0,472,914,277,185,436,
0,467,911,275,184,492,
0,463,884,272,183,486,
0,458,869,271,181,480,
0,454,851,268,179,475,
0,449,838,266,178,470,
0,445,824,263,179,464,
0,478,903,263,179,460,
0,592,910,260,177,455,
0,583,913,257,176,450,
0,575,910,255,175,444,
0,569,886,254,173,498,
0,562,870,252,172,492,
0,556,856,250,171,487,
0,549,839,248,169,481,
0,543,896,247,167,476,
0,537,905,244,191,471,
0,531,911,243,189,465,
0,525,913,241,188,461,
0,518,899,239,185,455,
0,512,877,237,184,478,
0,508,863,236,183,513,
0,502,848,233,182,507,
0,496,835,231,180,500,
0,492,819,231,178,495,
0,487,806,228,177,489,
0,481,795,227,179,484,
0,477,783,225,177,479,
0,472,771,224,176,474,
0,466,760,222,175,469,
0,462,750,220,174,540,
0,457,739,219,172,531,
0,452,729,217,171,525,
0,448,719,216,169,519,
0,444,707,214,167,513,
0,440,698,212,167,508,
0,435,689,211,173,502,
0,432,679,210,172,496,
0,428,671,207,170,491,
0,423,664,307,168,486,
0,419,655,304,167,536,
0,415,647,300,166,529,
0,412,639,297,165,523,
0,408,632,295,163,516,
0,404,622,292,162,511,
0,401,614,290,163,505,
0,398,608,287,174,499,
0,394,654,285,172,494,
0,391,655,295,171,488,
0,387,646,291,169,483,
0,384,638,289,167,536,
0,380,628,287,167,529,
0,376,620,284,166,523,
0,374,612,281,164,516,
0,371,603,280,163,511,
0,368,596,278,176,505,
0,364,589,275,174,499,
0,361,582,273,172,494,
0,359,575,281,171,489,
0,355,569,279,169,483,
0,353,563,275,167,521,
0,350,557,273,167,515,
0,347,551,271,166,510,
0,344,545,269,164,504,
0,342,538,267,163,498,
0,339,532,265,174,493,
0,425,527,263,172,487,
0,436,521,260,171,482,
0,432,516,259,169,477,
0,425,511,255,167,472,
0,422,505,259,167,466,
0,417,500,257,166,461,
0,413,496,255,163,456,
0,409,515,253,163,451,
0,404,585,251,161,448,
0,401,579,249,182,444,
0,515,775,248,180,439,
0,520,763,245,178,435,
0,514,751,243,177,431,
0,507,739,241,176,476,
0,500,729,240,174,471,
0,495,718,238,173,465,
0,489,707,236,172,460,
0,484,806,234,170,455,
0,480,904,231,168,450,
0,475,907,231,172,445,
0,470,888,229,171,440,
0,464,871,227,169,436,
0,460,857,272,167,432,
0,454,844,270,167,484,
0,449,830,268,166,479,
0,445,817,265,164,472,
0,440,804,263,163,467,
0,436,792,260,162,463,
0,432,777,259,161,457,
0,428,803,255,171,453,
0,424,896,254,169,448,
0,420,880,252,167,444,
0,417,864,282,167,439,
0,412,850,279,166,495,
0,408,836,276,164,488,
0,404,823,273,163,483,
0,400,810,271,161,478,
0,397,798,269,160,472,
0,393,875,267,182,467,
0,390,904,263,180,462,
0,422,902,263,179,457,
0,416,881,260,177,452,
0,411,864,258,176,448,
0,408,851,255,174,512,
0,403,837,253,173,506,
0,399,824,251,172,500,
0,395,811,249,170,495,
0,391,799,248,169,489,
0,387,784,246,177,483,
0,423,772,243,176,479,
0,443,761,241,175,473,
0,438,751,240,173,468,
0,432,740,238,172,463,
0,427,729,236,170,509,
0,423,719,233,169,504,
0,418,711,231,167,497,
0,414,700,230,167,492,
0,409,691,228,165,487,
0,406,865,227,172,481,
0,402,848,225,171,476,
0,398,834,224,169,471,
0,394,820,222,167,465,
0,390,807,220,167,461,
0,386,795,302,166,511,
0,383,783,299,164,505,
0,379,771,295,163,499,
0,376,760,294,161,494,
0,372,748,291,160,487,
0,369,846,287,175,483,
0,388,831,286,173,478,
0,384,896,283,172,472,
0,380,905,281,171,467,
0,376,891,279,169,524,
0,371,873,275,167,536,
0,368,858,273,167,528,
0,365,844,271,165,523,
0,361,831,269,163,516,
0,359,818,267,163,511,
0,356,803,265,188,505,
0,372,790,263,187,499,
0,368,779,261,184,494,
0,364,768,259,184,488,
0,359,756,257,182,547,
0,356,745,254,180,539,
0,353,790,252,179,532,
0,351,777,250,177,526,
0,348,828,248,176,519,
0,345,905,247,175,515,
0,393,911,244,183,508,
0,497,915,243,181,504,
0,491,916,241,179,497,
0,485,913,239,177,492,
0,479,887,248,176,533,
0,473,871,246,175,524,
0,467,856,243,174,519,
0,463,843,241,172,512,
0,457,830,239,171,507,
0,454,814,238,184,502,
0,574,900,236,183,496,
0,568,903,233,181,491,
0,560,884,231,180,486,
0,553,868,231,178,480,
0,545,855,228,177,525,
0,539,840,227,176,517,
0,533,827,225,174,511,
0,527,814,224,173,505,
0,521,802,222,171,499,
0,515,787,220,193,494,
0,513,775,219,191,488,
0,508,764,217,189,483,
0,502,754,239,187,478,
0,496,743,236,185,473,
0,490,733,235,184,524,
0,485,723,231,183,516,
0,480,713,230,181,511,
0,475,704,228,179,504,
0,471,760,226,178,499,
0,466,903,224,190,494,
0,575,910,223,188,487,
0,567,911,220,185,483,
0,560,899,219,184,478,
0,553,877,217,183,496,
0,545,862,233,182,489,
0,539,848,231,179,483,
0,532,835,229,178,478,
0,527,891,227,177,472,
0,521,907,225,176,467,
0,515,913,224,188,463,
0,510,913,222,186,458,
0,504,896,220,184,454,
0,499,875,217,183,449,
0,494,861,216,182,499,
0,487,847,214,180,493,
0,483,833,212,179,486,
0,478,820,211,177,480,
0,472,807,209,176,475,
0,468,796,207,174,470,
0,463,782,207,189,465,
0,459,770,205,187,460,
0,455,760,204,185,455,
0,449,748,202,184,450,
0,446,738,200,182,504,
0,440,728,199,181,496,
0,435,718,198,179,490,
0,432,729,196,177,484,
0,428,719,195,176,479,
0,423,708,194,191,473,
0,422,697,192,193,468,
0,418,688,191,191,463,
0,414,679,190,189,459,
0,411,670,188,188,454,
0,408,662,187,187,502,
0,402,654,185,184,496,
0,399,646,184,184,488,
0,396,723,184,182,483,
0,391,896,182,180,478,
0,388,886,180,181,472,
0,385,865,179,179,467,
0,382,851,178,177,462,
0,379,837,177,176,457,
0,376,824,176,175,453,
0,372,811,175,174,506,
0,369,798,173,172,500,
0,366,786,172,171,493,
0,363,775,171,169,487,
0,359,764,169,168,483,
0,357,753,168,186,477,
0,429,739,167,184,472,
0,423,729,167,183,467,
0,419,719,172,181,462,
0,415,710,170,179,505,
0,411,700,230,177,508,
0,406,691,227,176,502,
0,401,681,225,175,495,
0,398,673,223,174,489,
0,393,664,221,172,484,
0,390,726,219,183,479,
0,472,711,217,181,473,
0,466,701,216,179,468,
0,461,691,294,178,463,
0,455,681,307,176,516,
0,451,671,326,175,510,
0,444,662,321,174,504,
0,440,654,318,172,497,
0,435,645,316,171,491,
0,431,638,312,169,486,
0,427,630,310,192,481,
0,448,627,307,191,476,
0,442,620,304,189,471,
0,438,612,302,187,465,
0,433,605,300,185,519,
0,428,598,297,184,513,
0,423,591,294,183,505,
0,419,583,291,182,499,
0,415,702,289,179,494,
0,411,691,287,201,487,
0,426,679,284,206,483,
0,422,668,282,204,478,
0,416,659,280,201,472,
0,412,649,278,199,467,
0,408,641,275,199,513,
0,404,632,273,197,507,
0,399,624,271,195,499,
0,396,615,269,194,494,
0,391,608,267,192,488,
0,388,601,264,196,483,
0,385,593,263,195,478,
0,382,584,260,193,472,
0,379,578,259,192,467,
0,375,572,281,190,463,
0,371,565,279,188,512,
0,368,559,276,187,506,
0,364,552,273,185,499,
0,361,547,271,184,493,
0,358,701,269,183,487,
0,355,691,267,190,483,
0,434,680,264,188,477,
0,428,668,263,187,472,
0,423,659,260,185,467,
0,419,649,258,184,496,
0,415,641,255,182,504,
0,411,632,254,180,497,
0,406,624,252,179,490,
0,401,616,249,177,484,
0,398,608,248,176,480,
0,394,751,247,179,475,
0,472,775,244,177,469,
0,466,760,299,176,464,
0,461,748,404,174,459,
0,455,737,399,173,504,
0,451,727,395,172,497,
0,446,716,391,171,492,
0,440,706,387,169,484,
0,435,696,383,167,480,
0,432,687,380,167,475,
0,428,678,376,190,469,
0,423,668,372,188,463,
0,419,657,369,187,460,
0,415,648,366,184,455,
0,411,641,363,184,482,
0,407,632,359,182,476,
0,402,624,356,180,471,
0,398,616,352,179,464,
0,394,609,350,177,460,
0,391,601,347,188,455,
0,389,595,344,188,450,
0,391,588,342,186,446,
0,387,803,338,184,440,
0,384,790,335,183,436,
0,380,777,333,181,487,
0,376,831,331,179,482,
0,371,848,327,179,477,
0,369,834,324,177,470,
0,366,820,322,176,465,
0,363,807,319,192,460,
0,402,795,317,190,455,
0,398,783,315,188,450,
0,393,768,333,187,446,
0,390,756,329,185,441,
0,385,745,327,184,489,
0,382,735,323,182,483,
0,376,724,319,180,478,
0,373,715,316,179,472,
0,369,704,314,177,466,
0,366,696,312,193,462,
0,486,887,309,192,455,
0,480,905,307,190,451,
0,473,904,304,188,447,
0,467,882,302,187,479,
0,463,867,300,185,496,
0,457,852,297,184,489,
0,451,839,295,182,484,
0,448,825,292,180,478,
0,443,812,291,179,472,
0,438,891,288,184,467,
0,545,906,287,182,462,
0,537,911,284,181,457,
0,531,915,282,179,452,
0,524,908,280,177,517,
0,519,881,278,176,510,
0,513,867,276,175,504,
0,505,852,274,174,498,
0,500,839,271,172,492,
0,495,825,270,171,487,
0,490,814,268,196,480,
0,484,801,265,194,475,
0,480,786,263,193,471,
0,475,775,262,191,465,
0,470,764,260,189,520,
0,465,753,259,188,513,
0,460,743,257,185,508,
0,455,732,255,184,502,
0,449,722,252,183,495,
0,446,712,251,185,489,
0,441,703,249,188,484,
0,436,694,248,186,479,
0,432,683,249,184,473,
0,428,673,247,183,468,
0,424,665,245,182,504,
0,420,656,243,180,499,
0,416,648,241,179,493,
0,412,639,240,177,487,
0,408,633,238,176,481,
0,405,716,236,188,476,
0,498,846,235,185,471,
0,492,831,233,184,465,
0,486,814,231,183,460,
0,480,801,230,181,455,
0,476,788,335,179,511,
0,470,776,332,178,504,
0,465,765,327,177,499,
0,459,753,325,176,493,
0,454,743,321,174,487,
0,449,895,319,188,481,
0,444,907,316,187,476,
0,440,908,313,185,471,
0,435,884,396,184,465,
0,432,868,391,182,460,
0,427,854,387,180,455,
0,423,840,384,179,451,
0,419,862,380,177,447,
0,415,847,376,176,443,
0,410,833,372,175,437,
0,407,820,369,180,432,
0,446,807,366,179,429,
0,440,795,363,177,424,
0,435,780,359,176,420,
0,431,769,356,174,497,
0,427,758,362,172,490,
0,422,748,359,171,484,
0,417,737,355,169,479,
0,412,727,352,168,473,
0,408,716,349,167,467,
0,404,707,345,176,462,
0,401,697,343,174,457,
0,397,688,340,172,452,
0,393,678,337,171,448,
0,390,670,335,169,524,
0,387,660,332,167,518,
0,384,652,329,167,511,
0,380,644,327,166,505,
0,376,748,323,164,499,
0,373,736,321,185,492,
0,369,726,318,192,487,
0,367,715,316,191,482,
0,364,704,313,189,477,
0,360,691,311,187,472,
0,358,683,308,185,484,
0,355,673,306,184,478,
0,352,664,304,182,472,
0,349,655,302,180,467,
0,345,646,299,179,463,
0,343,676,296,192,457,
0,479,892,294,190,451,
0,494,878,291,188,448,
0,487,863,289,187,443,
0,482,845,287,185,439,
0,477,831,286,184,498,
0,472,817,284,182,492,
0,466,805,281,180,487,
0,461,792,280,179,481,
0,455,883,276,177,476,
0,451,867,275,192,470,
0,492,903,272,191,464,
0,486,910,271,189,460,
0,480,913,268,188,455,
0,475,904,275,185,489,
0,470,880,361,184,518,
0,463,864,358,183,512,
0,459,851,354,181,505,
0,455,837,351,179,500,
0,448,831,347,178,495,
0,444,903,344,190,487,
0,440,910,340,188,483,
0,435,913,337,187,478,
0,431,916,335,184,472,
0,427,915,332,184,534,
0,423,889,329,182,526,
0,418,872,326,180,519,
0,415,900,323,179,513,
0,410,909,321,177,508,
0,406,910,318,176,502,
0,402,894,315,188,496,
0,399,874,312,187,490,
0,395,860,310,185,485,
0,391,846,307,184,480,
0,388,830,311,182,543,
0,385,817,307,180,536,
0,382,804,305,179,529,
0,378,792,302,177,524,
0,375,781,300,176,518,
0,371,769,297,184,511,
0,511,888,295,189,504,
0,571,888,292,188,499,
0,563,871,290,185,494,
0,556,856,288,184,487,
0,550,839,286,183,496,
0,543,825,284,180,490,
0,536,812,281,179,484,
0,531,799,280,178,480,
0,525,883,278,176,475,
0,518,905,275,184,468,
0,668,911,273,183,463,
0,696,914,271,181,459,
0,687,917,268,179,454,
0,678,918,267,178,449,
0,669,911,264,176,487,
0,659,882,263,175,482,
0,652,867,262,174,476,
0,643,853,259,172,472,
0,636,839,257,171,466,
0,625,827,255,184,460,
0,619,857,254,183,455,
0,611,842,252,181,451,
0,604,828,249,179,446,
0,598,816,248,178,462,
0,591,799,280,176,499,
0,583,788,276,175,494,
0,577,776,273,173,487,
0,571,765,271,172,483,
0,564,755,269,171,478,
0,557,835,266,188,472,
0,551,820,263,187,466,
0,545,807,262,185,462,
0,540,794,332,184,455,
0,534,782,328,183,516,
0,527,767,326,180,509,
0,523,755,323,179,504,
0,518,744,319,177,497,
0,512,876,317,176,492,
0,507,903,313,175,487,
0,500,895,311,190,480,
0,497,875,308,188,475,
0,492,860,305,187,470,
0,487,847,313,184,464,
0,483,833,311,184,520,
0,478,816,307,182,515,
0,473,803,305,180,508,
0,470,792,303,179,503,
0,464,780,300,177,496,
0,460,768,297,184,492,
0,455,758,295,192,484,
0,451,893,291,191,480,
0,447,882,289,188,474,
0,443,866,287,187,469,
0,439,852,285,185,518,
0,435,834,283,184,511,
0,431,850,280,182,505,
0,427,888,278,180,499,
0,423,871,276,179,494,
0,419,856,273,188,488,
0,422,843,271,187,481,
0,417,829,270,185,476,
0,413,816,268,184,472,
0,409,803,265,182,466,
0,406,792,263,180,529,
0,403,775,261,179,523,
0,399,764,259,177,516,
0,396,753,257,176,511,
0,391,743,255,174,505,
0,387,732,254,179,499,
0,385,723,251,178,492,
0,382,712,255,176,487,
0,379,704,254,175,482,
0,376,695,251,174,504,
0,372,683,249,172,533,
0,369,674,248,171,527,
0,367,665,246,169,520,
0,364,657,243,167,515,
0,361,649,242,167,508,
0,358,641,240,176,504,
0,417,633,239,175,496,
0,412,626,237,173,491,
0,408,619,236,172,486,
0,403,611,233,171,520,
0,399,604,231,169,513,
0,395,595,231,167,508,
0,391,588,229,166,502,
0,387,652,227,165,496,
0,384,647,226,163,491,
0,380,638,224,184,486,
0,376,630,223,183,479,
0,372,621,223,181,475,
0,369,612,225,179,469,
0,366,604,262,179,518,
0,362,595,273,176,512,
0,359,588,271,175,505,
0,356,580,269,174,500,
0,353,722,267,172,494,
0,351,718,263,174,489,
0,436,816,262,187,483,
0,473,803,259,185,477,
0,467,790,257,184,472,
0,462,777,255,182,467,
0,456,766,253,180,513,
0,451,752,251,179,508,
0,448,740,248,177,502,
0,443,729,247,176,496,
0,438,719,245,175,490,
0,433,787,243,179,485,
0,526,897,241,178,480,
0,524,882,238,176,473,
0,518,866,236,175,468,
0,512,851,235,174,463,
0,507,839,271,172,516,
0,500,821,269,171,510,
0,495,808,267,169,504,
0,489,796,263,167,498,
0,484,783,262,167,492,
0,479,772,260,193,487,
0,472,761,257,192,481,
0,467,750,255,190,476,
0,463,739,253,188,470,
0,458,729,251,187,465,
0,454,719,249,185,460,
0,448,707,247,184,455,
0,444,697,245,182,451,
0,440,688,243,180,447,
0,435,679,241,179,443,
0,432,851,239,182,438,
0,542,835,236,180,433,
0,534,821,235,179,428,
0,527,808,233,177,424,
0,521,796,287,176,478,
0,515,783,345,175,471,
0,510,768,341,174,465,
0,504,891,338,172,460,
0,499,904,335,170,455,
0,494,894,332,169,451,
0,487,875,328,188,446,
0,481,860,326,185,441,
0,477,846,322,184,435,
0,472,831,319,182,431,
0,467,819,317,181,487,
0,462,807,314,179,480,
0,457,792,312,178,475,
0,452,780,309,176,470,
0,448,768,307,175,464,
0,444,757,304,175,460,
0,440,747,302,185,455,
0,435,821,299,184,449,
0,430,807,295,183,444,
0,427,795,294,181,440,
0,423,782,291,180,495,
0,419,770,289,179,489,
0,415,755,287,177,483,
0,411,743,285,175,478,
0,408,734,283,174,472,
0,403,812,280,176,467,
0,424,798,279,175,463,
0,492,785,275,174,457,
0,487,772,273,172,451,
0,481,761,271,171,448,
0,476,750,270,169,515,
0,471,739,268,168,509,
0,465,726,265,167,504,
0,460,716,263,166,497,
0,455,705,262,164,492,
0,451,696,259,180,487,
0,447,687,257,178,481,
0,440,678,255,177,476,
0,436,670,254,176,470,
0,432,660,287,174,465,
0,428,653,285,172,496,
0,423,644,282,171,490,
0,419,635,280,169,484,
0,415,627,277,167,480,
0,412,620,275,167,474,
0,408,751,273,188,470,
0,513,869,271,185,463,
0,504,854,268,184,459,
0,499,839,265,183,452,
0,493,825,263,181,489,
0,487,812,261,179,487,
0,483,799,259,178,481,
0,477,783,257,176,476,
0,472,772,255,175,471,
0,467,761,253,174,465,
0,463,750,251,174,460,
0,457,739,249,173,455,
0,451,728,247,171,451,
0,448,719,245,169,445,
0,442,708,243,169,512,
0,438,699,241,167,505,
0,433,690,240,167,499,
0,430,679,238,164,494,
0,425,670,236,163,488,
0,421,661,235,164,483,
0,417,857,233,183,478,
0,554,894,231,180,472,
0,544,876,230,179,466,
0,538,860,227,177,462,
0,531,847,226,176,527,
0,526,831,224,175,520,
0,519,819,223,174,514,
0,513,803,222,172,508,
0,508,792,220,171,503,
0,503,780,218,183,497,
0,497,768,217,183,492,
0,580,756,216,180,486,
0,572,746,214,179,480,
0,564,736,212,177,475,
0,558,726,215,176,533,
0,551,715,213,175,526,
0,544,705,211,174,519,
0,539,694,209,172,514,
0,532,684,207,171,508,
0,527,675,207,178,503,
0,520,667,205,176,497,
0,515,659,204,175,492,
0,508,650,203,173,485,
0,503,642,203,172,489,
0,497,634,201,171,543,
0,492,626,199,169,536,
0,487,619,199,167,530,
0,483,609,198,167,524,
0,478,603,196,165,518,
0,472,595,195,177,512,
0,481,588,193,176,507,
0,476,582,192,174,500,
0,470,575,191,173,494,
0,464,569,190,172,515,
0,460,563,188,171,510,
0,455,556,187,169,504,
0,451,551,185,167,497,
0,447,543,184,166,492,
0,443,537,184,165,487,
0,439,532,183,179,482,
0,435,527,181,178,476,
0,430,521,179,176,472,
0,425,515,179,175,465,
0,422,511,177,174,526,
0,417,505,176,172,519,
0,414,500,176,171,513,
0,410,496,174,169,507,
0,407,489,173,167,502,
0,403,485,172,167,496,
0,399,684,171,180,491,
0,396,676,170,179,485,
0,391,667,169,177,480,
0,388,657,167,176,473,
0,385,647,166,174,523,
0,382,639,165,172,516,
0,379,631,164,172,510,
0,376,622,163,169,504,
0,372,612,162,167,499,
0,369,604,161,174,494,
0,413,752,159,172,487,
0,481,738,159,171,483,
0,474,728,177,169,478,
0,468,716,211,168,472,
0,463,707,233,167,509,
0,459,696,231,166,504,
0,454,686,229,164,497,
0,448,676,227,163,492,
0,444,665,225,162,487,
0,440,656,224,167,481,
0,510,647,221,167,476,
0,598,639,220,166,471,
0,588,632,273,164,465,
0,580,623,276,163,487,
0,574,615,273,161,533,
0,567,608,271,159,527,
0,560,600,268,159,520,
0,553,593,267,158,515,
0,547,688,263,156,508,
0,541,854,262,190,504,
0,620,839,259,188,497,
0,611,824,257,186,492,
0,601,812,255,184,487,
0,593,799,252,183,541,
0,587,786,251,182,536,
0,579,775,248,180,530,
0,572,763,247,179,524,
0,566,752,244,177,518,
0,560,738,243,176,512,
0,553,896,241,176,506,
0,547,891,239,174,500,
0,541,872,237,173,495,
0,534,858,235,172,489,
0,527,844,233,170,539,
0,522,830,231,169,532,
0,516,817,230,167,526,
0,511,804,227,166,519,
0,505,790,226,165,513,
0,500,777,224,163,508,
0,496,900,223,167,503,
0,563,908,221,167,496,
0,556,909,220,166,492,
0,547,889,217,164,486,
0,542,872,216,163,540,
0,536,857,214,162,533,
0,529,844,212,160,527,
0,523,831,211,159,520,
0,518,814,209,158,515,
0,511,802,207,158,509,
0,507,791,206,159,504,
0,519,779,205,159,498,
0,513,768,251,157,493,
0,505,756,327,156,487,
0,500,746,323,155,546,
0,495,736,319,153,540,
0,489,881,316,153,533,
0,485,871,313,152,527,
0,480,852,311,151,520,
0,476,894,307,180,515,
0,512,907,305,178,509,
0,506,911,303,176,504,
0,499,914,300,175,498,
0,493,907,297,173,492,
0,487,881,295,172,555,
0,482,866,292,171,548,
0,477,851,290,169,542,
0,472,839,287,167,536,
0,467,822,286,167,529,
0,463,809,284,182,524,
0,458,899,281,180,518,
0,454,908,279,179,511,
0,449,913,276,177,506,
0,444,915,274,176,500,
0,440,913,271,174,550,
0,436,887,270,173,543,
0,432,871,268,172,536,
0,428,857,265,170,531,
0,423,895,263,168,524,
0,420,881,262,167,519,
0,449,865,259,166,512,
0,444,851,257,165,508,
0,440,837,255,163,502,
0,433,824,254,163,541,
0,428,811,252,161,550,
0,423,799,249,159,543,
0,420,787,248,159,536,
0,415,775,246,158,531,
0,412,762,244,156,524,
0,408,752,242,159,519,
0,408,740,240,157,513,
0,403,731,239,156,508,
0,400,720,310,155,502,
0,396,711,305,153,556,
0,392,702,303,152,547,
0,390,692,300,152,540,
0,386,684,297,151,534,
0,384,675,295,150,527,
0,380,664,292,148,523,
0,388,884,289,149,516,
0,463,871,287,147,510,
0,459,856,285,147,504,
0,454,841,283,145,499,
0,448,828,280,145,546,
0,443,814,278,143,537,
0,438,801,275,143,531,
0,433,790,273,142,525,
0,429,777,271,141,519,
0,424,811,269,151,513,
0,420,902,267,149,508,
0,422,910,264,147,502,
0,417,912,263,146,496,
0,414,907,260,145,491,
0,408,882,259,143,545,
0,404,867,257,143,536,
0,400,852,255,142,530,
0,397,839,253,141,524,
0,393,825,251,140,519,
0,390,811,249,143,512,
0,386,798,248,141,507,
0,383,785,246,140,501,
0,379,775,243,139,496,
0,376,764,255,138,491,
0,372,752,364,137,543,
0,369,742,359,135,535,
0,366,732,356,135,527,
0,363,721,353,135,523,
0,359,711,350,134,516,
0,357,700,347,137,511,
0,364,691,344,135,504,
0,359,681,340,135,499,
0,356,673,337,135,494,
0,353,664,335,134,527,
0,350,655,331,132,550,
0,348,647,327,131,543,
0,344,639,326,131,536,
0,342,632,323,129,530,
0,339,630,319,129,524,
0,336,717,318,138,518,
0,491,705,315,136,512,
0,484,696,312,135,507,
0,479,686,310,135,501,
0,473,675,307,134,564,
0,467,666,304,132,556,
0,462,657,302,131,548,
0,455,647,300,131,542,
0,451,639,297,129,536,
0,447,632,295,128,530,
0,443,748,292,132,524,
0,493,736,291,131,518,
0,487,726,287,130,512,
0,481,715,291,129,507,
0,476,704,287,127,575,
0,470,694,285,127,566,
0,465,684,283,127,559,
0,460,675,280,126,552,
0,455,668,279,125,545,
0,450,659,276,126,540,
0,446,647,274,126,534,
0,441,639,272,125,527,
0,436,632,271,124,521,
0,432,624,268,124,516,
0,428,615,273,123,579,
0,423,608,271,121,570,
0,419,601,268,121,563,
0,415,595,265,120,556,
0,411,588,263,120,550,
0,407,582,263,127,543,
0,403,573,260,126,537,
0,399,567,259,125,531,
0,396,560,255,124,526,
0,391,623,255,123,519,
0,389,614,288,122,575,
0,384,606,285,121,568,
0,381,598,283,120,560,
0,377,590,280,120,553,
0,375,582,278,119,547,
0,371,575,275,136,541,
0,373,620,273,135,535,
0,369,612,271,134,529,
0,366,604,268,132,523,
0,363,595,267,131,553,
0,359,588,263,131,590,
0,355,580,262,129,580,
0,353,573,259,128,573,
0,350,566,257,127,567,
0,347,559,255,127,560,
0,344,553,254,129,553,
0,419,717,252,127,547,
0,414,706,249,127,541,
0,409,696,248,126,535,
0,404,686,246,125,593,
0,399,675,244,124,585,
0,396,667,242,123,575,
0,391,679,240,123,569,
0,387,871,239,121,562,
0,384,856,237,120,556,
0,387,876,235,127,550,
0,441,856,233,126,543,
0,435,841,231,125,536,
0,432,828,231,124,531,
0,427,816,236,123,595,
0,421,802,235,122,588,
0,417,790,231,121,578,
0,412,777,230,120,571,
0,408,767,228,120,564,
0,404,888,227,120,558,
0,531,907,225,125,551,
0,542,912,224,124,545,
0,535,914,222,123,540,
0,528,907,275,121,532,
0,523,882,359,120,585,
0,515,866,406,120,577,
0,510,852,399,119,568,
0,504,839,396,118,562,
0,498,825,391,117,556,
0,493,843,388,116,549,
0,487,899,384,115,543,
0,483,878,381,115,536,
0,478,863,377,114,531,
0,472,848,375,113,525,
0,468,835,371,112,590,
0,462,821,368,112,582,
0,457,808,364,111,573,
0,452,796,359,111,566,
0,448,784,358,110,560,
0,444,797,355,111,553,
0,477,840,352,110,547,
0,472,823,348,108,540,
0,466,809,345,108,535,
0,461,797,344,107,550,
0,455,783,340,107,590,
0,449,772,337,105,583,
0,445,761,334,105,574,
0,440,751,332,103,568,
0,436,740,328,103,560,
0,432,730,327,113,553,
0,486,718,323,112,547,
0,480,708,321,112,543,
0,475,699,409,110,536,
0,470,690,404,110,614,
0,463,681,400,108,603,
0,457,671,396,108,595,
0,453,664,391,107,587,
0,448,764,388,106,579,
0,444,877,384,105,572,
0,440,862,381,105,566,
0,435,843,377,104,560,
0,431,829,374,103,553,
0,427,816,371,103,547,
0,422,803,368,102,616,
0,418,791,364,102,608,
0,414,779,361,101,600,
0,409,768,358,100,591,
0,406,756,355,99,585,
0,403,745,352,99,579,
0,399,735,348,103,571,
0,396,724,345,102,564,
0,391,715,343,102,558,
0,388,705,340,100,551,
0,385,696,337,99,620,
0,382,686,335,99,611,
0,379,677,332,98,604,
0,376,668,329,98,596,
0,372,659,327,97,591,
0,369,652,324,96,584,
0,366,643,321,102,577,
0,363,636,319,102,569,
0,359,628,316,100,563,
0,356,620,314,99,556,
0,354,614,378,99,624,
0,352,606,372,98,617,
0,348,600,369,97,610,
0,345,591,366,96,603,
0,343,585,363,96,595,
0,340,579,359,96,588,
0,338,801,357,97,581,
0,444,803,353,97,574,
0,438,790,350,96,568,
0,433,777,347,96,561,
0,428,765,344,95,636,
0,423,753,341,94,625,
0,419,745,338,94,617,
0,415,734,335,93,609,
0,411,723,332,92,602,
0,407,713,329,92,595,
0,403,835,327,92,590,
0,472,899,324,92,583,
0,466,882,322,91,575,
0,462,867,319,91,569,
0,456,852,317,89,563,
0,451,838,315,89,627,
0,447,825,312,89,619,
0,442,812,310,88,611,
0,438,799,307,88,603,
0,433,787,305,88,595,
0,429,809,303,99,588,
0,424,861,300,98,582,
0,420,846,298,97,575,
0,415,831,295,96,568,
0,412,818,294,96,563,
0,408,806,291,95,632,
0,404,792,289,94,624,
0,401,780,287,94,615,
0,398,886,286,92,609,
0,393,906,284,92,601,
0,391,911,281,97,594,
0,387,914,280,96,587,
0,384,907,278,96,579,
0,380,881,275,95,574,
0,376,870,273,94,567,
0,374,856,271,94,632,
0,369,842,270,93,624,
0,367,828,268,92,615,
0,364,816,266,91,611,
0,359,803,263,91,603,
0,357,792,263,89,595,
0,355,780,261,95,588,
0,352,768,259,94,582,
0,350,758,257,93,575,
0,347,748,352,92,568,
0,344,736,369,92,633,
0,340,727,415,91,624,
0,337,716,411,90,615,
0,335,710,407,89,608,
0,332,700,403,88,600,
0,329,691,399,88,593,
0,327,681,396,106,587,
0,364,673,391,105,579,
0,359,782,388,103,572,
0,356,766,384,103,567,
0,352,755,381,103,645,
0,349,743,377,101,635,
0,345,732,375,100,627,
0,343,721,371,99,619,
0,339,711,368,99,611,
0,335,700,365,98,604,
0,333,691,362,102,597,
0,482,681,359,101,589,
0,478,671,355,100,583,
0,472,664,352,99,575,
0,465,655,350,99,633,
0,462,647,347,97,631,
0,456,639,344,97,622,
0,452,632,342,96,615,
0,448,825,339,96,607,
0,443,897,335,95,600,
0,438,880,333,99,591,
0,433,864,331,99,585,
0,430,853,327,98,579,
0,425,839,326,97,572,
0,421,825,323,97,613,
0,417,812,319,96,627,
0,413,799,318,95,619,
0,408,788,316,94,611,
0,405,900,313,94,604,
0,402,899,312,93,595,
0,399,880,308,98,589,
0,395,864,307,97,582,
0,391,850,304,96,575,
0,387,836,302,96,568,
0,384,824,419,95,562,
0,381,810,449,94,635,
0,377,801,444,93,627,
0,374,789,440,92,619,
0,371,777,435,92,611,
0,368,766,431,91,604,
0,364,755,427,119,596,
0,364,744,423,118,589,
0,360,734,419,116,582,
0,358,724,415,115,575,
0,355,711,411,115,569,
0,352,702,408,113,631,
0,348,692,403,112,622,
0,345,684,399,112,615,
0,343,675,396,111,607,
0,339,666,391,110,598,
0,336,785,389,110,591,
0,487,824,385,109,583,
0,480,811,383,108,575,
0,475,798,379,108,570,
0,470,783,376,107,575,
0,463,771,412,105,633,
0,459,760,408,104,625,
0,455,748,403,103,617,
0,449,736,399,103,609,
0,444,726,395,102,600,
0,440,716,391,103,593,
0,435,706,388,103,585,
0,430,696,384,102,579,
0,426,688,381,101,572,
0,422,675,377,100,632,
0,417,667,375,99,627,
0,414,777,371,99,619,
0,410,785,368,97,611,
0,406,775,365,97,604,
0,402,764,362,96,596,
0,399,752,359,107,589,
0,395,840,356,105,582,
0,391,822,353,104,575,
0,388,809,446,103,568,
0,384,796,440,103,614,
0,381,783,435,102,617,
0,377,771,432,101,609,
0,374,760,427,100,601,
0,370,749,422,99,594,
0,367,738,418,99,588,
0,364,728,415,110,580,
0,391,718,410,109,572,
0,387,707,407,108,566,
0,384,697,403,107,559,
0,380,688,399,106,608,
0,376,679,396,105,600,
0,372,668,391,103,591,
0,369,659,389,103,584,
0,365,651,385,103,577,
0,361,643,382,102,571,
0,358,636,379,102,564,
0,411,627,376,102,556,
0,406,620,371,100,550,
0,401,612,368,99,543,
0,398,606,369,99,600,
0,393,599,366,98,594,
0,390,719,363,97,587,
0,385,716,359,96,579,
0,384,705,358,96,572,
0,380,696,355,96,566,
0,376,859,352,100,559,
0,372,876,348,99,552,
0,368,860,346,99,547,
0,365,846,352,98,540,
0,361,831,379,97,591,
0,359,819,375,96,583,
0,355,806,371,95,575,
0,352,796,368,95,568,
0,350,783,364,94,561,
0,347,772,360,94,555,
0,344,764,358,112,548,
0,440,752,355,110,542,
0,435,742,352,109,536,
0,430,729,348,108,531,
0,425,719,345,108,579,
0,420,710,343,107,575,
0,416,700,339,105,569,
0,412,690,337,104,562,
0,407,681,334,103,553,
0,403,671,332,103,547,
0,399,696,329,119,542,
0,452,836,327,118,535,
0,447,822,323,116,529,
0,441,805,321,115,524,
0,437,792,319,115,595,
0,432,780,316,113,587,
0,428,768,314,112,579,
0,423,756,312,112,572,
0,418,745,309,111,564,
0,414,896,307,118,558,
0,437,908,304,147,551,
0,483,912,302,145,544,
0,477,915,300,143,539,
0,472,918,297,142,532,
0,467,910,295,141,532,
0,462,881,294,140,527,
0,456,867,291,139,520,
0,451,853,289,137,515,
0,446,839,287,136,508,
0,441,826,285,140,504,
0,508,814,283,139,498,
0,500,801,280,137,493,
0,495,790,279,135,488,
0,489,775,277,135,483,
0,484,764,294,134,543,
0,479,753,291,133,536,
0,473,743,288,131,530,
0,467,732,286,131,524,
0,462,722,283,130,516,
0,457,712,280,135,511,
0,452,704,278,134,505,
0,448,694,275,132,499,
0,444,685,339,131,495,
0,440,673,335,130,489,
0,435,665,332,129,543,
0,431,657,328,127,536,
0,427,648,326,127,530,
0,421,641,323,126,524,
0,417,633,319,126,516,
0,414,625,316,139,511,
0,409,618,313,137,505,
0,406,611,312,135,499,
0,402,604,441,135,494,
0,399,595,476,134,531,
0,395,588,471,132,524,
0,391,582,465,131,519,
0,387,575,460,131,512,
0,384,568,455,129,507,
0,380,796,451,128,499,
0,377,901,446,139,494,
0,489,908,441,137,488,
0,483,904,438,135,483,
0,477,878,433,135,479,
0,472,864,432,134,532,
0,467,849,444,132,525,
0,462,835,440,131,519,
0,456,822,435,130,513,
0,451,809,431,129,507,
0,446,797,425,128,500,
0,478,785,422,141,495,
0,593,774,418,140,489,
0,585,763,414,138,484,
0,578,749,411,137,479,
0,571,739,408,135,529,
0,564,728,403,135,522,
0,558,718,399,134,516,
0,551,708,396,132,511,
0,543,810,393,131,504,
0,537,797,390,152,497,
0,531,783,385,152,492,
0,526,771,383,151,487,
0,519,760,380,149,481,
0,515,746,376,147,476,
0,509,736,373,146,526,
0,504,724,370,145,519,
0,498,714,367,144,513,
0,494,704,364,143,507,
0,487,695,361,142,502,
0,482,829,358,150,495,
0,478,902,355,148,488,
0,472,899,352,147,483,
0,467,878,350,146,479,
0,463,860,347,144,473,
0,459,845,344,143,524,
0,455,831,341,142,518,
0,450,818,339,141,511,
0,446,806,335,140,505,
0,440,793,333,139,499,
0,436,782,331,149,493,
0,432,770,327,147,487,
0,428,760,326,147,482,
0,424,748,325,145,478,
0,420,735,322,144,516,
0,416,725,319,143,518,
0,413,716,318,142,512,
0,409,705,315,140,505,
0,406,696,312,140,500,
0,401,687,310,139,495,
0,398,678,307,152,487,
0,395,670,305,152,483,
0,391,661,304,150,478,
0,387,652,301,149,472,
0,384,643,299,147,524,
0,381,635,296,146,518,
0,378,627,295,145,511,
0,375,620,292,143,505,
0,371,612,291,143,499,
0,368,862,287,142,494,
0,470,884,286,163,487,
0,542,867,284,161,482,
0,535,852,282,159,476,
0,529,839,280,159,472,
0,523,822,278,157,523,
0,516,808,275,156,516,
0,511,796,274,155,510,
0,505,783,272,153,504,
0,499,772,271,152,499,
0,492,761,268,153,494,
0,487,846,266,152,486,
0,483,831,263,151,481,
0,477,817,263,150,476,
0,472,805,322,148,471,
0,467,789,347,147,534,
0,463,777,344,146,527,
0,458,765,340,145,521,
0,454,754,337,143,515,
0,449,743,334,143,510,
0,444,733,330,156,504,
0,440,723,327,155,497,
0,435,712,324,153,491,
0,431,704,321,152,486,
0,427,694,319,151,481,
0,423,683,316,150,523,
0,419,673,313,148,516,
0,415,664,311,147,511,
0,412,655,308,146,504,
0,408,647,305,145,499,
0,403,639,303,172,494,
0,448,691,300,170,487,
0,443,697,297,168,481,
0,438,688,295,167,476,
0,433,678,294,166,510,
0,428,665,291,164,519,
0,423,656,289,163,512,
0,420,647,287,161,507,
0,415,639,284,160,500,
0,412,631,282,159,496,
0,407,624,280,167,488,
0,403,615,277,166,483,
0,399,608,275,164,478,
0,396,601,273,163,472,
0,391,594,286,162,518,
0,388,585,323,160,511,
0,385,579,319,159,505,
0,382,572,318,158,499,
0,379,566,315,157,494,
0,376,560,312,156,488,
0,371,623,308,166,481,
0,411,614,305,163,476,
0,407,606,307,163,472,
0,403,598,344,161,466,
0,398,590,341,159,518,
0,395,580,337,159,511,
0,391,573,334,157,505,
0,387,566,331,156,499,
0,383,559,327,155,494,
0,379,559,326,158,487,
0,376,839,322,159,481,
0,440,903,319,159,476,
0,435,908,316,158,472,
0,431,897,313,156,466,
0,425,877,312,155,519,
0,422,859,308,153,512,
0,417,844,305,152,505,
0,413,831,303,152,500,
0,408,817,301,150,495,
0,404,805,298,158,489,
0,400,847,295,156,482,
0,396,831,293,155,477,
0,393,819,291,153,472,
0,389,806,288,152,467,
0,386,793,316,151,519,
0,382,779,313,150,513,
0,378,768,310,148,507,
0,375,756,307,147,501,
0,371,745,304,146,496,
0,368,736,302,163,489,
0,374,724,299,161,483,
0,370,715,295,160,478,
0,367,705,294,159,472,
0,363,696,291,158,480,
0,359,687,289,156,501,
0,357,675,287,155,495,
0,354,667,284,153,489,
0,352,659,282,152,483,
0,348,650,280,152,479,
0,345,643,278,165,473,
0,343,635,275,163,467,
0,339,627,284,163,463,
0,337,694,389,161,457,
0,334,683,384,159,517,
0,332,673,380,158,510,
0,329,662,376,157,504,
0,327,652,373,156,498,
0,324,643,369,155,492,
0,322,688,366,153,487,
0,328,677,364,176,481,
0,398,667,359,174,475,
0,393,658,355,173,470,
0,390,649,353,172,465,
0,385,639,374,171,521,
0,382,632,392,168,515,
0,377,622,388,167,509,
0,375,614,385,166,503,
0,371,607,381,164,497,
0,367,600,377,173,492,
0,367,593,375,177,487,
0,398,585,369,176,480,
0,393,579,367,175,475,
0,389,573,364,173,470,
0,385,567,359,172,512,
0,381,560,357,169,506,
0,377,551,354,167,500,
0,374,547,351,167,495,
0,370,540,348,166,489,
0,367,617,345,172,483,
0,494,864,343,171,479,
0,568,847,339,169,472,
0,561,832,335,167,467,
0,555,819,333,167,462,
0,547,807,331,166,523,
0,541,793,327,164,516,
0,536,779,325,163,511,
0,528,767,323,161,504,
0,523,755,319,159,499,
0,518,744,318,172,494,
0,536,734,315,171,487,
0,529,723,312,169,481,
0,523,713,310,167,476,
0,517,704,307,166,497,
0,511,694,304,165,527,
0,505,684,302,163,521,
0,500,673,300,162,515,
0,495,665,297,161,510,
0,489,656,295,159,504,
0,485,648,293,170,498,
0,479,639,291,167,492,
0,473,632,288,167,486,
0,470,624,313,166,481,
0,464,616,311,164,542,
0,460,609,307,163,534,
0,455,600,305,161,527,
0,451,593,303,159,521,
0,447,587,300,159,515,
0,442,579,297,158,510,
0,438,856,295,166,504,
0,484,852,292,164,499,
0,479,838,289,163,492,
0,473,824,287,162,487,
0,468,811,285,161,551,
0,463,798,283,159,543,
0,458,783,280,158,536,
0,454,771,279,156,531,
0,448,760,276,156,524,
0,444,748,275,159,519,
0,440,738,272,167,513,
0,467,728,271,165,507,
0,463,717,268,163,500,
0,457,707,266,162,495,
0,452,697,266,161,517,
0,448,688,263,159,511,
0,443,678,262,159,504,
0,439,668,260,157,499,
0,434,852,259,156,494,
0,430,836,256,164,487,
0,466,823,255,163,483,
0,568,809,253,162,478,
0,561,796,251,161,472,
0,554,783,249,159,467,
0,548,773,248,159,527,
0,541,761,246,157,519,
0,535,747,244,156,513,
0,529,736,243,155,508,
0,523,726,241,153,502,
0,518,716,240,175,496,
0,512,705,238,172,491,
0,505,696,236,172,486,
0,499,687,235,169,479,
0,495,678,233,167,491,
0,489,669,231,167,526,
0,484,660,230,166,519,
0,480,649,228,164,513,
0,474,641,227,163,508,
0,470,633,225,161,502,
0,465,660,224,172,496,
0,460,651,223,170,491,
0,455,642,221,169,486,
0,450,633,220,167,479,
0,446,625,218,167,530,
0,441,617,216,164,523,
0,438,609,216,163,516,
0,433,600,214,162,511,
0,429,664,212,160,504,
0,425,654,211,159,499,
0,422,644,209,176,494,
0,438,636,208,175,487,
0,432,627,207,173,483,
0,427,619,206,172,476,
0,423,610,204,171,513,
0,418,603,203,169,507,
0,415,595,201,167,501,
0,411,586,199,166,495,
0,408,579,199,165,489,
0,403,573,198,172,484,
0,399,567,196,189,479,
0,513,560,195,187,473,
0,505,554,193,185,468,
0,499,548,193,184,463,
0,494,543,273,183,513,
0,488,536,269,181,507,
0,483,531,267,179,502,
0,478,524,263,177,496,
0,473,519,262,176,490,
0,468,513,259,186,485,
0,463,508,257,187,480,
0,484,596,255,185,475,
0,477,588,259,184,470,
0,472,580,255,182,463,
0,467,574,254,180,519,
0,462,566,252,179,512,
0,456,559,250,177,505,
0,452,550,248,176,500,
0,448,543,246,175,495,
0,443,537,244,192,489,
0,444,531,242,190,484,
0,440,524,240,188,479,
0,435,519,238,187,473,
0,430,512,236,185,472,
0,425,507,234,184,515,
0,422,502,231,182,508,
0,418,497,231,180,503,
0,414,491,228,179,496,
0,409,486,227,177,492,
0,407,481,225,204,486,
0,427,477,224,201,480,
0,422,472,222,199,476,
0,415,467,220,198,469,
0,412,463,218,196,524,
0,408,459,216,195,516,
0,403,455,215,193,511,
0,399,451,213,192,504,
0,396,446,211,190,499,
0,392,441,210,188,493,
0,390,438,209,207,487,
0,448,433,207,205,483,
0,443,430,206,204,478,
0,436,426,245,201,471,
0,432,423,243,199,507,
0,427,419,240,199,500,
0,423,415,239,196,495,
0,418,515,236,195,489,
0,414,506,235,193,483,
0,410,502,231,199,479,
0,406,550,231,217,473,
0,444,542,228,215,467,
0,438,536,227,213,463,
0,432,528,224,211,457,
0,428,523,248,209,505,
0,423,515,245,207,499,
0,419,510,243,207,493,
0,415,504,240,204,487,
0,411,497,239,203,482,
0,407,492,236,224,477,
0,425,487,235,220,472,
0,494,481,232,219,467,
0,487,476,231,216,462,
0,481,471,228,215,455,
0,476,466,252,213,451,
0,471,461,249,211,448,
0,465,455,248,210,443,
0,460,451,245,208,440,
0,455,446,243,206,435,
0,451,441,241,216,431,
0,471,437,239,214,428,
0,472,453,237,211,423,
0,467,448,235,210,419,
0,461,443,232,207,421,
0,455,438,238,206,464,
0,451,433,236,205,460,
0,447,428,233,203,455,
0,441,424,231,201,449,
0,437,419,230,199,444,
0,433,415,227,216,440,
0,467,414,226,214,435,
0,462,409,224,212,431,
0,455,407,223,211,427,
0,451,403,220,209,483,
0,445,399,284,207,480,
0,440,396,281,206,473,
0,436,392,279,204,468,
0,432,390,275,202,463,
0,427,385,273,199,459,
0,423,384,271,214,454,
0,419,380,269,211,448,
0,415,376,267,209,444,
0,410,374,264,207,440,
0,407,371,289,206,500,
0,403,368,317,204,494,
0,399,364,313,203,487,
0,396,362,311,201,483,
0,391,382,308,199,478,
0,388,564,305,198,472,
0,385,697,303,204,467,
0,441,687,300,201,462,
0,435,676,297,199,457,
0,430,668,295,199,452,
0,425,658,292,197,501,
0,420,649,289,195,495,
0,416,639,287,194,489,
0,412,632,285,192,483,
0,408,624,283,191,478,
0,404,614,280,195,473,
0,400,606,278,195,467,
0,396,599,275,193,463,
0,392,591,273,192,458,
0,388,583,318,190,454,
0,385,577,439,188,509,
0,381,571,433,188,504,
0,377,564,428,185,497,
0,375,558,423,184,492,
0,371,551,419,183,486,
0,368,543,415,190,480,
0,366,537,412,188,476,
0,362,531,408,187,471,
0,359,575,404,185,465,
0,355,568,400,184,460,
0,353,560,396,182,518,
0,350,553,392,181,512,
0,348,547,390,179,505,
0,344,540,386,178,500,
0,342,534,383,177,495,
0,339,526,380,179,489,
0,447,519,376,177,483,
0,440,515,373,176,479,
0,435,509,369,174,473,
0,430,504,367,173,468,
0,425,499,363,172,515,
0,421,519,359,171,509,
0,416,560,356,169,504,
0,412,551,354,167,497,
0,408,543,351,167,492,
0,404,679,348,166,487,
0,447,713,345,165,481,
0,441,703,343,163,476,
0,436,693,419,163,472,
0,431,683,414,161,511,
0,427,673,408,160,520,
0,422,664,404,159,515,
0,417,655,400,158,508,
0,414,647,396,157,503,
0,409,636,393,156,497,
0,406,723,390,158,492,
0,408,711,385,157,486,
0,403,701,383,156,481,
0,399,691,379,155,476,
0,394,681,376,153,531,
0,391,671,371,152,523,
0,387,663,368,152,516,
0,384,654,365,151,511,
0,380,644,361,150,504,
0,376,635,359,148,499,
0,386,627,355,153,494,
0,448,619,353,152,488,
0,443,611,350,152,483,
0,438,604,348,150,478,
0,432,596,344,149,507,
0,428,588,340,147,499,
0,423,582,338,147,493,
0,419,575,335,146,487,
0,415,568,333,145,482,
0,411,721,331,159,478,
0,489,831,327,163,472,
0,484,816,325,161,467,
0,480,803,323,159,462,
0,473,791,319,159,457,
0,467,779,317,158,509,
0,462,767,315,156,501,
0,457,755,312,155,496,
0,452,743,310,153,489,
0,448,734,307,152,484,
0,444,721,305,167,480,
0,448,711,303,164,473,
0,444,701,301,163,469,
0,439,691,299,161,463,
0,434,682,295,159,459,
0,429,673,294,159,507,
0,424,664,291,158,499,
0,420,655,289,156,494,
0,416,653,287,155,487,
0,412,711,286,154,483,
0,408,846,284,159,478,
0,551,868,281,157,472,
0,543,854,280,156,467,
0,536,839,278,155,462,
0,530,825,275,153,489,
0,523,812,273,152,504,
0,516,799,271,151,497,
0,511,787,269,150,492,
0,505,775,268,149,487,
0,499,764,265,147,481,
0,495,835,263,160,476,
0,489,820,262,159,471,
0,484,807,260,158,465,
0,480,794,259,156,461,
0,475,782,256,155,525,
0,468,769,255,153,518,
0,463,759,253,152,510,
0,459,748,251,152,504,
0,454,737,249,150,499,
0,449,727,248,149,493,
0,446,714,246,157,487,
0,475,704,244,156,482,
0,468,696,243,155,477,
0,463,686,241,153,472,
0,459,677,240,152,532,
0,452,668,237,151,526,
0,448,659,236,150,518,
0,444,651,234,148,511,
0,439,643,231,147,506,
0,435,772,231,152,500,
0,533,841,230,156,495,
0,536,828,227,154,489,
0,530,814,227,152,484,
0,524,801,225,152,479,
0,518,789,224,151,529,
0,511,776,222,149,523,
0,505,765,220,148,515,
0,499,754,219,147,509,
0,494,856,217,146,504,
0,488,840,216,155,497,
0,483,823,215,153,492,
0,479,809,213,152,487,
0,473,797,211,151,481,
0,469,784,210,150,476,
0,464,773,227,148,539,
0,458,761,225,147,531,
0,454,750,223,146,524,
0,449,739,221,145,518,
0,444,729,220,143,512,
0,440,750,217,173,507,
0,439,745,216,171,500,
0,434,734,214,169,496,
0,430,723,212,167,489,
0,425,712,211,167,508,
0,422,703,209,165,534,
0,417,694,207,163,526,
0,413,684,206,162,519,
0,409,675,204,161,514,
0,406,667,203,159,508,
0,402,658,202,172,503,
0,465,844,200,169,497,
0,460,829,199,167,492,
0,455,816,198,166,487,
0,449,803,197,165,546,
0,444,790,195,163,539,
0,439,777,194,162,530,
0,434,766,193,161,524,
0,430,755,192,159,518,
0,425,743,191,159,512,
0,422,734,189,164,507,
0,417,720,188,163,501,
0,413,711,187,162,496,
0,409,702,259,160,490,
0,405,691,263,159,535,
0,401,682,261,158,527,
0,397,673,258,156,519,
0,393,664,255,156,513,
0,390,655,254,154,508,
0,387,647,252,161,503,
0,390,639,249,166,497,
0,409,630,248,163,491,
0,405,622,246,163,486,
0,401,615,243,161,481,
0,396,608,241,159,534,
0,392,600,240,159,527,
0,387,593,237,158,519,
0,384,587,235,156,513,
0,381,579,233,155,508,
0,377,573,231,156,503,
0,375,568,230,156,496,
0,371,704,228,153,492,
0,368,694,226,152,486,
0,365,683,224,152,481,
0,362,673,223,151,537,
0,359,664,221,150,531,
0,355,655,219,148,523,
0,352,646,217,147,516,
0,350,638,216,146,511,
0,347,630,214,165,505,
0,453,621,212,163,499,
0,448,611,211,162,494,
0,442,604,209,161,488,
0,438,596,207,159,511,
0,433,589,206,158,543,
0,427,582,204,156,536,
0,423,575,203,156,529,
0,419,765,201,154,523,
0,414,852,199,153,516,
0,411,838,198,167,511,
0,407,824,197,166,505,
0,403,807,195,163,499,
0,399,795,194,162,494,
0,395,783,196,161,540,
0,391,771,268,159,532,
0,387,760,265,159,526,
0,384,748,263,158,518,
0,380,737,260,156,512,
0,376,728,258,155,507,
0,372,718,255,163,500,
0,369,707,254,162,495,
0,366,696,252,160,489,
0,363,686,249,159,484,
0,359,677,248,158,527,
0,356,668,245,156,519,
0,353,659,243,156,514,
0,350,652,241,154,507,
0,347,643,239,153,500,
0,344,635,237,161,496,
0,398,627,235,176,489,
0,440,620,233,174,484,
0,435,610,231,172,480,
0,431,603,230,171,475,
0,426,596,227,169,525,
0,422,589,226,167,519,
0,415,582,224,167,512,
0,412,575,223,166,505,
0,408,569,220,164,499,
0,403,563,219,179,494,
0,476,556,217,176,488,
0,470,551,216,176,483,
0,463,543,284,174,478,
0,459,537,329,172,473,
0,454,531,326,171,503,
0,449,526,323,169,497,
0,443,520,319,167,491,
0,439,515,316,167,484,
0,434,510,313,166,479,
0,430,505,311,176,474,
0,465,539,307,175,468,
0,460,529,305,173,463,
0,454,524,303,171,460,
0,449,516,300,169,455,
0,444,511,297,167,485,
0,440,504,295,167,480,
0,433,499,293,166,473,
0,430,495,290,164,467,
0,425,489,287,163,463,
0,421,485,286,180,457,
0,417,480,283,178,452,
0,413,474,280,177,448,
0,408,470,279,175,444,
0,405,465,278,174,504,
0,401,460,275,172,497,
0,398,456,273,171,492,
0,392,452,271,169,486,
0,390,565,268,167,480,
0,385,638,266,167,474,
0,385,630,263,174,469,
0,475,620,263,172,463,
0,468,610,263,171,459,
0,463,602,263,169,454,
0,458,595,262,167,504,
0,453,587,260,167,498,
0,448,579,258,165,492,
0,443,627,255,163,487,
0,438,675,254,162,480,
0,433,664,252,162,475,
0,489,655,249,169,470,
0,583,647,248,167,464,
0,575,636,246,167,460,
0,568,627,244,164,455,
0,561,620,242,163,515,
0,555,611,240,163,509,
0,548,604,239,161,504,
0,540,595,237,159,497,
0,535,588,235,159,491,
0,529,582,233,174,486,
0,523,575,231,173,480,
0,518,568,230,172,475,
0,512,560,228,171,470,
0,506,553,227,168,465,
0,502,547,225,167,515,
0,496,540,224,166,509,
0,491,535,222,164,504,
0,484,528,220,163,497,
0,480,524,219,162,491,
0,475,766,217,169,485,
0,480,763,216,168,480,
0,474,750,214,167,475,
0,469,736,212,166,470,
0,464,725,211,164,483,
0,460,715,209,163,524,
0,455,704,208,161,517,
0,451,700,207,159,511,
0,446,689,205,159,505,
0,441,715,204,158,498,
0,438,896,202,184,492,
0,569,907,200,183,487,
0,561,905,199,182,481,
0,554,880,198,179,476,
0,547,864,196,178,536,
0,541,851,225,176,528,
0,535,836,223,175,522,
0,529,824,221,174,516,
0,521,811,218,172,510,
0,515,798,216,171,503,
0,510,787,215,178,497,
0,505,890,212,176,492,
0,499,873,211,175,487,
0,494,856,209,173,481,
0,489,841,207,172,535,
0,483,827,206,170,527,
0,480,814,204,169,521,
0,474,801,203,167,515,
0,468,790,200,166,510,
0,463,777,199,166,503,
0,460,767,198,173,496,
0,473,755,196,172,492,
0,468,744,195,171,487,
0,463,732,193,167,481,
0,458,723,259,167,484,
0,454,712,270,166,479,
0,449,703,267,164,473,
0,444,694,264,163,468,
0,440,764,262,162,463,
0,435,772,259,177,458,
0,540,899,257,177,453,
0,551,906,255,176,448,
0,544,895,253,174,444,
0,538,871,251,172,440,
0,532,857,249,171,497,
0,526,844,247,169,492,
0,519,830,245,168,486,
0,514,817,243,167,480,
0,507,804,240,166,474,
0,502,899,239,167,470,
0,566,908,237,167,463,
0,558,912,235,166,459,
0,551,916,311,164,455,
0,545,915,325,163,457,
0,539,899,321,161,505,
0,532,876,319,160,499,
0,526,862,316,159,493,
0,520,847,312,158,487,
0,513,834,310,157,481,
0,508,903,307,167,476,
0,515,909,304,166,471,
0,508,902,302,164,465,
0,503,880,299,163,460,
0,497,861,296,161,518,
0,492,847,294,159,519,
0,487,833,291,159,513,
0,482,820,289,158,508,
0,478,807,287,156,502,
0,472,888,284,156,495,
0,467,875,282,171,489,
0,496,859,280,169,483,
0,489,844,278,167,479,
0,484,831,275,167,473,
0,479,815,273,164,534,
0,473,801,271,163,527,
0,468,790,269,163,519,
0,463,778,267,161,515,
0,459,768,264,159,508,
0,453,756,263,159,502,
0,448,745,260,170,496,
0,444,736,258,168,490,
0,440,725,257,167,485,
0,435,716,255,166,480,
0,432,704,253,164,546,
0,428,695,251,163,540,
0,423,685,248,161,533,
0,419,676,248,160,527,
0,415,668,245,159,520,
0,412,659,243,173,513,
0,438,652,241,172,508,
0,433,643,240,171,502,
0,428,636,238,169,497,
0,423,628,287,167,492,
0,419,619,284,166,545,
0,415,611,282,164,538,
0,411,604,280,163,531,
0,408,598,277,162,526,
0,403,591,275,160,519,
0,399,600,271,179,512,
0,408,639,270,177,507,
0,403,632,268,176,501,
0,399,623,265,174,496,
0,396,614,263,173,491,
0,391,604,261,171,545,
0,388,596,259,169,539,
0,385,588,257,167,532,
0,382,582,255,167,526,
0,378,575,252,166,519,
0,376,713,250,171,513,
0,406,738,248,169,507,
0,402,727,246,167,502,
0,398,716,244,167,496,
0,393,705,242,165,536,
0,390,692,240,163,536,
0,385,683,239,162,528,
0,382,673,237,161,523,
0,379,664,235,159,516,
0,374,655,233,159,511,
0,371,647,231,179,504,
0,421,639,230,177,498,
0,416,630,228,176,492,
0,412,622,226,175,487,
0,408,615,225,173,493,
0,403,605,223,172,487,
0,399,598,222,170,481,
0,396,591,220,168,476,
0,391,583,219,167,472,
0,387,576,217,167,467,
0,385,674,215,187,461,
0,435,664,213,184,455,
0,430,654,211,183,451,
0,425,645,210,182,448,
0,422,636,209,180,504,
0,417,625,207,178,497,
0,412,731,206,177,492,
0,408,719,204,175,486,
0,404,707,203,174,480,
0,399,697,201,192,476,
0,423,841,199,192,469,
0,436,864,199,191,463,
0,432,849,198,190,459,
0,427,835,196,188,454,
0,423,822,238,186,507,
0,418,805,236,184,501,
0,414,792,233,183,495,
0,409,780,231,182,489,
0,406,769,230,179,484,
0,399,758,227,198,479,
0,444,747,225,195,472,
0,439,736,224,195,467,
0,434,726,222,193,463,
0,429,716,220,191,457,
0,425,704,217,190,507,
0,420,694,216,188,500,
0,415,753,214,186,495,
0,412,740,212,184,489,
0,408,729,211,183,483,
0,403,719,209,195,479,
0,423,708,207,193,472,
0,417,697,206,192,467,
0,413,688,257,190,462,
0,409,679,285,188,505,
0,404,668,282,187,511,
0,400,659,280,185,504,
0,396,651,277,184,499,
0,393,643,274,182,493,
0,390,635,272,180,487,
0,385,627,270,201,483,
0,408,620,267,199,476,
0,404,642,264,199,471,
0,400,633,263,196,466,
0,396,624,260,195,535,
0,391,615,258,193,527,
0,388,608,255,192,521,
0,384,600,254,190,515,
0,381,593,252,188,509,
0,377,586,250,187,504,
0,435,703,248,204,498,
0,497,691,246,202,491,
0,492,681,243,199,486,
0,486,671,242,199,480,
0,480,663,240,197,483,
0,475,651,238,195,478,
0,470,643,236,193,472,
0,465,633,235,192,467,
0,460,625,233,191,463,
0,455,617,231,199,458,
0,449,609,229,199,454,
0,444,602,227,198,448,
0,440,595,225,196,444,
0,435,588,224,195,440,
0,432,581,273,193,492,
0,428,572,271,191,486,
0,423,566,268,190,480,
0,419,560,265,188,475,
0,415,553,263,187,470,
0,412,590,261,193,465,
0,408,636,258,192,460,
0,403,627,255,191,454,
0,399,619,254,189,449,
0,396,610,252,188,444,
0,392,603,249,185,504,
0,389,592,248,184,497,
0,385,585,246,183,492,
0,383,577,243,182,487,
0,379,571,241,179,481,
0,376,577,240,192,476,
0,371,569,238,191,471,
0,368,563,236,189,464,
0,366,556,234,188,460,
0,362,550,231,186,476,
0,359,543,231,184,483,
0,356,536,231,184,478,
0,353,531,228,182,472,
0,351,525,227,179,467,
0,348,519,225,179,463,
0,345,514,224,185,457,
0,444,509,221,184,452,
0,440,504,220,182,447,
0,435,499,218,180,443,
0,430,494,216,179,488,
0,425,489,215,177,482,
0,421,483,213,176,477,
0,417,479,211,175,472,
0,412,473,210,174,466,
0,408,470,208,172,461,
0,404,465,207,198,455,
0,427,460,205,195,451,
0,422,455,204,194,446,
0,417,452,202,192,440,
0,414,448,201,191,497,
0,409,444,199,189,492,
0,405,440,198,187,486,
0,401,435,196,185,480,
0,397,431,195,184,475,
0,393,428,193,185,470,
0,390,558,192,184,464,
0,440,548,191,183,460,
0,435,542,190,181,454,
0,430,535,188,179,449,
0,425,527,188,179,491,
0,421,521,186,177,485,
0,417,513,185,176,480,
0,412,508,184,174,474,
0,408,502,183,173,469,
0,404,579,182,186,464,
0,497,654,180,184,459,
0,527,643,179,183,454,
0,521,635,177,181,448,
0,515,626,176,179,444,
0,510,618,176,178,499,
0,504,610,174,177,493,
0,498,600,173,175,487,
0,492,592,172,174,482,
0,487,585,171,172,476,
0,482,578,169,190,472,
0,484,571,169,188,466,
0,477,564,167,187,460,
0,472,558,192,184,455,
0,467,551,190,184,492,
0,463,544,188,182,512,
0,457,539,187,180,506,
0,454,531,185,179,500,
0,448,525,184,177,495,
0,444,519,183,176,489,
0,440,595,181,183,484,
0,624,586,179,182,479,
0,622,578,177,179,472,
0,614,571,234,178,467,
0,606,563,231,177,521,
0,599,556,230,176,513,
0,591,550,227,174,508,
0,583,542,225,172,502,
0,577,536,224,171,496,
0,571,528,222,169,491,
0,564,523,220,178,486,
0,558,517,218,177,480,
0,550,560,216,175,473,
0,543,552,215,174,468,
0,537,545,213,172,499,
0,532,539,211,171,494,
0,527,532,209,169,487,
0,520,524,207,167,483,
0,515,518,206,167,477,
0,510,512,204,182,472,
0,504,586,203,184,467,
0,521,577,201,183,462,
0,513,571,199,181,455,
0,508,563,198,179,451,
0,502,556,196,178,487,
0,496,549,195,176,481,
0,492,542,193,176,476,
0,487,535,192,174,470,
0,482,528,190,172,465,
0,478,522,189,184,460,
0,504,750,188,182,455,
0,561,814,186,180,450,
0,552,799,184,179,444,
0,546,787,220,177,440,
0,540,775,217,176,486,
0,534,763,216,175,480,
0,527,752,214,173,475,
0,521,738,211,172,470,
0,515,728,209,170,463,
0,510,718,207,175,460,
0,504,707,206,173,455,
0,497,697,204,172,449,
0,493,688,203,171,444,
0,487,679,201,169,475,
0,483,670,199,167,487,
0,478,662,198,167,483,
0,472,653,196,166,477,
0,468,643,195,163,472,
0,463,635,193,163,467,
0,460,775,192,174,462,
0,455,763,190,172,455,
0,451,751,189,171,451,
0,447,739,195,169,446,
0,442,728,203,167,512,
0,438,718,231,166,505,
0,434,707,229,165,499,
0,430,697,227,163,494,
0,426,896,225,162,487,
0,423,908,223,161,483,
0,419,911,222,177,477,
0,456,903,219,176,472,
0,450,879,217,174,467,
0,446,864,216,173,460,
0,440,850,214,172,515,
0,435,836,211,170,509,
0,431,824,210,168,503,
0,427,811,208,167,497,
0,423,796,207,166,492,
0,418,783,205,168,487,
0,415,773,204,172,481,
0,461,761,201,169,476,
0,454,751,199,167,471,
0,449,740,199,167,464,
0,444,730,245,166,530,
0,440,719,241,164,524,
0,435,710,240,163,518,
0,431,700,238,162,511,
0,425,689,235,160,505,
0,422,680,233,167,500,
0,417,671,231,166,495,
0,433,664,230,164,489,
0,428,655,227,163,483,
0,423,647,225,162,478,
0,419,639,224,160,536,
0,415,632,222,159,529,
0,411,624,220,158,524,
0,407,615,217,157,518,
0,403,608,216,156,511,
0,399,651,215,167,507,
0,511,888,213,166,500,
0,560,892,211,164,495,
0,551,874,209,163,489,
0,543,859,233,161,500,
0,537,845,231,159,536,
0,531,831,228,159,530,
0,526,818,227,158,524,
0,519,802,225,156,518,
0,513,790,223,155,512,
0,508,835,222,172,507,
0,503,820,220,169,500,
0,497,807,217,168,496,
0,491,793,216,167,489,
0,486,782,214,166,557,
0,480,769,211,164,548,
0,476,759,210,163,542,
0,471,748,208,162,536,
0,466,735,207,160,529,
0,462,724,206,159,523,
0,457,715,204,172,518,
0,496,705,203,171,512,
0,490,696,200,169,505,
0,483,687,199,167,500,
0,478,678,198,166,558,
0,472,669,195,165,551,
0,467,660,194,163,543,
0,463,652,193,162,537,
0,457,647,192,161,531,
0,453,878,191,169,526,
0,449,896,189,176,519,
0,462,876,188,175,513,
0,455,862,204,173,508,
0,450,847,268,172,503,
0,446,834,265,170,560,
0,440,820,263,169,553,
0,436,807,259,167,547,
0,432,795,258,166,540,
0,428,780,255,165,534,
0,424,769,254,179,527,
0,444,758,252,177,521,
