=~=~=~=~=~=~=~=~=~=~=~= PuTTY log 2021.04.22 11:01:39 =~=~=~=~=~=~=~=~=~=~=~=
77,219,455,318,
0,587,839,216,449,315,
0,579,826,214,444,312,
1,195,419,335,
0,543,780,193,415,332,
0,536,768,191,412,329,
0,530,758,190,409,326,
0,524,747,188,406,323,
0,543,831,187,441,319,19,335,35,188,436,316,
5,332,
0,536,768,191,412,329,
0,530,758,190,409,326,
0,524,747,188,406,323,
0,543,831,187,441,319,
0,585,835,188,436,316,
0,578,819,187,431,314,
0,572,807,184,427,312,
0,565,794,184,423,351,
0,559,783,182,419,347C!bbbbbbj
0,545,760,179,411,339,
0,539,75StartUp!
127,472,679,191,316,293,
0,468,671,190,313,291,
0,465,665,188,312,289,
0,462,659,188,326,287,
0,472,743,187,326,286,
0,467,735,185,323,284,
0,463,726,184,321,283,
0,460,718,184,319,281,
0,455,711,183,317,280,
0,453,704,182,315,278,
0,449,694,180,312,307,
0,446,684,179,309,304,
0,440,675,177,307,302,
0,435,666,176,304,298,
0,432,657,175,302,295,
0,430,729,174,319,293,
0,445,727,173,316,290,
0,440,713,172,312,287,
0,435,704,171,309,286,
0,431,694,169,306,283,
0,427,684,167,304,281,
0,423,675,167,301,279,
0,419,666,166,299,276,
0,415,657,164,295,273,
0,411,649,163,294,271,
0,440,735,162,305,270,
0,441,723,163,302,267,
0,436,710,161,299,265,
0,432,700,160,295,263,
0,428,690,159,294,295,
0,423,684,159,293,294,
0,422,675,159,291,291,
0,415,666,157,287,287,
0,412,657,156,286,285,
0,408,649,155,291,283,
0,447,783,237,327,280,
0,441,771,263,324,278,
0,436,756,260,319,275,
0,432,745,258,318,273,
0,428,735,255,315,342,
0,423,724,254,312,337,
0,419,715,252,310,334,
0,414,704,248,307,331,
0,410,696,247,304,327,
0,407,687,245,344,324,
0,484,775,243,340,321,
0,479,764,240,337,319,
0,473,750,239,334,316,
0,467,739,236,330,313,
0,463,728,235,327,345,
0,458,719,233,324,342,
0,454,708,231,321,338,
0,448,699,229,319,334,
0,444,689,227,316,331,
0,440,719,225,352,327,
0,496,784,224,349,325,
0,491,772,222,345,322,
0,486,758,220,342,319,
0,480,747,219,338,321,
1,475,736,217,335,342,
1,470,726,216,332,339,
1,465,716,214,329,335,
1,460,706,211,327,331,
1,455,696,211,323,327,
1,466,763,208,345,325,
1,496,750,212,342,322,
1,491,739,211,339,319,
2,485,726,209,335,316,
1,480,716,207,332,352,
1,475,705,206,327,348,
2,470,696,204,326,344,
2,464,687,203,323,341,
2,459,678,200,319,337,
2,455,669,199,318,335,
2,495,778,201,348,331,
2,489,766,204,344,327,
2,483,753,201,341,325,
2,479,740,199,337,322,
2,473,730,199,334,361,
2,468,719,197,331,358,
2,463,709,195,327,353,
2,457,700,194,326,351,
2,454,691,192,323,347,
1,448,681,191,329,344,
2,496,713,226,349,339,
2,489,702,224,345,337,
2,484,692,222,342,334,
1,479,680,220,338,331,
2,473,671,217,335,376,
2,468,664,216,332,372,
1,463,655,215,329,368,
1,457,647,212,327,365,
2,454,639,211,323,359,
1,449,632,209,324,358,
2,503,740,207,321,354,
1,497,729,206,319,351,
2,492,719,204,316,348,
1,487,707,203,312,344,
1,481,697,201,310,359,
1,476,688,199,307,356,
1,472,678,198,305,353,
1,465,669,196,303,350,
1,460,660,195,300,346,
1,456,703,193,343,343,
1,502,753,192,339,339,
1,496,742,190,335,336,
2,491,732,189,332,334,
1,485,719,188,329,358,
1,480,708,186,326,380,
1,475,699,185,323,376,
1,470,689,184,319,372,
1,463,680,183,317,369,
1,460,671,180,315,365,
1,467,769,195,352,361,
1,488,756,193,348,358,
1,483,744,192,344,355,
2,478,734,190,341,352,
1,473,721,188,337,377,
1,467,711,187,334,374,
1,463,701,185,331,369,
2,459,691,184,327,366,
1,452,683,183,326,363,
1,448,673,180,323,359,
1,504,763,183,353,355,
1,497,751,182,350,352,
1,492,739,180,347,348,
1,486,726,179,344,345,
1,481,716,177,339,377,
2,476,706,176,336,374,
1,472,696,175,334,370,
1,466,688,174,331,367,
1,460,678,172,327,363,
1,455,670,171,340,359,
1,475,764,187,355,355,
1,468,752,185,351,352,
1,463,741,184,348,349,
1,459,728,182,344,345,
1,455,718,180,341,379,
1,449,707,179,338,375,
1,445,698,178,335,371,
1,441,689,176,332,368,
1,435,679,175,329,364,
1,432,671,174,363,359,
1,497,764,187,359,356,
1,491,753,185,355,353,
1,486,742,184,352,350,
1,480,728,182,348,347,
1,476,719,180,344,386,
1,470,708,179,342,382,
1,465,699,177,339,378,
1,460,689,176,335,375,
1,455,680,175,332,371,
1,451,726,173,359,367,
1,489,760,172,355,363,
1,483,748,171,351,359,
1,479,737,169,348,356,
1,473,723,167,344,353,
1,468,713,167,340,350,
1,463,704,166,337,347,
1,459,694,164,335,344,
1,454,684,163,332,340,
1,448,675,162,329,337,
1,478,767,161,336,334,
1,476,754,174,334,332,
1,471,743,172,331,327,
0,465,732,171,327,326,
0,461,719,169,325,329,
1,455,709,167,321,326,
0,451,700,167,319,323,
0,447,690,166,316,319,
0,443,680,164,313,318,
1,438,671,163,312,315,
0,481,764,166,341,312,
0,475,752,164,337,310,
0,470,741,163,335,307,
0,465,730,161,332,304,
0,460,718,160,328,363,
0,455,707,159,325,359,
0,451,697,158,322,355,
0,446,688,157,319,352,
0,441,679,156,317,348,
0,436,671,155,340,345,
0,484,761,166,348,342,
0,479,749,164,344,339,
0,473,738,163,342,335,
0,468,728,161,338,332,
0,463,716,160,335,384,
0,459,705,159,331,379,
0,454,696,158,327,376,
0,449,687,156,326,371,
0,445,677,156,323,368,
0,440,675,155,341,365,
0,484,760,158,337,359,
0,479,749,157,334,357,
0,473,738,156,332,354,
0,468,728,155,327,351,
0,463,715,153,324,348,
0,459,705,152,322,345,
0,454,696,151,319,342,
0,449,686,150,316,339,
0,444,676,148,313,335,
0,440,741,147,345,333,
0,477,764,166,343,329,
0,472,752,164,339,327,
0,466,741,163,335,324,
0,462,731,162,333,335,
0,456,718,161,329,347,
0,452,708,159,326,344,
0,448,699,158,323,340,
0,443,689,157,321,337,
0,439,679,156,318,334,
0,487,757,159,336,332,
0,488,744,193,333,327,
0,483,734,192,330,324,
0,478,723,190,327,321,
0,473,712,188,324,353,
0,468,700,186,320,350,
0,463,691,184,318,347,
0,459,681,184,315,344,
0,454,673,182,312,340,
0,449,664,180,310,337,
0,477,764,188,335,334,
0,472,751,186,332,330,
0,467,740,184,329,327,
0,462,729,183,327,324,
0,456,719,182,323,338,
0,452,707,179,319,335,
0,448,697,179,317,332,
0,443,688,177,315,328,
0,439,679,176,312,326,
0,435,670,175,347,323,
0,492,769,173,351,319,
0,487,757,172,347,316,
0,481,745,170,344,313,
0,476,735,168,340,312,
0,472,724,167,337,335,
0,466,711,166,334,332,
0,461,703,165,331,329,
0,456,692,163,327,327,
0,451,684,163,325,323,
0,448,695,161,346,321,
0,478,771,161,343,317,
0,472,760,159,339,314,
0,467,748,159,336,312,
0,463,737,158,334,311,
0,457,728,157,330,344,
0,453,715,156,327,339,
0,448,705,155,323,336,
0,444,696,153,320,333,
0,440,686,152,318,330,
0,435,760,152,347,327,
0,487,766,169,344,323,
0,480,754,167,339,319,
0,476,743,167,337,317,
0,471,732,165,334,316,
0,465,723,164,331,313,
0,460,710,163,327,311,
0,455,700,161,324,307,
0,451,691,159,321,305,
0,447,681,159,319,303,
0,443,778,158,334,300,
0,484,765,167,329,297,
0,479,754,166,327,295,
0,473,743,164,324,293,
0,468,732,163,321,347,
0,463,721,161,319,342,
0,459,710,159,315,339,
0,454,700,159,312,335,
0,449,691,158,310,332,
0,445,681,156,311,329,
0,478,768,156,342,327,
0,474,755,180,337,323,
0,468,743,179,335,319,
0,463,734,177,332,317,
0,459,723,176,328,355,
0,454,713,174,326,352,
0,449,701,172,323,348,
0,445,691,172,319,344,
0,440,683,169,316,342,
0,436,673,168,346,339,
0,488,768,179,343,335,
0,483,756,176,339,332,
0,477,745,175,335,328,
0,472,735,173,333,326,
0,467,724,172,329,327,
0,462,714,171,327,323,
0,457,702,169,323,319,
0,453,692,167,319,318,
0,448,684,167,318,315,
0,444,707,166,338,312,
0,481,764,174,335,310,
0,476,752,172,332,306,
0,470,741,171,328,304,
0,465,731,169,326,305,
0,460,719,167,323,344,
0,455,710,167,319,341,
0,451,698,166,316,337,
0,447,689,164,313,335,
0,441,679,163,312,332,
0,438,768,161,332,327,
0,472,760,175,327,326,
0,467,748,173,326,322,
0,462,737,172,322,319,
0,455,727,170,319,343,
0,451,716,168,317,339,
0,448,707,167,313,336,
0,443,695,166,311,333,
0,438,686,164,307,329,
0,434,676,163,305,327,
0,439,775,162,339,324,
0,481,763,171,335,321,
0,476,751,169,332,318,
0,471,739,167,328,315,
0,465,729,167,326,379,
0,460,719,166,323,374,
0,455,710,164,319,371,
0,451,697,163,317,367,
0,447,688,161,313,364,
0,442,679,160,315,359,
0,463,770,166,329,356,
0,463,758,182,326,353,
0,457,747,179,323,349,
0,453,736,178,319,346,
0,448,725,177,318,352,
0,444,715,176,315,349,
0,440,703,174,312,345,
0,435,694,172,308,343,
0,431,684,172,306,339,
0,427,675,170,332,337,
0,493,765,179,327,334,
0,486,753,177,324,331,
0,480,742,176,321,327,
0,475,732,174,319,324,
0,470,721,173,316,344,
0,465,711,172,313,341,
0,460,699,170,311,338,
0,455,690,168,307,335,
0,451,681,167,305,332,
0,447,696,167,339,328,
0,491,717,176,335,326,
0,483,707,175,332,323,
0,479,696,172,329,319,
0,473,687,171,327,319,
0,468,678,169,323,323,
0,463,669,167,321,319,
0,459,659,167,318,317,
0,454,651,166,315,314,
0,449,643,164,312,312,
0,446,745,163,335,309,
0,493,740,166,331,306,
0,486,729,164,327,304,
0,481,719,163,325,301,
0,476,708,162,322,357,
0,471,699,161,319,355,
0,466,689,159,316,351,
0,461,678,158,313,348,
0,455,670,157,311,344,
0,451,660,156,308,341,
0,452,751,162,324,338,
0,486,739,174,321,335,
0,480,728,172,318,332,
0,474,718,171,315,327,
0,469,707,169,312,385,
0,463,697,167,310,381,
0,460,688,167,307,376,
0,455,677,165,304,373,
0,450,668,163,302,369,
0,446,659,163,312,366,
0,467,756,180,329,363,
0,464,744,188,327,359,
0,459,734,186,323,356,
0,454,723,184,319,352,
0,449,713,184,318,374,
0,444,704,182,315,369,
0,440,694,180,312,366,
0,435,682,179,310,363,
0,432,673,177,306,359,
0,428,664,176,339,355,
0,476,760,193,334,352,
0,470,748,191,331,349,
0,463,736,188,327,346,
0,459,726,187,325,343,
0,454,716,185,322,385,
0,449,706,184,319,381,
0,444,696,183,316,377,
0,440,685,181,313,374,
0,435,675,179,311,369,
0,432,723,178,328,367,
0,448,770,177,326,363,
0,442,758,176,323,359,
0,436,747,174,319,356,
0,432,736,172,316,364,
0,428,726,171,313,359,
0,423,716,169,312,357,
0,419,706,167,308,353,
0,415,694,167,305,350,
0,412,685,166,303,347,
0,409,788,164,332,344,
0,463,775,172,327,341,
0,457,763,170,325,338,
0,451,752,167,322,335,
0,447,740,167,319,347,
0,442,731,166,316,344,
0,438,719,164,313,340,
0,433,710,163,311,336,
0,429,698,162,307,334,
0,424,689,160,305,331,
0,452,775,159,335,327,
0,480,763,167,332,325,
0,475,752,166,328,323,
0,468,740,164,326,319,
0,463,730,163,323,350,
0,458,719,161,319,347,
0,454,710,160,317,344,
0,449,700,159,315,339,
0,444,688,158,311,336,
0,440,679,156,331,334,
0,476,787,156,332,331,
0,472,775,224,329,327,
0,467,763,222,327,324,
0,460,752,219,323,321,
0,455,741,217,320,351,
0,451,731,216,318,347,
0,447,719,214,315,344,
0,441,711,211,312,340,
0,438,699,210,309,337,
0,433,695,209,341,335,
0,473,782,207,337,331,
0,467,769,205,334,327,
0,463,759,204,331,326,
0,456,747,201,327,321,
0,452,737,199,325,357,
0,448,727,198,322,353,
0,443,716,196,319,350,
0,439,707,195,316,347,
0,434,695,194,313,344,
0,430,756,192,312,340,
0,490,775,198,310,337,
0,484,764,195,307,334,
0,480,752,194,304,331,
0,472,740,192,302,365,
0,467,730,191,299,361,
0,463,719,189,297,358,
0,458,710,188,295,355,
0,454,701,187,292,352,
0,448,689,185,289,348,
0,444,784,184,324,344,
0,463,771,184,321,342,
0,459,760,183,318,339,
0,454,748,182,316,335,
0,448,738,180,312,356,
0,444,728,179,310,353,
0,440,718,177,307,350,
0,435,707,176,304,346,
0,431,698,175,302,344,
0,427,687,174,299,340,
0,463,783,172,319,336,
0,487,770,171,317,334,
0,482,759,169,314,331,
0,477,748,168,312,327,
0,471,737,167,308,354,
0,465,727,166,305,351,
0,461,716,164,304,347,
0,455,707,163,301,344,
0,451,697,163,298,340,
0,447,686,161,329,338,
0,515,795,163,331,335,
0,508,782,179,327,332,
0,503,771,178,324,327,
0,497,760,176,321,326,
0,490,748,175,319,322,
0,485,737,173,316,319,
0,480,728,172,313,316,
0,475,718,171,311,314,
0,471,708,169,308,312,
0,466,709,167,335,309,
0,472,775,179,332,306,
0,467,764,177,327,304,
0,462,752,176,326,302,
0,455,742,175,323,299,
0,451,732,172,319,347,
0,447,721,171,316,343,
0,443,711,169,313,339,
0,439,702,167,312,336,
0,435,692,167,308,333,
0,430,764,166,334,330,
0,471,775,200,331,327,
0,465,763,199,327,324,
0,460,752,197,324,321,
0,455,740,195,321,319,
0,450,730,193,319,357,
0,446,719,192,316,353,
0,440,710,190,313,350,
0,436,700,188,311,347,
0,432,
0,472,752,177,329,347,
0,465,740,176,326,344,
0,460,730,175,323,179,311,356,
0,444,671,178,307,353,
0,440,706,177,332,350,
0,472,752,177,329,347,
0,465,740,176,326,344,
0,460,730,175,323,339,
0,455,719,174,319,352,
0,451,710,172,318,353,
0,447,700,171,315,350,
0,442,688,169,312,346,
0,438,679,167,308,344,
0,433,670,167,306,339,
0,430,769,166,335,337,
0,483,760,184,331,334,
0,476,748,183,327,331,
0,471,738,182,325,327,
0,465,728,180,322,352,
0,460,717,178,319,348,
0,455,707,177,316,344,
0,451,696,176,313,342,
0,447,686,174,311,338,
0,442,676,173,307,335,
0,444,761,172,337,332,
0,471,750,175,334,328,
0,463,738,173,331,326,
0,460,728,172,327,323,
0,455,718,171,325,345,
0,449,707,169,323,342,
0,445,697,167,319,338,
0,440,686,167,316,335,
0,436,678,166,313,332,
0,432,668,164,319,329,
0,470,768,163,332,326,
0,470,756,210,329,323,
0,463,745,207,326,319,
0,458,734,206,323,316,
0,454,724,204,319,352,
0,448,713,203,318,348,
0,444,704,200,315,344,
0,440,692,199,312,342,
0,435,683,198,308,338,
0,431,674,196,337,335,
0,482,760,195,334,332,
0,476,748,193,331,328,
0,470,737,191,327,326,
0,464,726,189,324,323,
0,460,716,188,321,340,
0,455,706,187,319,337,
0,450,696,185,316,334,
0,446,685,184,312,331,
0,441,676,182,310,327,
0,437,723,181,344,324,
0,487,760,184,339,321,
0,481,748,184,336,319,
0,475,737,181,334,316,
0,470,727,179,331,348,
0,464,717,178,327,355,
0,460,707,177,324,352,
0,455,697,176,321,348,
0,450,686,175,318,344,
0,446,676,173,316,342,
0,441,771,172,338,339,
0,478,759,179,335,335,
0,472,747,178,332,332,
0,466,736,176,328,329,
0,461,726,175,326,353,
0,455,716,174,323,350,
0,451,705,172,319,346,
0,447,696,171,317,343,
0,443,685,169,313,339,
0,438,675,167,312,336,
0,454,764,167,313,334,
0,460,752,185,310,330,
0,455,740,184,307,327,
0,449,730,182,305,323,
0,444,719,179,303,353,
0,440,710,178,300,350,
0,435,700,177,297,346,
0,431,691,176,295,344,
0,427,679,174,292,339,
0,423,670,172,316,337,
0,476,762,189,327,334,
0,474,750,190,325,331,
0,468,739,188,322,327,
0,463,728,187,319,323,
0,457,719,184,316,356,
0,453,708,184,313,352,
0,448,698,182,311,349,
0,444,689,180,308,345,
0,440,678,179,305,343,
0,435,671,177,335,339,
0,472,760,192,331,335,
0,467,748,189,327,334,
0,462,737,188,324,329,
0,455,726,185,321,326,
0,451,716,184,319,357,
0,446,707,183,316,353,
0,441,696,181,313,350,
0,438,688,179,311,347,
0,433,676,178,307,344,
0,429,729,177,348,340,
0,464,751,177,344,337,
0,459,739,176,342,334,
0,455,728,175,338,332,
0,448,718,172,335,371,
0,444,707,172,332,367,
0,440,698,170,329,363,
0,435,689,169,327,359,
0,431,679,167,323,356,
0,426,668,167,319,353,
0,423,763,165,343,350,
0,472,750,183,339,347,
0,465,739,180,335,344,
0,460,728,179,333,339,
0,455,718,177,329,364,
0,449,707,176,327,359,
0,445,697,175,324,356,
0,440,688,173,321,353,
0,436,679,172,319,350,
0,432,668,170,315,347,
0,461,760,185,337,344,
0,465,747,223,335,339,
0,460,736,221,332,337,
0,455,725,219,327,334,
0,449,715,216,326,353,
0,445,705,215,323,350,
0,440,696,213,319,346,
0,435,686,211,317,343,
0,432,677,209,315,339,
0,428,667,207,332,337,
0,432,760,207,333,334,
0,427,747,205,329,331,
0,423,736,204,327,327,
0,418,726,201,323,324,
0,415,716,199,321,323,
0,411,705,199,318,321,
0,407,696,197,316,318,
0,403,687,195,312,316,
0,399,678,194,310,312,
0,396,678,193,346,311,
0,417,751,195,343,307,
0,412,739,193,339,305,
0,408,729,192,335,302,
0,403,719,190,333,300,
0,399,708,188,329,335,
0,396,699,187,327,332,
0,391,689,185,323,329,
0,388,679,184,321,327,
0,385,671,183,319,323,
0,383,732,182,348,319,
0,415,744,195,345,318,
0,411,734,194,342,315,
0,407,723,192,339,312,
0,401,712,191,335,309,
0,398,703,189,332,346,
0,393,693,188,329,343,
0,390,684,185,327,339,
0,387,675,184,323,335,
0,384,666,183,321,332,
0,380,769,182,339,329,
0,403,756,209,335,327,
0,398,745,207,332,323,
0,395,734,206,329,320,
0,390,723,204,327,358,
0,386,713,202,324,353,
0,382,704,200,321,350,
0,379,694,199,319,346,
0,376,685,198,316,343,
0,372,673,195,313,340,
0,369,767,194,335,336,
0,368,755,193,332,334,
0,364,743,191,329,331,
0,361,732,190,327,327,
0,358,722,188,323,358,
0,355,711,187,321,353,
0,352,702,185,318,349,
0,350,692,184,316,345,
0,347,684,182,312,343,
0,344,671,180,310,339,
0,347,768,188,342,336,
0,344,756,185,339,333,
0,341,745,184,335,330,
0,338,734,183,332,327,
0,335,723,182,329,354,
0,332,713,179,327,350,
0,330,704,178,323,346,
0,327,695,177,321,343,
0,326,685,176,318,339,
0,323,703,175,339,336,
0,355,760,194,335,333,
0,351,749,192,332,330,
0,347,738,191,328,327,
0,344,728,188,326,324,
0,340,718,188,323,351,
0,337,707,185,319,347,
0,334,698,184,317,344,
0,331,688,183,315,339,
0,327,679,181,312,336,
0,326,755,179,336,334,
0,352,745,179,332,331,
0,348,735,177,329,327,
0,345,724,176,326,324,
0,342,714,174,323,321,
0,338,704,173,319,336,
0,335,695,172,317,332,
0,332,686,170,314,329,
0,329,676,168,312,327,
0,326,668,167,309,323,
0,323,752,167,323,320,
0,345,739,185,319,318,
0,342,728,184,316,315,
0,339,719,182,312,312,
0,335,708,180,311,352,
0,332,698,179,307,347,
0,327,689,177,305,343,
0,326,679,176,303,339,
0,323,671,174,300,335,
0,319,663,173,297,333,
0,344,749,172,335,329,
0,361,737,189,332,327,
0,358,727,188,327,323,
0,355,716,185,326,320,
0,352,706,184,323,319,
0,348,696,182,319,316,
0,344,687,180,316,313,
0,341,678,179,313,311,
0,337,669,178,312,307,
0,335,660,176,308,305,
0,364,755,179,333,303,
0,359,743,178,329,300,
0,355,733,176,326,297,
0,352,723,175,323,295,
0,349,712,174,319,334,
0,345,703,172,318,330,
0,342,693,171,315,326,
0,339,684,169,312,323,
0,335,675,167,309,319,
0,333,666,167,335,317,
0,359,760,166,331,314,
0,355,747,164,327,312,
0,352,736,163,324,308,
0,348,726,162,322,306,
0,345,716,161,319,337,
0,341,705,159,316,334,
0,338,696,159,313,329,
0,335,687,158,311,326,
0,332,678,156,308,323,
0,329,691,156,333,320,
0,384,752,174,327,318,
0,380,741,172,326,315,
0,376,731,171,323,312,
0,372,720,169,319,314,
0,369,710,167,316,335,
0,365,700,166,313,332,
0,361,691,165,312,327,
0,359,681,163,308,324,
0,355,672,162,305,321,
0,352,753,163,333,319,
0,391,752,199,329,316,
0,387,740,196,326,312,
0,384,729,195,323,310,
0,380,719,193,319,335,
0,376,710,192,317,332,
0,371,700,190,315,327,
0,368,690,188,312,325,
0,364,681,187,310,321,
0,360,671,185,307,319,
0,368,768,184,335,316,
0,368,753,184,331,313,
0,364,742,182,327,311,
0,359,731,181,324,307,
0,357,720,179,321,348,
0,353,711,178,319,344,
0,350,701,176,316,340,
0,347,691,175,313,337,
0,344,681,174,311,334,
0,340,673,172,308,331,
0,377,775,206,324,327,
0,374,760,204,319,324,
0,369,749,201,318,321,
0,366,738,199,315,319,
0,363,728,198,312,345,
0,359,717,196,309,342,
0,355,707,195,306,338,
0,352,697,193,304,335,
0,349,688,192,301,332,
0,345,679,190,324,327,
0,380,759,189,321,326,
0,376,743,187,316,323,
0,371,733,185,313,319,
0,368,723,184,312,317,
0,364,712,183,308,316,
0,361,703,181,305,313,
0,356,694,179,303,310,
0,353,684,178,300,307,
0,351,675,177,297,305,
0,348,700,176,332,302,
0,377,751,181,327,300,
0,374,736,179,324,297,
0,370,726,178,321,295,
0,367,716,176,319,309,
0,363,705,175,316,327,
0,359,696,174,312,323,
0,355,687,172,310,319,
0,352,678,171,307,316,
0,350,668,169,304,314,
0,348,758,167,332,312,
0,369,744,174,329,308,
0,366,731,173,325,305,
0,363,720,172,322,303,
0,359,710,169,319,347,
0,355,700,168,316,343,
0,352,691,167,313,339,
0,348,681,166,312,335,
0,345,673,164,308,332,
0,343,664,163,306,329,
0,377,743,167,332,326,
0,380,732,167,329,323,
0,376,719,167,326,319,
0,372,708,166,322,317,
0,369,699,164,319,344,
0,366,689,163,316,340,
0,361,679,161,313,337,
0,358,671,159,312,333,
0,355,663,159,308,331,
0,352,654,158,314,327,
0,391,748,159,335,324,
0,387,736,159,332,321,
0,384,723,157,327,319,
0,380,711,156,324,316,
0,376,702,155,322,342,
0,372,692,153,319,338,
0,368,684,152,316,335,
0,365,674,152,313,331,
0,361,665,151,312,327,
0,359,657,150,340,325,
0,384,752,168,335,322,
0,380,739,167,332,319,
0,376,727,166,329,316,
0,373,716,164,326,313,
0,369,706,163,323,343,
0,366,696,161,319,339,
0,361,687,159,318,335,
0,359,678,159,315,332,
0,355,668,158,312,327,
0,352,711,156,333,326,
0,395,751,216,329,322,
0,391,739,214,327,319,
0,387,726,211,323,316,
0,383,716,209,319,339,
0,379,705,207,317,348,
0,376,696,206,313,344,
0,371,687,204,312,340,
0,368,678,203,308,336,
0,364,668,200,306,333,
0,362,748,199,326,331,
0,363,736,199,322,327,
0,359,725,198,319,324,
0,356,711,195,316,321,
0,353,702,195,313,355,
0,351,692,193,311,352,
0,348,683,192,307,348,
0,344,673,190,305,345,
0,340,664,188,303,341,
0,337,656,187,300,338,
0,374,746,188,316,335,
0,371,734,186,313,332,
0,368,721,184,311,327,
0,364,711,184,307,326,
0,359,701,182,304,364,
0,357,691,180,302,359,
0,354,682,179,300,356,
0,350,673,178,297,353,
0,347,664,176,295,348,
0,344,655,175,312,345,
0,399,748,182,324,343,
0,395,736,180,321,339,
0,391,723,179,318,336,
0,387,711,177,314,333,
0,384,702,176,312,356,
0,379,692,175,308,353,
0,376,683,173,306,350,
0,371,674,172,304,346,
0,368,665,170,301,342,
0,364,657,169,329,339,
0,410,743,178,326,335,
0,406,732,176,323,332,
0,401,719,176,319,329,
0,398,710,174,316,327,
0,393,699,172,313,344,
0,390,689,171,311,340,
0,387,680,169,307,337,
0,382,671,167,305,334,
0,379,664,167,302,330,
0,376,713,166,347,327,
0,415,743,169,343,324,
0,411,733,167,339,321,
0,407,719,167,336,319,
0,403,710,165,333,327,
0,399,700,163,329,323,
0,395,690,163,327,321,
0,391,681,161,324,318,
0,387,671,159,321,315,
0,384,664,159,318,312,
0,401,753,158,342,310,
0,403,740,173,337,306,
0,399,729,171,335,304,
0,396,716,169,332,301,
0,391,707,167,327,348,
0,387,696,167,325,344,
0,384,687,166,322,339,
0,380,678,164,319,336,
0,376,669,163,316,333,
0,372,660,161,313,329,
0,401,751,169,337,327,
0,396,739,167,335,323,
0,391,728,166,332,320,
0,388,715,165,327,318,
0,385,705,163,324,351,
0,381,696,162,321,347,
0,377,686,161,319,344,
0,374,676,159,316,340,
0,369,668,158,313,337,
0,367,659,157,331,334,
0,423,749,173,332,330,
0,418,737,171,327,327,
0,414,727,169,325,324,
0,409,713,167,322,321,
0,406,704,167,319,348,
0,401,694,166,316,345,
0,398,684,164,313,342,
0,394,675,163,310,338,
0,390,667,161,307,335,
0,386,663,160,337,332,
0,396,751,175,333,327,
0,391,739,174,330,325,
0,388,728,172,327,322,
0,384,716,171,323,319,
0,381,705,169,319,349,
0,377,696,167,318,345,
0,374,686,167,315,343,
0,371,678,165,312,339,
0,367,668,163,310,335,
0,364,727,163,327,332,
0,428,751,161,324,329,
0,423,739,159,321,326,
0,419,729,159,319,323,
0,414,716,158,316,348,
0,411,706,156,312,344,
0,407,696,155,310,340,
0,402,687,153,307,337,
0,399,678,152,304,334,
0,393,669,152,302,331,
0,395,766,151,335,327,
0,398,753,166,331,323,
0,393,742,164,327,321,
0,390,731,163,325,318,
0,387,718,161,321,348,
0,384,708,159,319,344,
0,380,699,159,316,341,
0,376,689,158,313,337,
0,372,679,156,310,335,
0,368,671,155,307,332,
0,406,753,166,332,327,
0,400,740,164,329,324,
0,397,730,163,326,321,
0,393,719,161,323,319,
0,390,707,159,319,348,
0,385,697,159,316,344,
0,382,688,157,313,341,
0,378,679,156,311,338,
0,375,670,155,308,335,
0,371,662,153,335,331,
0,423,747,159,335,327,
0,417,734,159,332,324,
0,414,724,158,327,321,
0,409,713,156,325,319,
0,406,701,155,321,347,
0,401,691,153,319,344,
0,397,682,152,316,340,
0,393,673,151,313,337,
0,390,664,150,311,334,
0,385,671,148,327,330,
0,427,744,160,325,327,
0,422,733,159,322,324,
0,417,723,158,319,321,
0,413,711,156,316,319,
0,409,700,155,312,338,
0,406,690,153,310,335,
0,401,681,152,307,332,
0,398,671,152,304,327,
0,393,664,150,302,326,
0,391,733,148,339,321,
0,412,736,162,335,319,
0,408,726,161,StartUp!
127,514,736,180,339,313,
0,510,728,179,336,312,
0,505,721,178,335,310,
0,502,713,177,332,307,
0,497,707,176,330,305,
0,494,700,175,327,303,
0,491,747,174,348,301,
0,498,785,187,346,299,
0,494,776,185,343,297,
0,489,768,184,340,295,
0,486,756,183,337,292,
0,481,745,181,334,313,
0,475,735,179,331,310,
0,470,724,178,327,305,
0,465,714,176,326,303,
0,461,704,175,323,300,
0,456,696,174,319,297,
0,479,780,172,335,295,
0,498,768,171,332,292,
0,492,755,169,329,290,
0,487,743,168,327,287,
0,481,734,167,323,319,
0,476,723,166,320,316,
0,471,713,164,318,312,
0,465,704,163,316,310,
0,461,694,162,312,307,
0,455,684,161,311,304,
0,484,771,170,326,301,
0,479,759,168,323,299,
0,473,748,167,319,314,
0,468,739,167,319,312,
0,466,729,166,316,327,
0,460,719,164,313,324,
0,455,710,163,311,321,
0,451,700,161,307,318,
0,447,691,160,305,315,
0,443,681,159,327,312,
0,528,779,191,344,310,
0,521,766,188,340,307,
0,515,755,187,337,334,
0,510,743,185,334,330,
0,504,733,184,331,352,
0,497,723,182,327,347,
0,492,713,180,325,344,
0,487,704,179,322,340,
0,482,694,177,319,337,
0,478,686,176,353,334,
1,519,779,200,348,331,
1,512,768,199,344,327,
2,507,755,197,342,336,
2,502,744,195,339,333,
3,496,734,193,335,332,
3,489,723,192,332,327,
3,484,713,190,329,325,
3,479,704,188,327,322,
4,475,695,187,323,319,
4,472,761,185,363,316,
4,556,796,209,359,313,
4,548,783,207,355,312,
4,543,772,206,352,308,
5,536,760,204,348,344,
5,531,750,203,345,339,
5,524,739,199,342,335,
5,518,729,199,339,332,
5,512,719,197,336,329,
5,507,709,195,334,326,
5,519,815,194,369,323,
5,527,797,216,364,319,
5,521,785,214,360,317,
6,516,773,211,358,315,
6,511,762,209,355,331,
5,504,751,208,352,327,
6,499,740,206,348,323,
6,494,730,204,344,319,
6,487,719,203,342,317,
5,483,710,201,339,315,
5,563,782,258,372,312,
5,555,766,255,368,309,
5,548,755,253,364,306,
5,542,743,251,360,304,
5,536,734,248,358,342,
5,528,723,247,355,339,
5,523,713,243,352,334,
5,518,704,241,348,331,
5,512,694,240,345,327,
4,507,685,238,367,325,
5,562,797,236,369,322,
4,555,781,235,365,319,
5,548,769,231,361,316,
4,542,758,231,358,313,
4,536,747,229,355,342,
4,528,736,227,352,339,
4,523,726,225,349,335,
4,518,716,224,345,332,
4,512,707,222,343,327,
4,507,736,220,373,326,
4,542,823,233,369,323,
4,536,806,231,364,319,
3,529,794,229,361,329,
3,524,782,227,358,326,
4,518,771,225,355,329,
4,511,760,224,352,327,
4,506,749,221,348,323,
4,500,738,219,345,319,
4,496,728,217,343,317,
3,500,795,216,367,315,
4,563,811,227,363,312,
4,556,795,225,359,309,
4,550,783,224,355,307,
3,543,771,222,352,328,
4,537,760,220,348,324,
4,531,749,218,345,321,
4,524,739,216,343,318,
4,519,728,215,339,315,
4,514,719,213,336,312,
4,556,799,212,384,310,
4,559,785,227,379,307,
4,551,770,225,374,304,
4,545,759,223,370,302,
4,540,748,221,367,335,
4,534,737,219,364,332,
4,526,727,217,360,329,
4,520,717,216,358,326,
4,515,707,214,354,323,
4,510,698,212,352,319,
4,574,801,220,380,316,
4,566,784,217,377,313,
3,560,773,216,372,313,
3,553,761,215,369,310,
3,547,751,212,366,344,
4,541,739,211,362,340,
3,533,729,209,359,336,
3,527,719,207,355,332,
3,522,710,206,352,329,
3,516,700,204,384,327,
3,556,806,227,380,323,
3,548,790,224,376,319,
3,542,777,223,371,318,
3,536,766,220,368,315,
3,530,755,219,365,360,
3,524,743,217,361,356,
3,518,734,216,358,353,
3,512,723,213,355,350,
3,507,713,211,352,346,
3,502,729,210,380,343,
3,560,800,223,376,339,
3,552,785,221,372,336,
3,546,774,220,368,334,
3,540,762,217,364,334,
3,534,751,216,361,352,
3,527,740,214,358,349,
3,521,730,212,355,345,
3,515,719,210,352,342,
3,510,710,208,348,339,
3,512,791,207,377,335,
3,544,807,224,374,332,
3,537,792,222,370,329,
2,532,779,220,366,327,
2,526,768,219,363,345,
2,519,756,216,359,342,
2,515,745,215,356,338,
2,508,736,212,353,335,
2,503,725,211,350,331,
2,497,716,209,347,327,
2,541,823,216,376,325,
2,543,808,228,371,322,
2,536,793,226,368,319,
2,531,782,224,364,316,
2,525,770,223,360,326,
1,519,759,220,357,323,
1,513,748,219,354,319,
1,507,737,216,352,317,
1,502,728,215,348,313,
1,496,718,214,350,312,
1,553,821,230,384,307,
2,546,807,227,380,305,
1,540,792,225,376,303,
1,534,780,223,371,300,
1,527,769,221,368,327,
1,522,758,219,365,324,
1,516,747,217,361,321,
1,510,736,216,359,319,
1,504,726,214,355,315,
1,499,716,212,385,312,
1,566,819,217,382,309,
1,559,806,215,377,307,
1,551,791,214,374,304,
1,545,779,211,369,301,
1,540,768,209,366,324,
1,534,756,207,363,321,
1,527,745,207,359,318,
1,520,736,204,356,316,
1,515,725,203,353,312,
1,511,747,201,387,309,
1,560,803,220,382,306,
1,552,791,217,379,304,
1,546,775,216,374,300,
0,540,764,214,371,307,
1,535,753,212,367,318,
1,528,743,211,364,315,
0,523,732,208,359,312,
0,515,722,207,358,308,
0,510,712,204,355,305,
0,506,801,204,355,303,
0,524,796,217,352,300,
0,518,783,216,349,297,
1,512,769,214,345,295,
0,506,759,211,343,331,
0,501,748,209,339,327,
0,496,737,207,336,323,
0,491,727,206,334,321,
0,484,716,204,331,318,
0,480,707,203,327,315,
0,543,810,210,373,312,
0,538,796,215,369,308,
0,531,783,213,366,305,
0,526,769,211,361,303,
0,519,760,209,359,329,
0,515,748,207,355,326,
0,509,737,206,352,323,
0,504,727,204,349,319,
0,497,717,203,345,316,
0,492,707,201,344,313,
0,560,811,199,348,311,
0,552,797,198,344,307,
0,546,785,196,342,305,
0,540,771,195,337,302,
0,534,760,193,335,323,
0,527,748,192,332,319,
0,523,737,191,329,316,
0,517,728,190,327,313,
0,510,718,188,323,310,
0,505,708,187,369,307,
0,530,809,203,365,304,
0,524,796,201,361,302,
0,518,785,199,358,299,
0,512,770,198,353,295,
0,507,759,196,351,319,
0,501,748,194,348,316,
0,496,737,193,344,313,
0,491,728,191,342,311,
0,484,717,189,339,307,
0,480,756,188,361,304,
0,537,811,190,358,302,
0,531,798,188,355,299,
0,524,786,187,352,296,
0,519,771,185,348,319,
0,513,760,184,344,323,
0,508,749,184,342,319,
0,503,739,182,338,316,
0,497,728,180,335,313,
0,491,718,179,332,311,
0,519,804,179,364,307,
0,551,790,192,359,305,
0,544,777,191,357,302,
0,538,767,189,353,300,
0,532,752,188,350,327,
0,527,742,186,347,324,
0,520,732,184,344,321,
0,515,721,183,340,319,
0,510,711,182,337,316,
0,504,702,179,335,312,
0,537,804,204,371,309,
0,530,791,209,367,306,
0,524,779,207,364,335,
0,519,768,206,359,332,
0,513,753,204,355,327,
0,507,743,203,352,326,
0,502,732,200,350,322,
0,497,722,199,347,319,
0,492,711,198,344,316,
0,486,703,195,353,313,
0,527,804,265,364,310,
0,519,791,263,360,307,
0,514,779,260,358,304,
0,508,768,258,354,302,
0,504,753,255,351,331,
0,497,743,254,348,327,
0,492,732,251,344,324,
0,487,722,249,342,321,
0,481,711,247,338,318,
0,476,703,244,365,315,
0,532,803,243,361,312,
0,526,791,240,357,308,
0,519,779,239,354,306,
0,514,767,237,351,303,
0,508,753,235,347,321,
0,504,743,233,344,318,
0,498,732,231,340,315,
0,492,721,230,337,312,
0,486,711,227,335,310,
0,482,788,226,370,306,
0,545,836,224,366,303,
0,539,823,222,363,300,
0,532,811,220,359,297,
0,526,798,219,355,299,
0,520,783,217,352,295,
0,515,771,216,348,294,
0,510,760,215,345,291,
0,504,750,212,343,289,
0,497,739,211,339,287,
0,523,827,209,368,284,
0,534,812,207,364,281,
0,527,799,207,360,280,
0,521,787,205,358,277,
0,515,775,204,355,311,
0,510,761,202,350,307,
0,504,751,200,347,304,
0,499,740,199,344,302,
0,494,731,198,340,299,
0,487,720,196,338,295,
0,542,817,195,369,292,
0,534,803,193,366,291,
0,527,792,192,362,287,
0,522,780,191,359,285,
0,516,768,189,355,297,
0,511,754,188,352,295,
0,505,743,187,348,292,
0,500,733,185,345,289,
0,495,723,184,342,287,
0,488,713,183,366,284,
0,542,809,203,374,281,
0,535,796,200,371,279,
0,528,783,199,367,276,
0,523,772,198,364,274,
0,517,759,195,359,305,
0,511,748,194,356,303,
0,505,737,192,353,300,
0,500,727,191,350,297,
0,495,717,190,347,295,
0,488,717,188,366,291,
0,504,812,215,361,288,
0,499,799,212,358,286,
0,493,787,211,355,284,
0,487,775,209,352,280,
0,483,761,207,348,307,
0,478,750,206,344,304,
0,473,739,204,342,301,
0,469,729,202,339,298,
0,464,719,200,335,295,
0,460,786,199,366,293,
0,531,814,204,362,289,
0,525,800,202,359,287,
0,519,788,199,355,285,
0,513,776,199,352,312,
0,508,763,197,348,308,
0,503,752,195,345,305,
0,497,741,194,342,303,
0,492,731,193,339,300,
0,487,720,191,335,297,
0,538,820,190,368,295,
0,555,806,191,364,291,
0,548,793,189,359,288,
0,542,782,188,356,286,
0,536,770,186,353,321,
0,529,755,185,350,318,
0,524,745,184,347,315,
0,519,735,182,344,312,
0,513,724,180,340,308,
0,508,715,179,337,307,
0,545,812,205,359,304,
0,539,798,202,355,300,
0,532,786,200,352,297,
0,527,774,199,348,295,
0,520,763,198,345,313,
0,515,749,195,343,311,
0,510,739,194,339,307,
0,504,728,192,335,304,
0,499,719,191,332,302,
0,494,708,189,364,300,
0,524,817,225,362,295,
0,517,803,224,359,293,
0,511,792,222,355,291,
0,505,780,219,352,287,
0,500,768,217,349,312,
0,495,754,216,345,310,
0,489,743,214,342,307,
0,485,733,212,339,304,
0,480,723,210,335,301,
0,476,736,209,369,299,
0,527,808,207,365,295,
0,521,796,205,361,292,
0,515,783,204,359,289,
0,510,772,201,355,287,
0,504,760,199,352,313,
0,499,748,199,349,311,
0,494,737,197,345,307,
0,488,727,195,342,304,
0,483,716,195,339,302,
0,480,796,193,371,300,
0,539,824,203,367,295,
0,532,810,201,364,293,
0,527,798,199,359,291,
0,520,786,198,356,297,
0,515,775,196,353,294,
0,509,760,195,350,291,
0,504,750,193,347,289,
0,499,739,192,344,287,
0,494,729,191,340,284,
0,489,833,189,364,281,
0,551,818,188,361,280,
0,543,806,186,358,276,
0,538,793,184,354,274,
0,532,782,184,352,284,
0,526,770,182,348,280,
0,520,756,181,344,279,
0,515,745,179,341,275,
0,510,736,178,338,273,
0,504,726,177,335,271,
0,542,818,176,359,269,
0,543,804,192,357,267,
0,537,792,190,353,264,
0,531,780,188,351,263,
0,526,769,187,347,286,
0,519,758,185,344,283,
0,514,744,184,340,280,
0,508,734,183,337,278,
0,504,723,181,335,275,
0,498,714,179,360,273,
0,548,796,196,358,271,
0,540,783,194,353,268,
0,534,772,192,351,265,
0,527,760,191,348,263,
0,521,750,189,344,289,
0,515,739,188,341,286,
0,510,726,186,337,284,
0,504,716,184,335,281,
0,499,707,183,332,278,
0,495,721,182,363,275,
0,545,778,199,359,273,
0,537,766,198,355,271,
0,531,755,195,352,268,
0,525,743,193,349,271,
0,519,734,192,345,285,
0,513,723,191,343,283,
0,508,711,189,339,280,
0,503,701,188,335,278,
0,497,691,186,333,275,
0,492,795,185,363,272,
0,570,854,199,359,270,
0,561,839,198,355,267,
0,555,826,195,352,265,
0,548,814,194,349,291,
0,542,801,192,345,288,
0,536,790,191,343,286,
0,531,775,189,339,283,
0,525,764,188,335,281,
0,519,753,186,333,279,
0,515,845,185,337,275,
0,526,830,198,335,273,
0,519,817,195,332,271,
0,513,804,193,328,268,
0,508,792,192,326,268,
0,503,780,191,323,265,
0,497,770,189,320,263,
0,492,755,188,318,262,
0,487,745,186,315,259,
0,483,736,184,326,258,
0,540,825,183,359,255,
0,556,812,182,355,254,
0,548,799,179,352,251,
0,542,787,179,349,249,
0,536,775,177,345,287,
0,530,764,176,343,284,
0,524,753,175,339,281,
0,519,740,173,335,280,
0,513,730,172,333,276,
0,508,720,171,368,275,
0,537,812,198,363,271,
0,530,799,195,359,269,
0,523,787,193,355,267,
0,516,775,192,352,265,
0,511,764,190,349,286,
0,505,753,188,346,284,
0,500,743,187,343,280,
0,496,729,185,339,279,
0,491,719,184,336,275,
0,486,752,183,358,273,
0,542,803,201,353,271,
0,534,791,199,351,268,
0,527,779,196,348,265,
0,521,768,195,344,280,
0,515,756,193,341,286,
0,510,745,192,337,283,
0,504,735,190,335,280,
0,499,722,189,331,278,
0,494,712,187,328,275,
0,489,795,185,367,273,
0,564,781,195,363,271,
0,555,769,194,359,268,
0,548,758,192,356,265,
0,543,747,190,352,295,
0,536,736,189,350,292,
0,531,726,187,347,289,
0,525,716,185,344,287,
0,519,704,184,339,284,
0,514,695,183,336,281,
0,524,826,182,366,280,
0,545,812,180,362,276,
0,537,799,179,359,274,
0,531,787,177,355,271,
0,525,775,176,352,269,
0,519,764,174,349,267,
0,514,753,173,345,263,
0,508,743,172,344,262,
0,503,729,171,339,260,
0,498,719,169,350,258,
0,535,816,187,367,255,
0,528,803,201,364,254,
0,521,790,199,359,252,
0,515,779,197,356,249,
0,510,768,195,353,278,
0,504,756,193,351,275,
0,499,745,192,348,272,
0,494,735,191,344,270,
0,488,722,189,340,268,
0,484,712,188,364,265,
0,549,780,210,359,263,
0,542,768,207,356,261,
0,534,757,206,353,259,
0,527,746,204,350,257,
0,523,736,201,347,278,
0,516,726,199,344,275,
0,511,716,199,340,271,
0,505,704,196,337,270,
0,500,694,195,334,268,
0,496,742,194,361,265,
0,570,806,207,357,263,
0,563,793,205,353,260,
0,555,782,204,351,258,
0,548,770,201,347,280,
0,542,759,199,344,284,
0,536,748,198,341,282,
0,530,737,196,337,280,
0,524,724,195,335,276,
0,519,714,193,332,275,
0,513,811,192,363,271,
0,563,796,191,359,270,
0,556,783,189,355,271,
0,547,771,188,352,275,
0,542,760,185,350,280,
0,536,749,184,346,277,
0,529,739,183,343,274,
0,524,728,182,339,271,
0,519,716,180,337,270,
0,513,706,179,334,267,
0,519,783,177,364,265,
0,540,769,198,359,263,
0,534,758,196,356,260,
0,526,747,195,353,259,
0,520,736,192,350,284,
0,515,726,191,347,281,
0,510,716,190,344,279,
0,504,706,188,340,276,
0,499,694,187,338,273,
0,494,686,185,352,271,
0,520,796,241,362,269,
0,515,783,252,359,267,
0,508,771,249,355,264,
0,502,759,247,352,263,
0,496,748,244,348,280,
0,491,737,243,345,278,
0,486,728,240,343,275,
0,481,717,239,339,273,
0,476,705,237,337,271,
0,472,696,235,361,268,
0,546,793,233,358,266,
0,539,781,231,353,263,
0,532,769,230,351,262,
0,525,758,227,348,259,
0,519,747,225,344,287,
0,513,736,224,342,284,
0,508,726,222,338,281,
0,503,716,220,335,279,
0,497,704,219,332,276,
0,492,758,217,363,274,
0,547,785,223,359,271,
0,540,772,221,355,268,
0,534,761,220,352,267,
0,526,750,216,350,263,
0,520,739,216,346,296,
0,515,729,214,344,294,
0,510,719,212,339,291,
0,504,709,210,337,288,
0,499,697,209,334,286,
0,494,802,207,359,284,
0,529,788,217,356,281,
0,524,775,216,352,279,
0,518,764,214,350,276,
0,510,753,211,347,295,
0,504,743,210,344,297,
0,499,732,208,340,295,
0,494,722,207,337,292,
0,489,711,205,334,290,
0,484,700,204,331,287,
0,516,795,201,348,284,
0,543,782,252,344,282,
0,537,770,249,340,280,
0,531,759,247,337,278,
0,524,748,244,335,297,
0,518,737,242,332,294,
0,512,727,240,327,291,
0,507,716,238,326,287,
0,502,707,236,323,286,
0,496,696,235,357,284,
0,557,787,233,365,280,
0,550,775,231,361,278,
0,543,763,230,358,275,
0,536,752,227,355,273,
0,529,742,225,352,288,
0,524,731,224,348,285,
0,518,720,222,344,283,
0,512,711,220,342,280,
0,507,701,219,339,278,
0,502,697,217,360,275,
0,545,774,217,356,273,
0,538,761,216,353,271,
0,531,751,214,350,268,
0,526,739,211,347,265,
0,519,729,210,344,280,
0,513,719,207,340,276,
0,508,709,207,337,273,
0,503,700,205,335,271,
0,497,690,204,332,269,
0,492,748,202,361,267,
0,541,760,203,358,263,
0,535,749,201,355,262,
0,528,738,199,352,260,
0,523,728,199,348,259,
0,515,718,196,344,286,
0,510,707,195,342,284,
0,504,697,193,339,280,
0,499,688,192,335,279,
0,494,679,191,332,275,
0,489,783,190,359,273,
0,535,770,201,355,271,
0,528,759,199,352,269,
0,523,748,199,349,267,
0,516,736,196,345,297,
0,510,726,195,343,292,
0,504,716,193,339,290,
0,499,706,192,336,287,
0,494,696,190,334,284,
0,488,688,189,331,282,
0,533,785,188,348,280,
0,543,773,201,344,277,
0,537,761,199,342,275,
0,531,750,198,338,272,
0,525,739,196,335,306,
0,518,728,194,332,302,
0,512,719,192,329,299,
0,507,708,192,327,295,
0,502,699,190,323,294,
0,496,690,188,321,291,
0,541,782,194,353,289,
0,534,769,192,350,286,
0,527,758,191,347,284,
0,521,747,189,344,281,
0,516,736,187,340,316,
0,510,726,185,337,312,
0,504,716,184,335,308,
0,499,706,183,332,305,
0,494,696,182,328,303,
0,488,688,180,353,300,
0,537,762,179,355,297,
0,531,750,177,352,295,
0,525,739,176,349,299,
0,519,728,175,345,295,
0,513,719,174,343,323,
0,506,708,172,339,319,
0,500,699,171,336,316,
0,496,689,170,334,313,
0,491,680,169,331,311,
0,486,684,167,345,307,
0,545,777,185,342,305,
0,539,766,184,339,302,
0,532,754,183,335,300,
0,527,743,180,332,297,
0,519,732,179,329,311,
0,514,722,177,327,307,
0,508,711,176,323,304,
0,504,703,175,321,301,
0,498,693,173,318,299,
0,494,760,172,354,295,
0,544,777,181,350,294,
0,538,766,179,346,291,
0,531,754,178,343,288,
0,526,743,176,339,313,
0,519,732,175,336,309,
0,513,723,173,334,305,
0,508,712,172,331,303,
0,502,703,171,327,300,
0,497,694,169,325,297,
0,545,774,192,350,295,
0,542,758,219,345,292,
0,536,747,216,343,289,
0,529,736,215,339,287,
0,524,726,213,336,305,
0,516,715,211,333,303,
0,511,705,208,331,299,
0,505,696,207,327,295,
0,500,687,206,324,294,
0,496,678,204,322,291,
0,537,775,204,356,287,
0,530,760,202,352,286,
0,524,748,199,348,285,
0,518,737,199,345,283,
0,512,728,198,342,316,
0,505,717,195,339,313,
0,500,707,193,336,310,
0,495,697,192,334,307,
0,489,688,191,330,304,
0,485,679,190,355,301,
0,547,809,189,351,298,
0,540,792,187,347,295,
0,535,781,186,344,293,
0,527,769,184,340,291,
0,523,758,184,337,316,
0,515,747,182,334,313,
0,510,736,180,331,310,
0,504,726,179,327,307,
0,499,716,177,326,304,
0,495,724,176,339,302,
0,527,786,176,335,299,
0,521,774,174,332,295,
0,515,763,173,327,294,
0,510,752,172,326,293,
0,504,740,171,323,312,
0,497,730,169,319,308,
0,492,719,167,317,304,
0,487,710,167,315,302,
0,482,700,166,312,299,
0,491,774,164,345,295,
0,531,776,169,342,294,
0,525,764,167,338,291,
0,519,753,167,335,288,
0,513,743,166,332,327,
0,508,732,164,328,324,
0,501,721,163,326,321,
0,496,711,161,323,318,
0,491,702,160,319,315,
0,486,692,159,318,312,
0,537,792,218,348,308,
0,533,775,240,344,306,
0,527,764,238,341,316,
0,520,753,236,337,312,
0,515,742,234,335,330,
0,510,732,231,332,327,
0,503,721,231,328,323,
0,497,711,228,326,319,
0,492,702,226,323,316,
0,487,692,224,320,313,
0,532,779,223,348,311,
0,525,764,220,344,308,
0,519,752,219,341,305,
0,513,740,217,337,303,
0,508,730,216,335,324,
0,503,719,214,332,321,
0,496,710,211,328,318,
0,491,700,210,326,314,
0,486,691,208,323,312,
0,480,682,207,360,308,
0,508,775,208,356,305,
0,502,760,207,353,303,
0,496,750,205,349,300,
0,491,739,204,345,297,
0,486,728,202,343,324,
0,481,718,199,339,321,
0,475,707,199,336,318,
0,470,698,198,334,315,
0,465,689,195,331,312,
0,462,704,194,366,308,
0,534,765,193,361,306,
0,527,751,192,358,304,
0,521,739,190,353,301,
0,515,729,188,351,311,
0,510,719,188,348,321,
0,504,708,186,344,319,
0,498,699,184,341,316,
0,493,689,183,338,312,
0,487,680,182,335,309,
0,501,775,190,345,307,
0,520,772,226,343,304,
0,515,758,224,339,301,
0,509,747,222,335,298,
0,504,736,220,332,331,
0,497,726,217,329,327,
0,493,716,216,327,324,
0,486,705,214,323,321,
0,481,696,212,321,318,
0,476,687,211,319,315,
0,543,825,213,347,312,
0,536,811,218,344,308,
0,529,795,216,339,306,
0,524,783,215,336,304,
0,518,771,213,334,326,
0,512,760,211,331,321,
0,507,750,209,327,319,
0,500,739,207,324,316,
0,495,728,206,322,312,
0,489,719,204,323,310,
0,542,803,203,350,307,
0,536,791,200,345,304,
0,529,775,199,342,301,
0,523,764,198,339,299,
0,518,753,196,335,312,
0,512,743,195,333,309,
0,506,732,193,329,306,
0,499,722,192,327,304,
0,494,711,190,324,300,
0,489,703,189,358,297,
0,529,788,188,353,295,
0,523,776,186,350,292,
0,518,762,184,345,289,
0,511,751,183,343,287,
0,505,740,182,339,304,
0,500,729,180,336,302,
0,495,719,179,334,299,
0,488,710,177,331,295,
0,483,700,176,327,293,
0,480,732,175,352,291,
0,531,779,193,348,287,
0,526,768,192,345,286,
0,519,752,190,340,284,
0,513,742,188,338,297,
0,508,731,187,335,300,
0,503,721,185,332,297,
0,497,711,184,329,295,
0,491,701,183,327,291,
0,486,692,180,323,289,
0,508,780,179,352,287,
0,518,768,195,348,284,
0,512,755,193,345,281,
0,506,741,192,340,280,
0,500,731,190,337,310,
0,496,719,188,335,307,
0,489,711,187,332,304,
0,485,700,185,328,301,
0,479,691,184,326,297,
0,473,682,182,323,295,
0,515,827,200,345,292,
0,508,812,204,342,289,
0,503,799,201,339,287,
0,497,784,199,335,284,
0,492,773,198,332,291,
0,487,761,196,328,288,
0,482,751,195,326,286,
0,477,739,193,323,284,
0,471,729,192,319,280,
0,466,719,190,331,278,
0,541,825,192,344,275,
0,534,811,190,340,273,
0,527,799,188,337,271,
0,522,783,187,334,269,
0,516,771,184,331,284,
0,511,760,184,327,281,
0,505,750,182,324,279,
0,500,739,180,321,276,
0,494,729,179,319,273,
0,488,719,177,353,271,
0,521,793,191,350,269,
0,515,780,189,346,267,
0,510,769,188,344,263,
0,504,755,185,339,263,
0,499,744,184,335,295,
0,493,734,183,333,291,
0,487,723,182,330,288,
0,483,713,180,327,286,
0,476,704,178,324,283,
0,472,748,177,352,280,
0,504,775,190,348,278,
0,497,763,188,345,275,
0,492,752,187,342,273,
0,487,738,185,339,289,
0,481,728,184,335,291,
0,476,717,182,332,288,
0,472,707,180,329,286,
0,465,698,179,327,283,
0,461,689,177,323,280,
0,496,764,176,348,278,
0,511,752,189,345,275,
0,504,740,188,342,273,
0,499,729,185,339,271,
0,494,716,184,335,271,
0,488,707,183,332,269,
0,483,696,181,328,267,
0,479,688,179,326,264,
0,472,679,178,323,263,
0,467,670,176,319,260,
0,516,751,180,324,258,
0,510,739,179,321,255,
0,504,728,177,318,254,
0,499,718,176,316,252,
0,493,705,175,312,281,
0,487,696,173,310,279,
0,483,686,172,307,276,
0,478,676,171,305,274,
0,472,668,169,303,271,
0,467,659,167,313,269,
0,518,755,184,329,267,
0,512,743,182,326,263,
0,505,732,180,323,263,
0,500,721,179,319,262,
0,495,709,177,316,304,
0,489,699,176,313,302,
0,484,690,175,312,299,
0,480,680,173,308,295,
0,473,671,172,305,294,
0,468,668,170,340,290,
0,526,770,179,335,287,
0,519,758,178,333,285,
0,513,747,176,329,283,
0,508,736,175,327,280,
0,502,723,173,323,289,
0,497,712,172,319,287,
0,492,703,171,318,284,
0,487,694,169,315,281,
0,480,684,167,312,279,
0,476,734,167,348,276,
0,503,751,185,344,273,
0,497,739,184,342,271,
0,492,728,182,339,269,
0,487,716,180,335,287,
0,481,705,179,332,285,
0,476,696,177,328,283,
0,472,687,176,326,280,
0,467,678,175,323,278,
0,461,669,173,319,275,
0,487,760,172,347,271,
0,489,747,185,344,270,
0,483,736,184,340,267,
0,479,724,182,337,265,
0,473,711,180,334,289,
0,468,702,179,330,287,
0,463,692,177,327,284,
0,459,683,176,324,281,
0,455,674,175,321,280,
0,449,665,173,319,276,
0,529,767,181,352,273,
0,522,754,179,348,271,
0,516,743,177,345,269,
0,511,732,176,342,267,
0,504,719,175,339,300,
0,499,710,173,335,297,
0,494,700,172,332,295,
0,488,689,171,329,292,
0,483,680,169,326,289,
0,478,671,167,341,287,
0,494,777,188,340,284,
0,487,765,187,337,281,
0,483,753,185,335,279,
0,477,743,184,332,276,
0,472,728,182,328,295,
0,467,719,180,325,294,
0,463,709,179,322,291,
0,459,699,177,319,288,
0,454,690,176,317,286,
0,449,693,174,339,284,
0,499,775,184,335,280,
0,493,764,182,333,278,
0,487,752,180,329,275,
0,483,741,179,327,273,
0,478,728,177,323,295,
0,472,718,176,319,291,
0,467,707,174,318,289,
0,463,698,173,315,287,
0,458,689,172,312,284,
0,453,749,170,339,281,
0,460,755,171,335,279,
0,455,743,169,332,276,
0,450,733,167,328,274,
0,446,723,166,326,271,
0,441,710,166,323,270,
0,438,700,163,319,267,
0,434,691,163,316,265,
0,430,681,161,313,263,
0,426,672,160,312,260,
0,479,769,163,345,259,
0,494,756,182,342,255,
0,487,745,179,338,254,
0,483,735,179,335,252,
0,478,724,177,332,283,
0,473,711,176,329,280,
0,468,702,174,326,276,
0,463,692,172,323,275,
0,459,683,171,319,271,
0,454,673,170,318,270,
0,504,771,183,346,268,
0,497,759,180,343,263,
0,492,748,179,339,262,
0,486,736,177,335,259,
0,481,726,176,333,290,
0,476,713,175,329,287,
0,472,704,173,327,284,
0,466,694,172,323,281,
0,461,684,171,321,280,
0,456,675,169,345,277,
0,499,744,179,344,275,
0,493,733,177,340,271,
0,487,723,176,337,269,
0,483,711,175,334,267,
0,478,702,173,331,269,
0,472,690,172,327,267,
0,467,681,171,324,263,
0,463,671,169,321,262,
0,457,664,167,319,260,
0,454,680,167,356,258,
0,448,751,243,352,255,
0,444,740,240,348,253,
0,440,729,238,345,251,
0,435,719,236,343,258,
0,432,708,233,339,289,
0,428,696,231,335,286,
0,423,687,230,332,284,
0,419,678,227,329,281,
0,415,669,226,327,279,
0,412,747,224,350,276,
0,505,739,222,346,273,
0,499,729,220,343,271,
0,494,719,219,339,268,
0,488,708,216,337,308,
0,483,699,215,334,304,
0,479,687,214,330,301,
0,473,678,211,327,298,
0,468,669,210,324,295,
0,463,660,208,321,293,
0,470,775,207,345,291,
0,537,761,205,342,287,
0,531,751,204,338,284,
0,526,739,202,335,282,
0,519,728,200,332,312,
0,514,719,199,329,308,
0,508,706,198,326,305,
0,504,696,196,323,303,
0,497,687,195,319,300,
0,492,678,193,319,298,
0,532,771,192,347,295,
0,535,760,191,344,291,
0,528,748,190,340,289,
0,523,737,188,337,287,
0,517,727,187,334,314,
0,511,716,185,331,311,
0,505,704,184,327,308,
0,500,695,183,324,305,
0,495,685,181,321,303,
0,490,676,180,353,300,
0,553,772,188,349,297,
0,543,760,186,345,294,
0,537,748,184,342,291,
0,531,737,183,339,288,
0,526,728,182,335,322,
0,519,717,180,333,319,
0,514,704,179,329,316,
0,509,695,177,327,313,
0,504,686,176,324,310,
0,499,715,175,345,307,
0,553,779,176,342,304,
0,545,768,175,338,301,
0,539,755,173,335,299,
0,533,744,172,332,304,
0,527,734,171,329,318,
0,521,723,169,327,315,
0,515,711,167,323,312,
0,510,702,167,319,309,
0,504,692,166,317,306,
0,499,767,165,339,304,
0,545,753,184,335,300,
0,537,743,183,332,297,
0,531,732,181,329,295,
0,526,721,179,326,332,
0,519,711,178,323,327,
0,514,702,177,319,323,
0,508,690,175,317,321,
0,504,680,174,314,318,
0,498,671,172,312,315,
0,504,774,172,348,312,
0,551,760,196,344,310,
0,544,750,194,341,306,
0,539,739,192,338,304,
0,532,728,191,335,327,
0,527,718,189,332,324,
0,520,707,188,328,321,
0,515,696,185,325,319,
0,510,687,184,323,316,
0,504,678,184,326,313,
0,569,806,182,351,310,
0,570,792,180,348,307,
0,563,780,178,344,304,
0,557,769,177,342,301,
0,551,758,176,338,335,
0,544,747,174,335,333,
0,539,736,173,332,329,
0,532,723,172,327,327,
0,527,713,170,326,323,
0,521,704,169,364,320,
0,550,696,184,359,318,
0,542,686,182,356,315,
0,536,676,180,353,312,
0,529,668,179,350,308,
0,524,659,177,347,319,
0,518,652,176,344,316,
0,512,641,174,340,313,
0,507,633,173,337,311,
0,502,627,172,334,307,
0,497,676,171,348,305,
0,569,743,168,344,303,
0,560,732,167,341,300,
0,553,721,166,338,296,
0,547,711,165,335,300,
0,541,700,163,332,301,
0,536,691,163,329,298,
0,529,682,161,327,295,
0,524,671,160,323,293,
0,518,662,159,319,291,
0,513,768,158,330,287,
0,557,762,177,327,286,
0,549,751,175,323,284,
0,543,739,174,321,280,
0,536,728,172,318,307,
0,531,719,171,316,304,
0,525,708,169,313,300,
0,519,696,167,310,298,
0,514,688,167,307,295,
0,508,679,166,304,293,
0,519,750,164,337,290,
0,543,738,184,335,287,
0,536,728,183,332,285,
0,530,717,180,327,281,
0,524,707,179,326,300,
0,519,697,177,323,297,
0,513,688,176,319,295,
0,508,676,175,317,291,
0,502,668,173,313,289,
0,497,659,172,323,287,
0,551,766,187,340,284,
0,545,753,200,337,281,
0,537,743,199,334,280,
0,531,732,196,331,276,
0,526,722,195,327,300,
0,519,711,193,325,297,
0,514,702,192,322,295,
0,508,690,190,319,291,
0,504,680,188,316,289,
0,498,671,188,344,287,
0,566,768,195,339,284,
0,558,756,195,335,281,
0,550,745,192,333,280,
0,543,734,191,329,276,
0,537,724,189,327,297,
0,531,713,188,323,295,
0,526,704,185,321,291,
0,519,692,184,319,289,
0,515,683,184,315,287,
0,509,742,182,348,284,
0,547,799,214,344,281,
0,540,787,211,340,280,
0,532,775,208,337,276,
0,526,764,207,334,284,
0,520,753,205,331,281,
0,515,743,204,327,279,
0,509,732,201,326,276,
0,504,719,199,323,273,
0,499,710,199,319,271,
0,494,778,197,328,270,
0,520,765,201,326,267,
0,515,753,199,322,265,
0,508,743,198,319,263,
0,502,732,196,316,281,
0,496,721,195,313,279,
0,492,711,193,312,276,
0,487,702,192,308,273,
0,482,690,190,306,271,
0,477,681,188,303,269,
0,496,806,188,334,267,
0,513,792,198,331,263,
0,508,780,196,327,262,
0,500,768,194,324,259,
0,495,756,192,321,289,
0,489,745,191,319,287,
0,484,736,189,316,284,
0,480,726,188,313,281,
0,475,713,186,311,279,
0,470,704,185,335,276,
0,543,798,193,349,274,
0,538,785,192,345,271,
0,531,774,191,343,269,
0,524,761,189,339,267,
0,519,751,187,335,293,
0,513,740,185,333,290,
0,508,729,184,330,287,
0,502,719,183,327,285,
0,497,707,182,323,283,
0,492,711,180,345,280,
0,531,809,179,342,278,
0,525,796,178,338,275,
0,519,784,177,335,272,
0,512,772,175,332,270,
0,507,761,174,328,298,
0,502,751,172,326,295,
0,496,740,171,323,292,
0,491,729,169,319,289,
0,486,717,168,316,287,
0,481,778,167,358,285,
0,530,799,191,353,282,
0,524,786,189,350,280,
0,518,775,187,347,278,
0,511,763,185,344,275,
0,505,752,184,340,275,
0,499,741,183,337,271,
0,495,731,180,335,270,
0,489,720,179,332,268,
0,484,708,178,327,265,
0,480,805,176,356,263,
0,534,792,196,352,261,
0,527,779,194,349,259,
0,521,768,192,345,257,
0,515,756,190,344,280,
0,509,745,189,339,277,
0,504,735,188,336,275,
0,498,724,185,334,271,
0,492,715,184,331,270,
0,487,703,183,327,268,
0,521,760,182,364,265,
0,530,748,195,359,263,
0,524,736,193,356,260,
0,518,726,192,353,258,
0,511,716,190,350,280,
0,505,706,188,347,278,
0,500,696,187,344,275,
0,495,687,185,340,272,
0,489,679,184,337,270,
0,484,668,183,363,268,
0,551,766,203,364,265,
0,543,754,199,359,263,
0,537,743,199,356,261,
0,531,732,196,353,259,
0,524,721,195,350,255,
0,518,711,193,347,254,
0,512,702,192,344,252,
0,507,692,190,341,249,
0,502,684,188,338,248,
0,496,689,188,361,247,
0,561,773,194,358,244,
0,553,761,192,353,243,
0,547,750,191,351,259,
0,542,739,189,348,257,
0,534,728,187,344,270,
0,527,718,185,342,268,
0,523,708,184,338,265,
0,517,699,183,335,263,
0,511,689,181,332,260,
0,506,761,180,351,258,
0,526,778,205,348,255,
0,519,767,203,344,254,
0,514,755,201,340,257,
0,508,743,199,337,255,
0,502,734,198,335,279,
0,496,723,195,332,275,
0,492,713,194,329,273,
0,487,704,193,327,271,
0,481,695,191,323,268,
0,478,788,190,348,266,
0,551,775,205,344,263,
0,543,764,203,340,262,
0,537,752,201,337,259,
0,531,741,199,334,286,
0,524,731,198,331,281,
0,518,720,195,327,279,
0,512,711,194,326,276,
0,508,701,192,323,274,
0,502,691,191,319,271,
0,537,798,190,358,269,
0,537,784,199,353,267,
0,531,772,199,350,265,
0,525,761,196,347,263,
0,518,750,195,344,283,
0,512,739,193,341,280,
0,507,729,192,338,276,
0,502,719,190,335,274,
0,496,709,188,332,271,
0,491,700,187,329,270,
0,544,851,217,348,267,
0,537,836,215,344,264,
0,531,824,214,341,263,
0,526,811,211,338,260,
0,519,799,209,335,297,
0,512,787,207,332,293,
0,507,775,206,329,291,
0,502,764,204,327,287,
0,496,753,202,323,285,
0,492,743,201,352,283,
0,535,871,273,358,280,
0,527,856,270,354,278,
0,521,843,268,352,281,
0,516,830,264,348,279,
0,509,816,263,344,302,
0,504,804,259,342,297,
0,499,793,257,339,295,
0,493,782,255,335,292,
0,487,770,253,332,289,
0,483,769,252,361,287,
0,540,835,253,357,285,
0,532,823,251,353,282,
0,527,809,248,350,280,
0,520,798,247,347,279,
0,513,786,244,344,301,
0,508,775,242,340,297,
0,503,764,240,337,295,
0,497,753,239,335,291,
0,492,743,236,332,289,
0,487,806,235,359,287,
0,504,814,238,354,284,
0,499,801,236,351,283,
0,493,790,233,347,280,
0,487,777,231,344,303,
0,481,766,230,341,300,
0,477,755,228,338,295,
0,472,744,227,335,294,
0,467,734,224,332,291,
0,463,724,223,329,288,
0,514,816,222,359,286,
0,517,803,230,355,283,
0,511,791,228,352,280,
0,505,779,226,350,278,
0,499,768,224,345,276,
0,493,756,223,343,274,
0,487,745,220,339,271,
0,483,735,219,336,269,
0,478,724,217,334,267,
0,473,715,216,331,265,
0,549,792,215,362,263,
0,542,779,212,358,260,
0,536,768,211,355,259,
0,529,756,209,352,255,
0,523,745,207,348,275,
0,516,735,206,344,272,
0,511,724,204,342,269,
0,505,715,203,339,267,
0,499,705,201,335,263,
0,495,696,199,368,262,
0,536,792,208,364,259,
0,529,779,207,359,257,
0,524,768,205,356,255,
0,518,756,203,353,254,
0,512,745,201,350,271,
0,505,735,199,347,270,
0,499,724,198,344,266,
0,495,715,196,341,263,
0,489,704,195,338,262,
0,484,739,194,359,259,
0,529,803,262,355,257,
0,523,790,259,352,255,
0,518,778,256,348,252,
0,512,767,255,345,255,
0,506,755,252,342,294,
0,499,744,249,339,291,
0,494,735,248,335,287,
0,489,724,246,333,284,
0,484,715,243,331,282,
0,492,786,241,361,280,
0,531,785,240,358,277,
0,526,774,238,353,275,
0,519,762,236,350,272,
0,513,752,233,347,300,
0,508,740,231,344,296,
0,502,730,230,340,294,
0,496,719,228,337,291,
0,491,710,226,335,287,
0,486,700,224,332,286,
0,533,831,223,359,283,
0,529,814,222,355,280,
0,523,801,220,352,278,
0,518,788,218,348,275,
0,511,777,216,345,300,
0,505,766,215,343,295,
0,499,755,212,339,294,
0,494,743,211,335,291,
0,488,734,210,333,287,
0,483,723,207,331,286,
0,523,799,208,344,283,
0,516,783,207,340,280,
0,511,772,205,337,278,
0,504,760,204,334,275,
0,499,750,202,331,280,
0,494,739,200,327,277,
0,487,728,199,325,275,
0,483,718,198,322,271,
0,478,709,196,319,269,
0,472,700,195,351,267,
0,536,796,195,347,264,
0,529,780,193,342,263,
0,524,768,192,339,260,
0,518,758,191,335,259,
0,512,747,189,333,290,
0,507,736,188,329,287,
0,499,726,186,327,284,
0,494,716,184,324,281,
0,489,706,184,321,279,
0,485,771,183,355,276,
0,547,879,190,351,273,
0,541,860,188,347,271,
0,535,846,186,344,269,
0,529,832,184,340,280,
0,523,820,184,337,286,
0,518,807,182,334,283,
0,510,796,180,331,280,
0,505,784,179,327,277,
0,499,774,178,326,275,
0,511,824,176,359,271,
0,531,809,179,355,270,
0,524,793,177,352,267,
0,519,782,176,348,265,
0,513,769,175,345,302,
0,508,759,174,342,298,
0,502,748,172,339,295,
0,496,738,171,335,292,
0,491,728,169,333,289,
0,486,719,168,330,287,
0,534,827,198,342,284,
0,527,813,198,339,281,
0,521,797,196,335,280,
0,515,785,195,332,277,
0,510,774,193,329,292,
0,504,762,192,326,289,
0,499,752,190,323,287,
0,492,740,188,319,283,
0,487,731,187,318,280,
0,483,721,185,323,279,
0,530,803,184,345,275,
0,524,790,182,342,273,
0,518,775,180,337,271,
0,512,764,179,335,268,
0,506,753,178,332,292,
0,500,742,176,327,290,
0,496,732,176,326,287,
0,489,721,174,323,284,
0,483,711,172,319,281,
0,480,703,171,351,280,
0,537,802,190,347,276,
0,531,790,188,343,274,
0,524,775,187,339,271,
0,519,764,185,335,270,
0,513,752,184,332,291,
0,508,742,182,329,287,
0,503,731,180,327,285,
0,496,721,179,323,282,
0,491,711,177,321,280,
0,486,745,176,350,277,
0,525,792,229,346,274,
0,519,779,227,343,272,
0,513,764,225,339,270,
0,508,753,223,335,278,
0,502,742,221,332,275,
0,496,732,219,329,272,
0,492,721,217,327,270,
0,486,711,216,323,267,
0,480,702,214,321,264,
0,508,796,211,347,263,
0,518,782,210,344,260,
0,511,769,208,340,259,
0,505,755,207,336,255,
0,500,744,205,333,286,
0,496,734,204,331,284,
0,489,723,202,327,280,
0,484,713,200,324,278,
0,478,704,199,321,275,
0,473,696,197,319,273,
0,529,781,197,350,270,
0,522,768,195,347,268,
0,516,758,193,344,265,
0,511,743,192,339,263,
0,505,733,191,335,290,
0,499,722,190,333,287,
0,495,712,188,331,284,
0,487,703,187,327,281,
0,483,694,184,324,279,
0,478,684,184,328,276,
0,522,760,258,332,273,
0,515,747,255,329,271,
0,510,736,253,326,270,
0,504,723,251,323,267,
0,498,712,248,319,288,
0,493,703,246,317,286,
0,487,693,244,315,283,
0,481,684,242,312,280,
0,476,675,240,310,277,
0,472,667,238,335,275,
0,547,775,236,332,272,
0,540,764,234,328,270,
0,535,753,231,326,268,
0,528,739,231,322,265,
0,523,728,228,319,295,
0,516,718,227,316,291,
0,511,708,225,313,289,
0,504,699,224,312,286,
0,499,689,221,308,284,
0,495,742,220,350,280,
0,525,775,218,346,279,
0,519,763,216,343,275,
0,513,752,215,339,273,
0,508,738,214,335,295,
0,502,728,211,332,295,
0,496,718,210,329,292,
0,491,707,208,327,289,
0,485,698,207,323,287,
0,480,688,205,321,284,
0,524,811,204,341,281,
0,556,801,203,337,279,
0,550,788,201,335,276,
0,543,776,199,332,274,
0,536,763,198,327,297,
0,531,751,196,325,294,
0,526,740,195,322,291,
0,519,730,193,319,288,
0,512,719,192,316,286,
0,507,710,191,313,283,
0,524,796,199,351,280,
0,516,783,198,347,278,
0,511,771,195,344,275,
0,505,756,194,340,273,
0,499,745,192,336,295,
0,495,735,191,334,294,
0,489,724,190,331,291,
0,485,715,188,327,287,
0,479,705,187,325,286,
0,474,696,185,342,282,
0,531,781,216,348,280,
0,524,768,215,344,277,
0,518,758,212,341,275,
0,512,743,211,337,272,
0,507,732,209,334,299,
0,502,723,207,331,295,
0,496,712,206,327,294,
0,491,703,204,326,291,
0,484,694,202,323,287,
0,480,688,199,353,286,
0,505,775,214,350,283,
0,499,763,212,346,280,
0,494,752,210,344,278,
0,488,738,208,339,275,
0,483,728,207,335,297,
0,479,717,205,333,295,
0,473,707,204,330,292,
0,469,697,201,327,289,
0,463,688,199,324,287,
0,461,744,199,358,284,
0,531,768,203,354,281,
0,525,756,200,351,279,
0,519,745,199,348,276,
0,513,732,198,344,291,
0,508,721,196,340,287,
0,503,711,194,337,286,
0,497,702,193,334,283,
0,492,692,192,332,280,
0,486,683,190,328,278,
0,521,792,188,354,275,
0,529,779,204,351,272,
0,524,768,203,348,270,
0,518,755,200,344,268,
0,512,742,199,341,301,
0,507,732,198,337,298,
0,501,721,195,334,295,
0,496,711,194,331,292,
0,491,702,192,327,289,
0,484,692,191,326,287,
0,531,796,204,348,284,
0,524,783,202,344,281,
0,518,771,199,340,280,
0,512,760,199,337,276,
0,507,747,197,334,298,
0,502,736,195,331,295,
0,496,726,193,327,292,
0,491,716,192,325,289,
0,486,706,191,322,287,
0,480,696,189,353,285,
0,536,794,204,352,281,
0,529,781,202,349,279,
0,524,769,199,346,276,
0,518,758,199,343,274,
0,512,744,197,339,300,
0,507,734,195,335,296,
0,500,723,193,332,294,
0,496,713,192,329,291,
0,491,704,191,327,288,
0,484,707,188,348,286,
0,502,783,206,344,283,
0,496,771,204,340,280,
0,491,760,201,337,278,
0,486,748,199,334,275,
0,480,735,199,331,295,
0,476,724,196,327,292,
0,471,715,195,324,290,
0,466,704,193,321,287,
0,462,696,192,319,285,
0,467,769,190,345,283,
0,508,787,248,342,280,
0,502,775,245,339,276,
0,497,764,243,335,275,
0,492,752,240,332,300,
0,487,739,239,327,295,
0,481,728,236,326,294,
0,476,718,235,323,291,
0,472,708,232,319,288,
0,467,699,231,317,286,
0,511,797,228,350,284,
0,507,783,233,346,280,
0,502,772,231,343,278,
0,496,760,230,339,275,
0,491,750,227,336,299,
0,486,736,226,332,295,
0,480,726,224,329,294,
0,476,716,222,327,290,
0,471,706,220,323,287,
0,465,696,219,322,286,
0,519,796,220,355,282,
0,512,783,217,352,280,
0,507,771,216,348,277,
0,500,760,215,344,275,
0,496,748,212,342,272,
0,490,735,211,337,270,
0,485,725,209,335,268,
0,480,715,207,332,265,
0,475,705,206,329,263,
0,470,696,205,355,262,
0,520,798,205,351,259,
0,514,784,203,347,256,
0,508,772,201,344,255,
0,503,761,199,340,252,
0,497,750,199,337,273,
0,492,736,197,334,271,
0,487,727,195,331,268,
0,481,716,194,327,265,
0,476,707,193,325,263,
0,472,730,192,356,261,
0,513,798,192,352,258,
0,507,785,191,349,255,
0,501,774,189,345,255,
0,496,762,188,343,255,
0,490,752,186,339,276,
0,484,738,184,335,273,
0,480,728,184,332,271,
0,475,718,182,329,268,
0,470,707,181,327,267,
0,465,792,179,350,263,
0,525,796,195,347,261,
0,519,783,193,344,259,
0,513,771,192,340,257,
0,508,760,190,337,286,
0,502,750,188,334,283,
0,496,736,187,331,280,
0,492,726,185,327,278,
0,487,716,184,324,275,
0,481,706,183,322,273,
0,486,816,182,352,270,
0,529,801,219,348,268,
0,523,790,217,344,278,
0,518,777,216,342,275,
0,511,766,214,338,292,
0,505,755,211,335,289,
0,500,742,209,332,287,
0,495,731,208,328,284,
0,490,721,207,326,281,
0,485,711,205,327,280,
0,519,782,203,358,276,
0,515,770,201,354,273,
0,509,758,199,351,271,
0,504,747,198,348,268,
0,498,736,196,344,289,
0,493,726,195,341,287,
0,487,713,193,337,284,
0,483,704,192,335,281,
0,478,694,191,332,279,
0,473,686,189,356,276,
0,535,799,196,352,273,
0,527,787,194,349,271,
0,521,775,192,345,268,
0,515,764,191,343,266,
0,511,753,189,339,304,
0,504,742,188,336,301,
0,499,729,186,332,298,
0,494,719,185,329,295,
0,489,709,184,327,293,
0,484,737,182,348,291,
0,526,783,181,344,287,
0,519,771,179,342,285,
0,514,760,178,339,282,
0,508,749,176,335,294,
0,503,738,176,332,304,
0,497,728,174,329,301,
0,492,716,173,326,298,
0,487,705,172,323,295,
0,481,696,171,319,292,
0,477,796,169,344,291,
0,540,822,184,340,287,
0,534,809,182,337,284,
0,527,797,180,334,282,
0,521,785,179,331,318,
0,515,774,177,327,313,
0,510,763,176,326,311,
0,505,748,175,321,307,
0,499,739,174,319,305,
0,495,728,172,316,303,
0,499,800,171,358,300,
0,515,787,184,355,297,
0,510,775,182,352,294,
0,504,764,180,348,291,
0,499,752,179,344,316,
0,494,742,177,342,313,
0,487,732,176,339,310,
0,483,719,174,335,307,
0,479,709,173,332,304,
0,473,700,172,337,302,
0,523,792,175,361,299,
0,520,779,184,358,295,
0,515,768,183,355,294,
0,509,756,181,352,291,
0,504,745,179,349,313,
0,498,735,178,345,310,
0,493,722,177,343,307,
0,487,711,175,339,304,
0,483,703,174,335,302,
0,478,694,172,358,299,
0,531,774,174,354,295,
0,523,761,172,351,294,
0,516,751,171,348,291,
0,511,739,169,344,287,
0,505,729,167,341,310,
0,499,719,167,338,307,
0,495,707,166,335,304,
0,489,697,164,332,301,
0,484,688,163,328,299,
0,480,743,163,359,295,
0,524,782,255,355,294,
0,516,769,253,352,291,
0,511,759,250,348,289,
0,504,747,248,345,289,
0,499,736,246,342,287,
0,494,726,243,339,284,
0,488,713,241,335,281,
0,483,704,240,332,280,
0,479,694,238,329,277,
0,474,812,236,361,275,
0,523,799,238,357,272,
0,515,787,236,353,270,
0,510,775,233,351,268,
0,504,764,231,348,297,
0,499,752,230,344,294,
0,494,742,227,341,291,
0,487,728,226,338,288,
0,483,719,224,335,286,
0,478,708,223,332,284,
0,496,831,221,357,281,
0,523,817,220,353,279,
0,515,804,217,350,276,
0,510,792,216,347,273,
0,504,780,214,344,295,
0,499,769,212,340,291,
0,493,758,211,337,289,
0,487,744,209,335,286,
0,483,734,207,331,284,
0,478,724,206,343,281,
0,534,787,210,354,279,
0,527,774,211,351,276,
0,519,763,209,348,274,
0,513,751,207,344,271,
0,508,740,206,341,276,
0,502,730,204,338,273,
0,497,719,203,335,271,
0,492,707,201,332,269,
0,487,698,199,328,267,
0,481,689,199,355,264,
0,531,736,199,352,263,
0,524,726,197,348,260,
0,518,715,195,345,258,
0,512,704,194,342,255,
0,505,696,192,339,289,
0,500,686,191,335,287,
0,496,676,190,332,284,
0,490,667,188,329,281,
0,485,659,187,326,280,
0,480,713,185,347,276,
0,518,766,215,344,274,
0,511,754,212,340,271,
0,504,743,211,337,270,
0,499,732,208,334,295,
0,493,722,207,331,292,
0,487,711,205,327,289,
0,483,702,204,326,287,
0,478,691,201,321,284,
0,473,681,199,319,281,
0,468,780,199,347,280,
0,496,767,259,344,276,
0,490,755,255,340,274,
0,483,743,252,337,271,
0,478,733,250,334,281,
0,473,723,248,331,278,
0,468,712,246,327,275,
0,463,703,244,324,273,
0,459,691,242,321,271,
0,455,681,240,319,268,
0,487,770,238,350,266,
0,514,758,236,347,263,
0,508,747,235,343,262,
0,501,736,231,339,259,
0,496,726,231,337,286,
0,490,716,228,334,284,
0,485,705,227,331,280,
0,480,696,225,327,278,
0,475,684,224,324,275,
0,471,675,222,339,273,
0,519,776,224,339,271,
0,512,764,233,336,268,
0,506,753,231,333,266,
0,499,742,230,330,263,
0,494,732,227,327,307,
0,488,721,225,324,304,
0,483,711,224,321,302,
0,479,702,222,319,299,
0,473,689,220,316,295,
0,469,708,219,335,294,
0,528,799,220,332,291,
0,521,787,217,329,288,
0,515,775,216,327,295,
0,508,764,214,323,295,
0,503,752,212,319,330,
0,497,742,211,318,327,
0,492,732,209,315,323,
0,487,721,207,312,319,
0,482,708,206,309,318,
0,477,764,205,343,315,
0,519,776,204,339,312,
0,513,764,201,335,309,
0,508,753,199,332,307,
0,501,743,199,329,327,
0,496,732,197,327,323,
0,491,721,195,323,321,
0,486,711,194,321,318,
0,480,702,193,318,315,
0,476,690,192,315,312,
0,472,771,190,348,309,
0,508,759,195,344,306,
0,503,747,193,341,304,
0,497,736,192,338,301,
0,491,726,190,335,312,
0,485,716,188,332,310,
0,480,705,187,329,307,
0,475,696,185,326,304,
0,471,687,184,323,301,
0,465,675,183,319,299,
0,502,778,182,352,295,
0,523,766,180,348,294,
0,516,754,179,344,291,
0,511,743,178,342,288,
0,504,732,176,338,297,
0,498,722,175,335,295,
0,493,711,174,332,292,
0,487,702,172,329,289,
0,483,693,172,327,287,
0,478,681,170,347,285,
0,550,793,169,344,282,
0,542,781,167,339,280,
0,536,769,167,337,279,
0,529,758,166,334,275,
0,522,747,164,331,273,
0,516,736,163,327,271,
0,511,726,162,325,268,
0,505,716,161,321,267,
0,499,706,159,319,263,
0,495,728,159,344,263,
0,511,828,180,340,260,
0,504,814,178,336,258,
0,499,801,177,334,255,
0,492,789,175,331,254,
0,487,777,174,327,276,
0,482,766,172,324,273,
0,478,755,171,321,271,
0,472,744,169,319,269,
0,468,734,167,316,267,
0,463,795,167,345,263,
0,507,791,167,343,262,
0,501,778,166,339,259,
0,496,767,164,335,257,
0,488,755,163,332,255,
0,483,744,162,329,270,
0,478,734,161,327,268,
0,473,723,159,323,265,
0,468,713,158,321,263,
0,463,704,157,319,261,
0,460,771,156,338,259,
0,489,759,185,335,255,
0,484,748,184,332,254,
0,479,736,183,328,252,
0,472,726,181,326,278,
0,467,716,179,323,273,
0,463,705,177,319,271,
0,459,696,176,317,269,
0,454,687,175,315,267,
0,449,679,174,312,263,
0,494,760,173,343,262,
0,504,747,193,339,259,
0,499,736,191,335,257,
0,494,726,190,333,255,
0,487,716,188,330,284,
0,481,705,186,327,280,
0,477,696,184,324,278,
0,472,687,183,321,275,
0,467,678,182,319,273,
0,463,669,180,316,271,
0,510,760,192,344,268,
0,503,748,190,341,266,
0,497,736,188,337,263,
0,492,726,186,334,261,
0,486,716,185,332,295,
0,480,705,183,327,292,
0,475,696,182,326,290,
0,471,686,180,323,287,
0,465,678,179,319,284,
0,461,696,177,345,283,
0,511,755,193,344,280,
0,504,743,192,340,278,
0,499,734,190,337,275,
0,493,723,188,334,271,
0,487,712,187,331,300,
0,481,703,184,327,296,
0,476,693,183,325,294,
0,472,684,182,322,291,
0,467,675,180,319,289,
0,463,756,179,348,286,
0,499,752,195,344,284,
0,494,740,194,340,281,
0,487,729,192,337,279,
0,483,719,191,334,280,
0,476,710,189,331,304,
0,472,700,187,327,300,
0,467,690,185,324,297,
0,462,680,184,322,295,
0,457,671,183,319,291,
0,463,768,205,352,289,
0,503,755,255,347,287,
0,496,743,252,344,284,
0,492,732,249,340,281,
0,486,722,248,337,297,
0,480,712,246,335,295,
0,475,703,243,332,291,
0,470,694,240,328,288,
0,465,684,239,326,286,
0,460,675,237,323,284,
0,518,688,235,344,280,
0,534,678,233,339,278,
0,527,668,231,336,275,
0,521,659,230,334,273,
0,515,652,227,331,297,
0,508,643,225,327,295,
0,504,636,224,324,291,
0,498,629,222,321,287,
0,493,622,220,319,286,
0,487,615,219,317,284,
0,537,735,217,354,280,
0,531,723,216,350,278,
0,525,713,214,346,275,
0,519,703,212,344,273,
0,513,694,211,339,310,
0,506,684,209,337,307,
0,500,675,207,334,303,
0,496,666,206,331,300,
0,491,657,204,327,297,
0,486,649,203,357,295,
0,526,751,207,352,292,
0,519,739,205,348,289,
0,513,729,204,345,287,
0,508,719,201,342,284,
0,502,708,199,339,307,
0,496,699,199,335,304,
0,491,689,197,333,300,
0,486,679,195,329,297,
0,480,671,193,327,295,
0,476,679,193,355,292,
0,520,722,206,352,290,
0,515,711,204,348,287,
0,508,702,202,344,285,
0,504,691,199,341,289,
0,497,682,199,337,304,
0,491,673,196,335,301,
0,486,664,195,332,297,
0,481,655,193,328,295,
0,476,647,192,326,292,
0,490,737,191,355,289,
0,527,758,204,350,287,
0,520,746,202,347,284,
0,515,736,200,344,282,
0,508,725,199,340,319,
0,504,715,197,337,315,
0,497,704,195,335,312,
0,492,696,193,332,308,
0,487,686,192,327,305,
0,481,677,190,326,304,
0,536,790,191,327,300,
0,529,772,208,323,297,
0,524,761,207,319,295,
0,518,750,205,318,292,
0,512,739,204,315,313,
0,506,728,201,312,310,
0,499,719,199,310,307,
0,494,709,198,307,304,
0,489,699,196,305,301,
0,483,690,195,308,299,
0,512,783,211,339,295,
0,506,768,209,335,292,
0,500,756,207,332,291,
0,495,744,206,328,287,
0,489,734,204,326,304,
0,484,723,203,323,301,
0,479,713,199,319,299,
0,473,704,199,317,295,
0,469,695,197,315,292,
0,464,686,195,348,290,
0,519,773,204,344,287,
0,513,758,202,339,285,
0,508,747,201,335,282,
0,503,736,199,333,280,
0,497,726,198,329,291,
0,492,716,195,327,287,
0,485,705,194,324,285,
0,480,696,192,321,283,
0,476,687,191,319,280,
0,472,726,193,344,278,
0,508,771,243,341,275,
0,502,757,241,337,273,
0,497,745,239,334,271,
0,491,735,237,332,284,
0,486,724,235,327,297,
0,481,715,233,325,294,
0,475,704,231,322,291,
0,470,696,228,319,288,
0,465,686,227,316,286,
0,492,779,225,337,284,
0,543,774,224,335,280,
0,536,760,222,331,279,
0,530,748,220,327,275,
0,524,737,219,324,314,
0,519,727,216,321,310,
0,512,716,215,319,307,
0,506,707,213,316,304,
0,500,697,211,313,300,
0,496,688,209,311,299,
0,526,777,208,347,295,
0,524,764,207,344,292,
0,518,750,205,339,290,
0,512,739,204,335,287,
0,507,729,201,333,332,
0,501,719,199,330,328,
0,496,708,199,327,326,
0,489,699,197,324,321,
0,484,689,195,321,319,
0,480,680,194,335,316,
0,527,777,199,355,312,
0,519,765,196,352,310,
0,514,751,195,348,307,
0,508,740,193,344,304,
0,503,729,192,342,326,
0,497,719,191,338,323,
0,492,710,189,335,319,
0,486,700,188,332,316,
0,480,691,186,329,313,
0,476,681,185,350,311,
0,515,753,207,347,307,
0,510,742,206,343,305,
0,504,728,204,339,303,
0,498,718,203,335,300,
0,493,708,200,332,318,
0,487,699,199,329,315,
0,481,688,198,327,312,
0,476,679,195,324,308,
0,472,671,194,321,306,
0,467,716,192,343,303,
0,504,760,203,339,300,
0,497,748,201,335,297,
0,492,735,199,332,295,
0,487,724,198,329,312,
0,481,714,196,326,312,
0,476,704,195,323,308,
0,470,695,193,319,305,
0,465,686,191,318,302,
0,460,676,190,315,300,
0,496,781,188,335,296,
0,518,768,187,332,294,
0,511,756,185,329,291,
0,505,742,184,326,289,
0,500,732,183,323,303,
0,495,721,181,319,300,
0,489,711,179,316,295,
0,483,702,179,314,294,
0,479,691,177,312,291,
0,473,683,176,309,288,
0,510,755,198,345,286,
0,504,743,199,342,283,
0,498,732,198,339,280,
0,492,719,196,335,279,
0,487,709,195,332,312,
0,482,699,193,327,310,
0,477,689,191,326,307,
0,471,680,190,323,304,
0,466,671,188,319,300,
0,462,664,187,337,297,
0,501,766,185,350,295,
0,495,753,184,347,292,
0,489,742,182,344,290,
0,484,728,180,339,287,
0,480,719,179,335,313,
0,474,708,178,333,310,
0,469,699,177,330,307,
0,463,689,175,327,304,
0,459,680,174,324,301,
0,455,671,173,359,298,
0,499,766,182,355,295,
0,493,754,180,352,293,
0,487,740,179,348,291,
0,483,729,177,344,288,
0,478,719,176,342,312,
0,472,709,174,338,310,
0,467,700,173,335,307,
0,461,690,172,332,304,
0,456,681,170,329,300,
0,452,736,169,352,297,
0,505,766,168,348,295,
0,499,754,167,344,293,
0,494,740,167,341,294,
0,487,729,165,337,321,
0,483,719,163,334,317,
0,478,709,163,332,314,
0,473,700,162,327,311,
0,467,690,161,326,308,
0,462,681,159,323,305,
0,508,798,158,354,302,
0,526,783,167,351,299,
0,519,771,167,348,312,
0,515,758,165,344,308,
0,508,747,163,339,313,
0,504,736,163,337,311,
0,497,726,161,334,307,
0,492,716,159,331,305,
0,486,705,159,327,302,
0,481,696,158,325,299,
0,540,788,159,331,295,
0,531,775,159,327,294,
0,526,764,158,324,291,
0,519,750,156,321,289,
0,514,739,155,318,313,
0,509,728,153,316,311,
0,504,718,153,312,307,
0,497,708,152,311,305,
0,492,699,151,307,302,
0,487,689,150,335,299,
0,534,780,180,346,295,
0,527,768,178,343,294,
0,520,756,176,339,291,
0,515,742,175,336,288,
0,510,732,174,332,312,
0,504,721,172,329,308,
0,498,711,171,327,306,
0,493,702,169,323,303,
0,487,692,167,320,300,
0,482,692,167,344,297,
0,521,783,167,340,295,
0,515,771,165,337,291,
0,510,760,163,334,289,
0,504,746,162,331,287,
0,499,736,161,327,309,
0,493,725,159,324,306,
0,487,715,159,321,303,
0,483,705,157,319,300,
0,476,696,156,316,297,
0,473,754,155,346,295,
0,508,775,187,343,291,
0,503,764,185,339,289,
0,497,752,184,335,287,
0,492,739,182,333,304,
0,487,728,180,329,301,
0,481,719,179,326,297,
0,476,708,177,323,295,
0,472,699,176,319,292,
0,465,689,175,318,289,
0,511,783,175,352,287,
0,518,769,197,349,284,
0,511,758,195,345,295,
0,505,747,193,343,292,
0,500,733,192,339,295,
0,495,723,190,335,293,
0,489,713,188,332,291,
0,484,704,187,329,287,
0,480,694,185,327,286,
0,473,684,184,323,283,
0,532,787,198,337,280,
0,526,774,195,334,278,
0,519,763,194,331,275,
0,514,752,192,327,273,
0,508,738,191,324,296,
0,503,728,189,321,294,
0,497,717,188,319,291,
0,492,707,186,316,287,
0,487,697,184,313,286,
0,481,689,183,345,284,
0,547,774,199,345,280,
0,540,761,198,342,278,
0,534,751,195,338,275,
0,527,739,194,335,273,
0,521,727,192,332,300,
0,516,716,191,327,297,
0,511,707,189,326,295,
0,505,696,188,323,291,
0,499,688,186,319,289,
0,494,697,184,341,286,
0,542,783,259,337,284,
0,535,771,255,334,281,
0,528,760,253,331,279,
0,523,748,251,327,281,
0,518,735,248,324,307,
0,511,724,247,321,304,
0,505,715,244,319,301,
0,500,704,243,316,298,
0,496,696,240,313,295,
0,502,768,238,340,292,
0,547,775,236,336,289,
0,540,763,235,333,287,
0,534,752,232,330,284,
0,527,740,231,327,316,
0,522,728,229,323,312,
0,516,717,227,320,309,
0,511,707,225,318,306,
0,505,697,224,315,304,
0,500,688,222,312,301,
0,531,780,248,327,297,
0,530,768,261,324,295,
0,524,755,259,321,292,
0,519,743,255,319,289,
0,512,734,254,316,287,
0,507,720,252,312,284,
0,502,711,249,310,282,
0,496,701,248,307,280,
0,491,691,246,304,278,
0,486,683,243,304,275,
0,529,766,334,338,272,
0,523,753,327,335,270,
0,516,742,325,332,268,
0,511,731,322,328,265,
0,505,721,319,326,304,
0,499,708,316,322,301,
0,495,699,313,319,298,
0,489,689,311,316,295,
0,484,679,308,313,292,
0,480,671,305,352,291,
0,533,788,315,350,287,
0,526,775,312,346,284,
0,520,764,310,343,282,
0,515,753,307,339,280,
0,509,743,304,337,318,
0,504,729,302,333,315,
0,498,719,299,331,312,
0,493,710,296,327,308,
0,487,700,294,324,305,
0,483,721,292,353,303,
0,545,779,289,349,300,
0,539,767,287,345,297,
0,532,755,284,343,294,
0,527,744,283,339,304,
0,521,734,280,336,312,
0,515,721,278,332,309,
0,510,711,275,329,306,
0,504,701,274,327,304,
0,499,691,271,323,300,
0,506,772,270,358,298,
0,542,765,267,353,295,
0,536,753,265,350,292,
0,529,743,263,347,289,
0,524,732,262,344,311,
0,518,721,259,340,307,
0,512,709,257,337,304,
0,507,700,255,334,301,
0,502,690,254,331,299,
0,496,680,252,327,295,
0,560,787,250,358,294,
0,556,775,248,354,290,
0,548,763,246,351,288,
0,543,752,244,348,286,
0,536,741,243,344,313,
0,531,730,241,342,310,
0,525,718,239,337,307,
0,519,707,237,335,304,
0,513,697,236,332,302,
0,508,689,234,332,299,
0,535,783,232,358,295,
0,527,771,231,355,293,
0,522,760,229,352,290,
0,516,749,227,348,287,
0,511,739,225,345,307,
0,505,728,224,342,304,
0,500,715,222,338,301,
0,495,705,221,335,298,
0,489,696,220,332,295,
0,484,687,217,358,293,
0,511,777,216,353,291,
0,505,766,215,350,287,
0,499,754,213,347,284,
0,494,743,211,344,282,
0,488,732,211,340,286,
0,483,723,209,337,284,
0,479,710,207,334,281,
0,474,700,206,331,279,
0,470,691,204,327,276,
0,465,732,204,353,274,
0,545,788,202,350,271,
0,539,775,199,346,269,
0,532,764,199,343,267,
0,527,753,198,339,280,
0,520,743,196,336,284,
0,515,729,195,334,281,
0,510,719,193,330,280,
0,504,710,192,327,276,
0,499,700,191,324,275,
0,494,759,190,359,272,
0,568,746,188,355,270,
0,562,735,187,352,267,
0,556,724,186,348,264,
0,549,715,184,344,291,
0,543,704,184,342,287,
0,537,692,182,339,284,
0,531,684,181,335,282,
0,526,674,179,332,280,
0,519,665,179,329,277,
0,525,774,177,359,275,
0,551,760,180,355,271,
0,545,749,179,352,269,
0,539,738,177,349,267,
0,533,728,176,345,291,
0,527,717,175,343,289,
0,521,705,174,339,287,
0,515,696,172,335,284,
0,511,687,172,333,281,
0,505,678,171,339,279,
0,537,760,172,352,276,
0,531,748,177,348,273,
0,524,737,176,344,271,
0,519,727,174,342,270,
0,513,717,172,339,301,
0,507,707,171,335,297,
0,502,695,170,332,295,
0,496,685,169,329,292,
0,492,675,167,326,289,
0,487,668,167,370,287,
0,548,771,179,365,284,
0,540,760,177,361,282,
0,534,748,176,358,281,
0,527,737,174,355,279,
0,521,727,172,352,284,
0,516,716,171,348,281,
0,511,704,169,345,280,
0,505,695,168,342,277,
0,499,685,167,339,274,
0,495,732,166,362,271,
0,523,774,179,358,270,
0,515,761,176,355,268,
0,510,750,176,352,265,
0,504,739,174,348,295,
0,498,728,172,345,300,
0,493,719,171,343,296,
0,487,706,169,339,294,
0,483,696,167,335,291,
0,479,688,167,332,288,
0,474,788,166,359,286,
0,531,774,176,355,284,
0,524,762,175,352,281,
0,518,751,173,348,280,
0,512,740,172,344,300,
0,507,729,171,342,297,
0,502,719,168,339,295,
0,496,707,167,335,291,
0,491,697,167,332,289,
0,486,688,165,329,286,
0,516,779,164,359,284,
0,536,766,212,356,281,
0,527,755,209,353,279,
0,521,743,207,350,275,
0,515,733,206,347,298,
0,510,723,204,344,295,
0,504,712,203,340,292,
0,499,700,201,337,289,
0,494,691,199,334,287,
0,488,682,198,350,285,
0,545,784,198,353,282,
0,539,771,196,350,280,
0,531,760,194,347,277,
0,524,749,192,344,274,
0,519,739,191,340,299,
0,513,728,190,337,295,
0,508,717,188,334,294,
0,503,705,187,331,291,
0,497,696,185,327,287,
0,492,688,184,354,286,
0,507,780,195,350,283,
0,502,768,193,347,280,
0,495,756,192,344,278,
0,489,745,190,340,275,
0,483,735,188,337,280,
0,479,724,187,334,278,
0,474,714,185,332,275,
0,470,702,184,327,273,
0,465,692,183,325,271,
0,461,751,181,355,268,
0,524,782,205,352,266,
0,518,770,203,348,263,
0,511,759,201,345,262,
0,504,748,199,342,289,
0,499,737,198,339,286,
0,495,727,196,336,283,
0,489,716,195,334,280,
0,484,704,193,329,278,
0,480,696,192,327,275,
0,475,745,190,355,273,
0,550,733,204,351,271,
0,543,722,202,348,268,
0,536,711,199,344,265,
0,529,702,199,342,299,
0,524,692,197,338,295,
0,518,684,195,335,293,
0,512,675,193,332,290,
0,507,664,192,327,287,
0,502,655,191,326,285,
0,529,765,189,350,283,
0,536,752,207,346,280,
0,529,741,204,343,278,
0,521,731,202,339,275,
0,516,720,200,337,304,
0,511,710,199,334,302,
0,505,700,198,331,299,
0,499,691,195,327,295,
0,495,679,194,324,294,
0,489,671,192,353,291,
0,550,774,201,358,287,
0,542,761,199,355,285,
0,536,750,198,352,283,
0,527,739,196,348,280,
0,523,728,194,344,307,
0,516,718,193,342,304,
0,511,707,191,339,301,
0,505,698,190,335,298,
0,500,687,188,332,295,
0,495,688,187,355,292,
0,524,774,228,352,290,
0,518,761,226,348,287,
0,512,750,224,345,285,
0,505,739,222,342,282,
0,499,728,220,339,291,
0,495,718,217,335,287,
0,489,708,216,333,285,
0,484,699,215,330,283,
0,480,688,212,327,280,
0,475,753,211,352,278,
0,547,785,209,348,275,
0,540,773,207,344,273,
0,534,761,206,341,271,
0,526,750,204,338,299,
0,519,739,202,335,295,
0,515,729,200,332,292,
0,509,719,199,329,289,
0,504,709,198,326,287,
0,499,696,196,323,284,
0,494,790,195,323,282,
0,524,775,201,319,280,
0,518,764,199,317,277,
0,511,753,198,315,275,
0,504,742,195,312,295,
0,499,732,194,310,291,
0,494,721,192,307,288,
0,488,711,191,304,286,
0,483,702,190,302,284,
0,480,690,188,299,281,
0,520,766,187,339,279,
0,528,754,192,335,276,
0,523,743,207,333,316,
0,515,732,205,329,313,
0,510,722,203,327,321,
0,504,711,201,323,318,
0,499,702,199,321,315,
0,494,692,198,318,312,
0,487,683,196,316,310,
0,483,671,195,345,307,
0,517,768,203,342,304,
0,511,755,200,339,301,
0,504,744,199,335,298,
0,498,734,197,332,295,
0,493,723,195,329,313,
0,487,713,193,327,311,
0,483,704,192,323,307,
0,478,694,191,320,304,
0,472,684,189,318,302,
0,468,700,188,350,299,
0,537,766,186,345,295,
0,531,753,184,342,294,
0,524,743,184,339,291,
0,517,732,182,335,288,
0,512,721,180,333,325,
0,506,711,179,329,322,
0,500,702,177,327,319,
0,495,692,176,324,316,
0,490,683,175,321,313,
0,486,764,174,348,311,
0,535,779,227,344,307,
0,527,767,224,342,304,
0,522,755,222,337,302,
0,515,744,220,335,300,
0,509,734,217,332,319,
0,504,723,216,328,316,
0,498,713,214,326,313,
0,493,704,212,323,311,
0,487,691,211,319,307,
0,483,777,209,340,305,
0,529,764,224,336,303,
0,523,753,222,334,300,
0,518,742,220,330,297,
0,510,732,217,327,332,
0,504,721,216,324,327,
0,499,711,214,321,323,
0,494,701,212,319,321,
0,488,691,210,316,318,
0,483,680,209,313,315,
0,486,737,207,339,312,
0,484,726,207,335,310,
0,479,716,206,332,307,
0,474,705,204,329,304,
0,468,696,203,327,316,
0,463,686,201,323,312,
0,459,676,199,321,310,
0,455,668,198,318,307,
0,451,659,196,316,304,
0,447,649,195,312,302,
0,536,753,194,345,299,
0,527,742,192,343,295,
0,521,731,191,339,294,
0,515,720,190,336,291,
0,508,711,188,333,317,
0,504,700,187,330,313,
0,498,691,185,327,310,
0,492,681,184,324,307,
0,487,673,183,321,304,
0,483,700,182,348,302,
0,522,756,182,344,299,
0,515,745,180,339,295,
0,510,734,179,337,294,
0,504,723,177,334,291,
0,497,713,176,331,313,
0,492,704,175,327,311,
0,487,694,173,325,307,
0,481,684,172,322,304,
0,477,675,171,319,302,
0,472,768,169,357,300,
0,540,769,169,352,295,
0,534,758,167,348,294,
0,527,747,167,345,302,
0,521,736,166,342,302,
0,515,726,164,339,316,
0,508,716,163,335,312,
0,504,705,162,333,310,
0,498,696,161,330,306,
0,493,687,159,327,304,
0,498,779,159,344,301,
0,523,766,179,339,299,
0,517,755,177,335,295,
0,511,743,176,332,293,
0,505,732,175,329,316,
0,499,723,172,327,312,
0,494,711,171,324,308,
0,487,703,170,321,305,
0,483,693,167,319,303,
0,479,684,167,316,301,
0,514,782,166,344,297,
0,512,769,189,340,295,
0,505,758,187,337,292,
0,500,747,185,334,290,
0,495,736,184,331,307,
0,487,725,182,327,305,
0,483,715,180,325,301,
0,478,705,179,322,298,
0,473,696,177,319,295,
0,468,687,176,317,294,
0,539,771,176,339,291,
0,531,759,174,335,287,
0,525,748,173,333,286,
0,519,736,172,329,283,
0,513,727,170,327,326,
0,507,716,167,323,323,
0,502,706,167,321,319,
0,496,696,166,318,316,
0,491,688,164,316,313,
0,486,679,163,345,310,
0,524,750,193,339,307,
0,518,739,192,336,304,
0,512,728,190,334,302,
0,506,717,188,330,299,
0,500,707,187,327,323,
0,494,697,184,324,319,
0,487,688,184,321,316,
0,483,679,182,319,313,
0,479,670,180,316,311,
0,473,697,179,327,307,
0,519,757,187,323,304,
0,512,745,184,321,302,
0,507,735,184,318,300,
0,502,724,182,315,304,
0,496,714,180,312,311,
0,489,704,178,310,307,
0,484,695,177,307,304,
0,480,686,176,305,301,
0,474,676,174,302,299,
0,487,768,173,342,295,
0,514,755,172,337,294,
0,508,743,170,334,291,
0,503,734,168,331,287,
0,496,723,167,327,299,
0,492,713,166,325,295,
0,485,704,165,322,292,
0,480,694,163,319,290,
0,475,684,162,316,287,
0,470,675,161,314,285,
0,521,764,177,340,283,
0,515,749,185,335,280,
0,509,738,184,333,278,
0,504,728,182,329,275,
0,497,717,180,327,296,
0,492,707,179,324,294,
0,486,697,177,321,291,
0,481,688,176,319,287,
0,476,679,174,316,286,
0,472,671,173,325,283,
0,536,768,175,353,280,
0,529,753,174,348,279,
0,523,742,172,345,275,
0,516,732,171,342,273,
0,511,721,169,339,300,
0,505,711,167,335,295,
0,499,701,167,332,293,
0,494,691,165,329,290,
0,488,683,164,327,287,
0,483,673,163,350,285,
0,526,758,190,345,283,
0,519,743,188,341,280,
0,514,732,187,338,278,
0,508,721,184,335,275,
0,503,711,184,332,291,
0,497,702,182,328,289,
0,491,692,179,326,286,
0,486,683,179,323,283,
0,480,674,177,319,280,
0,476,719,176,353,278,
0,527,775,235,350,275,
0,521,761,231,345,289,
0,515,750,230,342,293,
0,510,739,227,339,313,
0,504,728,226,335,319,
0,499,719,224,332,316,
0,492,708,222,329,312,
0,487,699,220,327,310,
0,482,689,217,323,307,
0,508,788,216,344,304,
0,527,775,216,342,302,
0,521,760,214,337,299,
0,515,748,211,335,295,
0,510,737,210,332,309,
0,504,728,208,327,305,
0,497,717,207,326,303,
0,492,707,205,323,300,
0,487,697,204,319,296,
0,482,688,202,318,295,
0,531,783,207,336,291,
0,524,771,205,333,289,
0,519,756,203,329,287,
0,512,745,201,327,284,
0,507,735,199,323,303,
0,502,724,199,320,300,
0,495,714,197,318,297,
0,489,704,195,315,294,
0,484,695,193,312,291,
0,480,686,192,316,288,
0,495,781,205,326,286,
0,489,768,203,323,284,
0,483,754,201,319,280,
0,478,743,199,316,279,
0,473,732,198,313,306,
0,468,722,196,311,303,
0,463,711,195,308,300,
0,459,702,193,305,296,
0,455,693,192,303,295,
0,450,684,190,344,291,
0,492,737,195,339,289,
0,486,727,193,335,286,
0,480,713,192,332,284,
0,475,704,191,328,281,
0,471,694,189,326,292,
0,465,684,188,323,289,
0,460,675,186,319,287,
0,455,667,184,317,284,
0,451,659,183,315,281,
0,447,713,182,347,279,
0,508,753,198,344,276,
0,502,743,196,340,274,
0,496,729,195,335,271,
0,491,719,193,333,300,
0,486,708,192,330,300,
0,480,699,190,327,296,
0,474,689,188,324,294,
0,470,679,186,321,291,
0,464,671,184,319,288,
0,500,769,184,345,286,
0,523,756,200,343,283,
0,516,743,199,339,280,
0,511,732,197,335,279,
0,505,721,195,332,300,
0,499,711,193,329,297,
0,494,701,192,326,295,
0,487,691,191,323,291,
0,483,683,189,319,288,
0,478,673,188,318,287,
0,524,783,189,341,284,
0,518,771,188,337,281,
0,512,756,186,335,279,
0,506,745,184,331,276,
0,500,735,184,327,300,
0,496,723,182,325,297,
0,489,713,180,322,295,
0,483,704,179,319,292,
0,479,695,177,316,289,
0,473,686,176,332,287,
0,515,807,262,348,284,
0,509,795,258,344,281,
0,504,780,255,342,279,
0,497,768,254,337,276,
0,492,756,251,335,286,
0,487,746,249,332,283,
0,482,736,247,328,280,
0,476,726,245,326,278,
0,472,716,242,323,275,
0,467,711,240,354,272,
0,523,793,239,350,270,
0,516,781,236,347,268,
0,511,766,235,344,266,
0,505,755,233,339,263,
0,499,743,231,336,293,
0,494,734,230,334,291,
0,489,723,227,331,287,
0,483,713,225,327,285,
0,478,704,224,324,282,
0,473,768,222,345,280,
0,500,784,241,342,277,
0,495,772,239,339,275,
0,489,758,236,335,271,
0,484,747,235,332,296,
0,480,736,231,327,293,
0,474,726,231,326,290,
0,470,716,228,323,287,
0,463,706,227,319,285,
0,459,696,224,317,282,
0,501,785,237,327,280,
0,511,772,260,325,276,
0,504,760,257,322,284,
0,499,747,255,319,281,
0,494,736,254,316,303,
0,487,726,251,313,300,
0,483,715,248,311,296,
0,478,705,247,307,294,
0,472,696,244,305,291,
0,467,687,243,303,288,
0,531,787,240,339,286,
0,524,774,239,335,283,
0,518,762,236,333,280,
0,512,748,235,329,278,
0,505,737,233,327,300,
0,500,728,231,323,295,
0,495,717,230,319,294,
0,490,707,227,318,291,
0,483,697,225,315,288,
0,479,688,224,343,285,
0,521,783,222,342,283,
0,515,771,220,339,280,
0,509,760,219,335,278,
0,504,745,217,332,275,
0,498,735,216,328,300,
0,492,724,214,326,297,
0,487,715,212,323,295,
0,482,705,211,319,291,
0,476,696,209,318,289,
0,472,702,207,335,286,
0,512,778,206,332,284,
0,505,766,204,329,281,
0,500,755,203,327,279,
0,495,741,201,323,276,
0,489,731,199,319,275,
0,484,720,199,317,273,
0,480,710,197,315,271,
0,475,700,195,312,269,
0,468,691,193,309,267,
0,468,760,192,340,263,
0,487,773,192,337,262,
0,482,761,191,334,259,
0,477,750,190,331,257,
0,472,736,188,327,302,
0,467,726,187,324,298,
0,462,716,185,321,295,
0,457,706,184,319,292,
0,453,696,183,316,290,
0,448,687,182,313,287,
0,497,783,180,343,284,
0,499,769,183,339,281,
0,493,758,180,336,283,
0,487,747,179,334,280,
0,483,734,178,329,306,
0,478,723,177,327,303,
0,472,713,176,323,300,
0,467,704,175,320,297,
0,463,694,173,318,295,
0,456,684,172,316,291,
0,531,831,175,348,288,
0,524,816,173,344,286,
0,518,803,172,340,284,
0,512,792,171,337,280,
0,505,777,169,334,303,
0,500,766,167,331,300,
0,495,755,167,327,297,
0,490,743,166,324,295,
0,484,734,164,322,291,
0,479,723,163,358,288,
0,521,782,167,353,286,
0,515,769,166,351,284,
0,509,759,165,347,281,
0,504,747,163,344,279,
0,498,734,162,339,301,
0,492,723,161,337,299,
0,487,713,159,334,295,
0,482,704,159,331,293,
0,477,695,158,327,290,
0,472,691,159,352,287,
0,482,732,183,348,284,
0,476,720,181,344,282,
0,472,710,179,342,280,
0,467,700,177,338,284,
0,462,688,176,335,301,
0,457,679,175,332,297,
0,453,670,173,327,295,
0,449,662,172,326,292,
0,444,654,171,323,289,
0,456,740,169,352,287,
0,487,748,167,348,284,
0,481,737,166,344,282,
0,476,727,165,341,280,
0,471,716,163,338,304,
0,466,704,162,334,302,
0,461,695,161,331,298,
0,456,685,159,327,295,
0,452,676,159,326,293,
0,448,667,158,323,291,
0,485,766,167,351,287,
0,483,753,176,347,284,
0,477,742,174,344,283,
0,472,731,172,340,280,
0,467,720,171,337,312,
0,462,707,169,334,308,
0,457,698,168,331,305,
0,452,689,167,327,303,
0,448,679,166,324,300,
0,443,671,164,322,297,
0,480,768,179,336,294,
0,475,755,176,333,291,
0,470,744,175,330,289,
0,464,734,173,327,287,
0,460,723,172,324,312,
0,455,711,171,319,309,
0,450,701,169,318,306,
0,446,691,167,315,303,
0,441,683,167,312,300,
0,436,674,166,348,298,
0,466,768,182,344,295,
0,460,756,180,340,291,
0,455,745,179,337,289,
0,451,734,177,334,287,
0,446,724,176,331,305,
0,441,711,174,327,302,
0,437,701,172,324,300,
0,433,692,172,321,297,
0,429,683,170,319,294,
0,425,708,169,331,291,
0,468,755,206,327,288,
0,463,743,204,324,286,
0,458,733,202,321,284,
0,453,723,200,318,297,
0,448,710,199,316,309,
0,444,700,197,312,307,
0,440,691,195,310,304,
0,435,681,194,307,301,
0,431,671,192,304,297,
0,448,769,191,346,295,
0,465,760,204,343,291,
0,460,748,201,339,289,
0,455,737,199,335,287,
0,450,727,198,333,291,
0,446,716,196,329,287,
0,441,704,195,327,286,
0,437,695,193,323,283,
0,432,685,192,320,280,
0,428,676,191,318,279,
0,453,780,189,352,275,
0,448,768,189,348,273,
0,443,756,188,345,271,
0,438,744,186,342,268,
0,433,734,184,339,287,
0,430,721,184,335,286,
0,425,711,182,332,283,
0,422,702,180,329,280,
0,417,692,179,327,278,
0,414,683,178,323,275,
0,437,774,195,331,273,
0,432,761,207,327,270,
0,428,750,206,325,268,
0,423,739,204,322,265,
0,419,728,203,319,313,
0,415,716,200,316,310,
0,411,705,199,313,307,
0,408,696,198,311,304,
0,403,687,196,308,302,
0,400,678,195,339,299,
0,455,775,193,335,295,
0,449,763,192,332,293,
0,444,751,190,329,291,
0,440,740,188,327,287,
0,435,729,187,323,308,
0,431,717,185,319,305,
0,427,707,184,317,302,
0,423,697,183,314,300,
0,419,688,181,312,296,
0,415,729,179,344,295,
0,434,771,196,341,291,
0,430,759,195,337,288,
0,425,748,193,335,286,
0,421,737,192,332,308,
0,416,727,190,328,309,
0,413,713,188,326,306,
0,408,704,187,322,303,
0,405,695,185,319,300,
0,401,685,184,316,297,
0,399,787,183,352,295,
0,431,772,194,348,292,
0,426,761,192,345,289,
0,422,750,191,343,287,
0,417,739,189,339,305,
0,414,728,188,335,303,
0,409,716,186,333,300,
0,406,706,184,329,297,
0,401,696,184,326,294,
0,398,687,182,323,291,
0,412,768,180,354,289,
0,419,755,184,351,287,
0,415,743,183,347,284,
0,411,732,181,344,281,
0,407,722,179,341,300,
0,403,711,178,337,295,
0,399,700,177,335,294,
0,395,691,175,331,291,
0,391,681,174,327,287,
0,388,671,173,337,286,
0,428,774,176,347,283,
0,423,761,179,344,280,
0,418,751,178,340,278,
0,414,739,176,337,275,
0,409,729,175,335,294,
0,406,719,174,331,291,
0,402,706,172,327,288,
0,398,696,171,324,286,
0,394,688,169,321,284,
0,391,679,167,344,281,
0,416,716,233,339,279,
0,410,705,231,335,275,
0,406,696,228,333,276,
0,402,686,226,330,274,
0,398,676,224,327,300,
0,395,668,222,324,297,
0,391,657,220,320,295,
0,387,649,219,318,291,
0,384,641,217,315,289,
0,380,702,216,352,287,
0,434,743,214,348,284,
0,428,732,211,344,281,
0,423,722,209,341,279,
0,419,711,207,337,305,
0,415,702,207,335,302,
0,411,692,205,332,299,
0,408,680,204,327,295,
0,403,671,201,326,294,
0,399,664,199,323,291,
0,396,783,199,351,288,
0,444,769,198,347,286,
0,438,758,195,344,283,
0,433,747,194,340,280,
0,429,736,192,338,301,
0,424,726,191,335,298,
0,420,716,190,332,295,
0,415,704,188,327,292,
0,412,694,187,324,289,
0,408,684,185,322,287,
0,423,775,235,344,284,
0,435,763,259,341,282,
0,430,752,256,337,280,
0,425,740,255,335,276,
0,421,730,252,332,281,
0,417,719,249,328,279,
0,412,710,248,326,275,
0,408,698,246,322,273,
0,405,688,243,319,271,
0,401,679,241,347,269,
0,441,780,240,353,267,
0,435,768,238,350,263,
0,430,756,236,347,263,
0,425,745,233,343,260,
0,422,735,231,339,297,
0,417,724,231,336,295,
0,413,714,228,334,291,
0,409,702,227,330,289,
0,405,692,225,327,287,
0,401,684,224,352,284,
0,447,747,222,348,281,
0,441,736,220,345,279,
0,435,726,217,342,276,
0,431,715,216,339,273,
0,427,704,215,335,298,
0,423,696,213,333,295,
0,418,686,211,329,292,
0,414,675,209,326,289,
0,410,666,208,323,287,
0,407,726,207,341,284,
0,447,737,205,337,282,
0,441,727,204,334,280,
0,435,716,201,331,276,
0,432,706,199,327,295,
0,427,696,199,326,294,
0,423,687,198,322,291,
0,419,678,196,319,287,
0,415,667,195,316,286,
0,411,658,193,313,283,
0,407,775,194,335,280,
0,441,761,255,332,278,
0,436,750,252,329,275,
0,431,739,249,327,272,
0,427,728,248,323,294,
0,423,718,246,320,291,
0,418,707,243,318,288,
0,414,698,241,315,286,
0,409,687,240,312,283,
0,406,678,237,309,280,
0,444,777,236,342,278,
0,459,765,233,339,275,
0,454,753,231,335,273,
0,448,743,230,332,271,
0,444,732,227,329,268,
0,439,721,226,327,265,
0,435,711,224,323,263,
0,430,702,222,320,262,
0,426,690,220,317,259,
0,422,681,219,348,258,
0,471,782,217,349,255,
0,464,769,216,345,254,
0,459,758,215,342,252,
0,454,747,212,339,249,
0,449,736,211,335,291,
0,444,726,209,333,289,
0,440,716,207,329,287,
0,435,705,206,327,284,
0,431,694,204,323,281,
0,427,712,203,350,279,
0,473,779,239,345,276,
0,467,768,237,342,273,
0,460,755,235,339,271,
0,455,744,231,335,275,
0,451,734,231,332,300,
0,447,723,228,329,295,
0,442,713,227,327,294,
0,438,704,224,324,291,
0,433,692,223,320,288,
0,429,772,222,348,286,
0,480,772,230,344,283,
0,474,761,227,340,280,
0,467,750,225,337,279,
0,463,739,223,335,303,
0,458,728,221,332,300,
0,454,718,220,327,295,
0,448,708,217,326,294,
0,444,699,216,323,291,
0,440,687,215,319,288,
0,444,789,212,344,286,
0,498,775,211,341,284,
0,492,764,209,338,281,
0,486,753,207,335,279,
0,480,742,206,332,306,
0,476,731,204,328,303,
0,471,721,203,326,300,
0,465,711,201,323,297,
0,461,702,199,319,295,
0,455,690,199,319,292,
0,507,781,198,354,289,
0,519,768,218,351,287,
0,513,756,216,347,284,
0,507,745,215,344,281,
0,501,736,211,340,304,
0,496,724,210,337,300,
0,491,715,208,335,297,
0,486,704,207,332,295,
0,480,693,205,328,292,
0,476,684,204,348,290,
0,508,783,204,344,287,
0,502,771,203,341,284,
0,496,760,200,338,281,
0,489,748,199,335,280,
0,484,737,198,332,311,
0,479,728,195,328,307,
0,473,718,195,326,304,
0,469,707,193,323,302,
0,464,696,192,319,299,
0,460,721,191,342,296,
0,521,783,189,338,294,
0,515,770,188,335,291,
0,509,760,187,332,288,
0,503,748,185,328,286,
0,497,737,184,326,304,
0,492,727,182,323,300,
0,487,716,180,319,298,
0,481,707,179,317,295,
0,476,696,178,315,292,
0,472,784,177,335,290,
0,527,785,193,332,287,
0,521,773,192,328,285,
0,515,761,190,326,283,
0,508,750,188,323,281,
0,504,739,187,319,300,
0,498,729,185,317,297,
0,492,719,184,315,295,
0,487,709,182,312,292,
0,483,697,180,309,289,
0,497,799,179,336,287,
0,547,786,184,333,284,
0,540,774,183,329,282,
0,534,763,182,327,280,
0,527,751,179,323,300,
0,521,740,179,321,295,
0,515,730,177,318,294,
0,510,719,176,316,291,
0,504,710,175,312,288,
0,499,699,173,310,286,
0,524,793,178,350,284,
0,523,780,207,345,280,
0,518,768,204,343,279,
0,511,757,203,339,276,
0,504,746,200,336,280,
0,499,736,199,334,275,
0,494,724,198,331,273,
0,488,715,195,327,271,
0,483,705,194,324,268,
0,479,694,192,321,267,
0,563,777,193,322,263,
0,555,766,192,319,262,
0,548,753,190,316,260,
0,542,743,188,313,258,
0,535,732,187,312,275,
0,529,722,185,308,271,
0,523,711,184,305,269,
0,518,702,182,304,267,
0,512,692,180,301,263,
0,507,730,179,335,262,
0,564,783,178,330,259,
0,557,771,177,327,257,
0,551,760,175,323,263,
0,543,748,174,321,261,
0,536,738,172,318,287,
0,531,728,171,316,284,
0,525,718,170,312,281,
0,519,707,169,310,279,
0,514,697,167,307,276,
0,509,795,167,339,273,
0,556,783,176,335,271,
0,550,771,174,332,269,
0,543,760,172,328,267,
0,537,748,171,326,275,
0,529,738,169,323,294,
0,524,728,167,319,290,
0,519,718,167,317,287,
0,513,708,166,315,285,
0,508,699,164,312,283,
0,525,771,163,339,280,
0,564,759,164,336,278,
0,558,748,163,333,281,
0,551,736,163,330,279,
0,545,726,161,327,302,
0,537,716,159,324,299,
0,531,705,159,321,295,
0,526,696,158,319,292,
0,519,687,156,316,290,
0,515,678,156,313,287,
0,564,773,192,339,284,
0,558,760,213,335,282,
0,551,750,211,333,281,
0,545,738,209,329,279,
0,539,728,207,327,300,
0,531,718,205,323,295,
0,526,707,203,321,294,
0,519,698,201,318,291,
0,514,688,199,316,287,
0,509,679,199,320,286,
0,572,759,196,339,283,
0,565,747,195,335,280,
0,558,736,193,333,280,
0,551,725,192,329,276,
0,545,715,191,327,283,
0,537,705,189,323,280,
0,532,696,188,321,276,
0,527,686,186,318,275,
0,521,677,184,316,271,
0,515,668,184,352,270,
0,568,745,184,347,268,
0,561,734,182,344,265,
0,555,723,180,340,263,
0,548,713,179,337,261,
0,543,704,178,334,295,
0,535,694,176,332,291,
0,529,684,175,327,289,
0,524,675,174,326,287,
0,518,667,172,323,284,
0,513,708,171,349,281,
0,566,760,222,344,279,
0,559,749,220,341,276,
0,552,738,217,338,274,
0,546,728,216,335,290,
0,540,717,214,332,293,
0,533,707,211,328,289,
0,527,697,210,326,287,
0,521,688,207,323,284,
0,516,679,207,319,281,
0,548,787,205,355,280,
0,579,777,203,350,277,
0,572,766,201,347,275,
0,566,755,199,344,273,
0,560,743,199,340,307,
0,553,733,196,337,304,
0,545,723,195,334,300,
0,540,713,193,332,297,
0,534,704,192,327,295,
0,527,694,191,326,292,
0,576,795,190,353,289,
0,569,778,188,348,287,
0,563,768,187,345,284,
0,556,755,185,342,282,
0,550,745,184,339,307,
0,543,734,183,335,304,
0,536,724,181,333,300,
0,531,713,179,330,297,
0,525,704,178,327,295,
0,519,696,177,331,292,
0,609,798,183,339,289,
0,600,782,180,335,287,
0,593,771,179,332,284,
0,585,759,178,329,281,
0,579,748,176,327,299,
0,571,737,175,323,295,
0,565,728,174,321,292,
0,559,717,172,318,290,
0,552,707,171,316,287,
0,547,698,169,350,285,
0,566,785,167,345,282,
0,559,770,167,341,280,
0,551,759,166,338,278,
0,546,748,164,335,275,
0,540,736,163,332,302,
0,532,727,163,329,299,
0,527,716,161,326,295,
0,522,707,159,323,292,
0,516,697,159,319,290,
0,512,746,158,352,287,
0,560,785,177,348,284,
0,553,769,175,344,283,
0,547,759,174,341,280,
0,541,747,172,338,300,
0,535,736,171,335,296,
0,527,726,169,332,294,
0,522,716,167,329,291,
0,516,706,167,326,287,
0,511,697,166,323,285,
0,540,803,178,339,283,
0,540,789,228,335,280,
0,533,774,227,331,278,
0,527,763,224,327,275,
0,521,751,223,325,303,
0,515,740,220,322,300,
0,508,730,219,319,297,
0,504,719,216,316,294,
0,499,710,215,313,291,
0,494,700,213,312,288,
0,556,825,214,352,286,
0,548,811,211,348,283,
0,542,796,209,344,287,
0,536,783,207,340,284,
0,530,772,206,337,303,
0,524,761,204,335,300,
0,517,750,203,332,297,
0,512,739,201,327,294,
0,507,729,199,326,291,
0,501,719,198,345,289,
0,551,809,196,349,286,
0,545,792,195,346,284,
0,539,780,193,342,281,
0,533,769,192,339,279,
0,527,758,191,335,303,
0,521,747,190,332,300,
0,514,736,188,329,297,
0,508,726,185,327,294,
0,504,716,184,323,291,
0,497,708,184,352,287,
0,526,807,204,347,286,
0,519,792,203,344,283,
0,513,780,200,340,280,
0,508,768,199,337,278,
0,502,758,198,334,297,
0,497,747,195,331,295,
0,491,736,194,327,292,
0,486,726,192,325,289,
0,481,716,190,322,287,
0,477,765,189,352,284,
0,508,781,203,348,281,
0,502,767,201,345,279,
0,496,755,199,342,276,
0,491,743,198,339,300,
0,486,734,196,335,297,
0,480,723,195,332,294,
0,475,713,193,329,291,
0,470,704,191,327,287,
0,465,695,190,323,286,
0,480,782,188,353,283,
0,477,768,192,350,280,
0,472,754,190,346,278,
0,467,743,188,342,275,
0,463,732,187,339,302,
0,457,722,185,335,299,
0,454,711,184,333,295,
0,448,703,182,330,293,
0,444,693,181,327,289,
0,440,684,179,324,287,
0,470,768,203,360,284,
0,463,755,201,357,281,
0,459,742,199,353,280,
0,454,731,198,350,277,
0,449,721,195,347,299,
0,444,711,194,344,295,
0,440,701,192,340,292,
0,435,691,191,337,290,
0,431,682,189,334,287,
0,428,673,188,352,284,
0,482,768,189,348,281,
0,476,755,188,344,280,
0,472,742,186,342,278,
0,466,731,184,337,275,
0,462,721,184,334,297,
0,456,711,182,332,295,
0,451,700,180,328,291,
0,446,691,179,326,289,
0,441,683,177,323,286,
0,438,716,176,354,284,
0,458,799,199,351,280,
0,453,786,198,347,279,
0,448,771,195,344,278,
0,444,760,194,339,275,
0,440,749,192,336,290,
0,435,738,191,334,287,
0,431,728,190,331,284,
0,425,718,188,327,283,
0,422,708,185,324,280,
0,423,775,184,353,276,
0,460,790,194,350,274,
0,455,777,192,346,275,
0,449,763,191,342,273,
0,445,752,189,339,294,
0,440,740,188,335,291,
0,436,730,187,333,287,
0,432,719,184,329,286,
0,427,711,183,327,283,
0,423,701,182,324,280,
0,451,805,180,344,277,
0,455,792,231,341,275,
0,449,779,228,338,273,
0,444,765,227,334,271,
0,440,754,225,331,302,
0,435,743,223,327,299,
0,431,732,221,325,295,
0,427,722,219,322,292,
0,422,711,217,319,290,
0,417,702,216,317,287,
0,448,792,214,337,284,
0,441,780,211,334,281,
0,438,768,210,331,280,
0,432,753,208,327,276,
0,428,743,207,324,289,
0,423,732,206,321,286,
0,419,721,204,319,284,
0,415,711,202,316,281,
0,412,703,199,313,278,
0,408,693,199,347,275,
0,447,781,201,343,273,
0,441,769,199,339,271,
0,436,758,199,335,268,
0,432,743,196,332,266,
0,428,733,195,329,289,
0,423,723,194,326,286,
0,419,712,192,323,284,
0,415,704,191,319,281,
0,411,694,190,318,278,
0,407,711,188,351,275,
0,451,772,188,347,273,
0,447,760,186,344,271,
0,441,750,185,340,268,
0,438,736,184,336,270,
0,433,726,182,334,288,
0,428,716,180,331,286,
0,423,705,179,327,283,
0,420,696,178,324,280,
0,415,687,176,322,277,
0,425,759,175,320,275,
0,451,747,184,318,272,
0,446,736,183,315,270,
0,441,725,182,312,268,
0,436,711,179,309,284,
0,432,703,178,306,280,
0,428,692,177,304,279,
0,423,684,176,302,275,
0,419,674,174,299,273,
0,414,665,173,296,271,
0,463,769,172,341,268,
0,460,756,172,337,265,
0,455,744,171,334,263,
0,451,734,169,332,262,
0,446,721,167,327,301,
0,441,711,167,324,297,
0,436,700,166,321,295,
0,432,691,164,319,292,
0,428,682,163,316,289,
0,423,673,162,316,287,
0,471,775,177,349,284,
0,465,764,175,345,281,
0,460,752,174,342,279,
0,455,741,172,339,276,
0,450,728,171,335,297,
0,446,718,169,332,295,
0,441,707,167,329,291,
0,436,698,167,326,289,
0,432,688,165,323,287,
0,427,679,163,352,284,
0,462,780,165,348,280,
0,456,768,163,344,279,
0,451,756,162,342,275,
0,448,745,161,338,273,
0,443,732,159,334,292,
0,438,722,159,331,289,
0,433,711,158,327,287,
0,429,702,156,326,284,
0,423,693,156,323,281,
0,420,725,154,347,279,
0,489,778,168,343,276,
0,483,766,167,339,274,
0,479,755,166,336,271,
0,473,743,164,334,280,
0,468,731,163,329,289,
0,463,719,161,327,287,
0,459,710,160,323,284,
0,454,700,159,321,281,
0,448,691,158,318,280,
0,467,787,156,352,276,
0,487,777,168,348,273,
0,482,766,167,344,271,
0,477,755,166,341,269,
0,472,743,164,338,291,
0,467,730,163,334,287,
0,462,719,162,331,285,
0,457,710,160,327,283,
0,452,700,159,325,280,
0,448,691,158,323,278,
0,489,803,156,341,275,
0,483,790,156,337,271,
0,478,777,154,334,270,
0,472,766,153,331,268,
0,467,755,152,327,291,
0,463,741,151,324,289,
0,457,731,150,321,286,
0,454,719,149,319,284,
0,448,711,148,316,280,
0,444,701,147,322,279,
0,471,825,176,342,275,
0,465,812,173,339,273,
0,460,799,172,335,271,
0,455,787,171,332,268,
0,451,775,168,329,303,
0,446,761,167,326,300,
0,441,751,166,323,297,
0,437,739,165,319,295,
0,433,729,163,318,292,
0,428,719,162,335,289,
0,487,803,182,331,286,
0,481,790,179,327,284,
0,476,778,178,324,281,
0,472,766,176,321,279,
0,466,753,175,319,304,
0,461,742,174,315,301,
0,456,731,172,312,298,
0,452,721,171,310,295,
0,448,711,169,307,292,
0,442,750,167,345,290,
0,517,793,240,341,287,
0,511,780,238,338,284,
0,504,769,235,335,281,
0,499,758,233,332,302,
0,494,743,231,328,307,
0,488,733,229,325,304,
0,483,723,227,322,300,
0,479,713,225,319,297,
0,473,704,224,317,295,
0,495,789,222,345,292,
0,508,775,220,343,289,
0,502,764,217,339,287,
0,496,752,216,335,284,
0,491,742,215,332,311,
0,486,728,212,329,307,
0,481,719,211,326,304,
0,476,708,209,323,302,
0,472,699,207,319,299,
0,467,689,206,318,295,
0,527,787,204,348,294,
0,519,774,204,344,291,
0,514,763,203,342,287,
0,508,752,201,338,285,
0,503,740,199,335,295,
0,497,728,198,332,294,
0,492,717,196,327,291,
0,487,707,195,326,288,
0,481,697,194,323,286,
0,477,688,192,335,284,
0,531,787,190,341,280,
0,525,774,189,338,278,
0,519,763,188,335,276,
0,513,751,186,332,274,
0,508,740,185,328,304,
0,502,728,184,326,300,
0,496,718,182,322,297,
0,492,707,181,319,295,
0,487,697,179,316,292,
0,481,689,179,344,289,
0,523,766,190,339,287,
0,516,755,188,336,284,
0,511,743,186,333,281,
0,505,732,184,330,280,
0,499,722,183,327,308,
0,495,709,182,324,306,
0,489,700,180,321,303,
0,484,691,179,318,300,
0,480,681,177,315,297,
0,475,737,176,342,295,
0,540,777,217,338,292,
0,532,766,215,335,289,
0,527,754,212,332,286,
0,521,743,211,328,295,
0,515,732,209,326,291,
0,510,719,207,323,288,
0,504,710,206,319,286,
0,499,700,204,316,283,
0,494,691,203,313,281,
0,489,798,201,337,279,
0,546,783,222,334,275,
0,540,771,220,331,273,
0,534,760,217,327,271,
0,527,749,216,324,301,
0,521,739,214,321,297,
0,516,726,212,318,295,
0,511,716,211,315,291,
0,505,705,209,312,289,
0,500,696,207,310,287,
0,527,796,206,342,284,
0,547,783,203,339,281,
0,542,771,201,335,279,
0,536,760,199,332,276,
0,529,749,199,329,275,
0,524,738,197,327,271,
0,518,726,195,323,270,
0,512,716,194,319,268,
0,507,705,192,317,265,
0,502,696,191,344,263,
0,540,779,201,344,262,
0,531,767,199,340,259,
0,526,755,198,337,257,
0,519,743,195,334,255,
0,514,734,194,331,289,
0,508,723,192,327,287,
0,504,711,191,324,284,
0,497,701,190,321,281,
0,492,691,188,319,280,
0,487,704,187,355,277,
0,543,796,192,352,274,
0,535,783,190,348,271,
0,528,772,188,345,286,
0,523,760,187,342,283,
0,516,750,185,339,308,
0,511,739,184,335,305,
0,505,726,183,332,303,
0,500,716,181,329,300,
0,495,706,179,326,297,
0,490,771,179,342,295,
0,520,792,195,339,291,
0,512,780,193,335,289,
0,507,768,191,332,287,
0,502,756,189,329,319,
0,496,745,188,326,315,
0,491,735,186,323,312,
0,486,722,184,319,308,
0,481,711,184,317,305,
0,476,703,182,315,303,
0,472,782,182,350,300,
0,541,768,183,345,297,
0,533,756,181,343,304,
0,527,745,179,339,301,
0,521,735,178,336,321,
0,515,724,177,333,318,
0,510,715,176,330,315,
0,504,703,174,327,312,
0,499,693,173,323,309,
0,494,684,172,321,307,
0,536,792,171,343,304,
0,545,779,191,339,301,
0,537,768,188,335,297,
0,531,756,187,333,295,
0,526,745,185,330,324,
0,519,734,184,327,321,
0,515,724,183,324,318,
0,508,711,180,321,316,
0,504,702,179,318,312,
0,498,692,177,344,310,
0,556,769,192,342,307,
0,548,758,190,338,304,
0,540,747,188,335,300,
0,534,735,186,332,298,
0,528,725,184,328,311,
0,523,715,183,326,307,
0,517,705,182,323,305,
0,511,694,179,319,302,
0,505,684,179,316,299,
0,500,716,177,333,296,
0,529,795,254,329,294,
0,523,782,250,327,291,
0,515,770,248,323,288,
0,510,759,244,319,288,
0,504,748,243,318,307,
0,499,737,240,315,304,
0,494,727,239,312,300,
0,488,714,236,309,298,
0,484,704,235,307,295,
0,480,795,233,335,292,
0,496,799,259,332,289,
0,489,787,255,327,287,
0,483,775,254,326,285,
0,479,764,252,323,313,
0,473,753,249,319,310,
0,469,742,247,316,307,
0,464,732,245,313,304,
0,460,719,243,311,301,
0,455,710,241,308,299,
0,457,752,239,344,295,
0,521,740,247,340,294,
0,514,729,244,337,291,
0,508,719,241,334,287,
0,503,708,240,331,323,
0,497,699,238,327,319,
0,492,690,236,324,317,
0,487,680,233,322,313,
0,482,670,231,319,311,
0,477,662,230,316,308,
0,525,743,228,340,305,
0,531,732,227,337,303,
0,523,721,225,334,300,
0,517,711,223,331,296,
0,511,701,221,327,312,
0,505,691,220,324,310,
0,500,681,217,322,307,
0,495,672,216,319,304,
0,490,662,215,316,301,
0,485,654,213,356,299,
0,519,775,252,353,295,
0,512,761,252,350,293,
0,505,751,249,347,291,
0,499,739,248,344,288,
0,495,729,245,340,317,
0,489,719,243,337,313,
0,484,709,241,334,311,
0,480,699,239,331,307,
0,475,688,237,327,305,
0,470,713,236,358,303,
0,531,774,233,353,300,
0,524,761,231,350,297,
0,516,750,230,347,295,
0,511,739,227,344,300,
0,505,728,225,340,306,
0,500,719,224,337,303,
0,495,708,222,335,300,
0,489,696,220,332,297,
0,484,687,219,327,295,
0,480,779,217,355,292,
0,505,776,216,352,289,
0,499,764,214,349,287,
0,493,753,212,345,286,
0,487,742,210,343,322,
0,483,732,209,339,319,
0,478,722,207,335,315,
0,472,711,206,333,312,
0,468,700,204,331,310,
0,463,690,203,327,307,
0,476,756,201,357,304,
0,535,744,211,353,301,
0,527,733,209,350,298,
0,519,723,207,347,295,
0,515,712,206,344,317,
0,509,703,204,340,313,
0,504,693,202,337,311,
0,498,684,200,335,308,
0,493,672,199,332,305,
0,487,664,198,327,303,
0,487,750,210,332,300,
0,482,739,207,329,297,
0,477,728,206,327,295,
0,472,718,204,323,292,
0,466,707,203,321,312,
0,462,697,200,318,310,
0,457,688,199,316,307,
0,452,679,198,312,304,
0,449,668,196,310,301,
0,444,659,195,340,299,
0,487,763,193,337,295,
0,482,751,192,334,293,
0,477,739,191,331,291,
0,471,728,189,327,289,
0,465,719,188,325,302,
0,460,708,187,322,299,
0,455,699,185,319,295,
0,451,689,184,316,294,
0,447,678,183,313,291,
0,443,711,182,355,287,
0,453,760,180,352,286,
0,448,748,179,348,283,
0,444,737,179,344,298,
0,438,727,176,342,295,
0,434,716,176,339,312,
0,430,707,174,335,308,
0,426,696,173,332,305,
0,423,688,172,329,303,
0,419,675,171,327,300,
0,415,776,169,355,297,
0,456,765,167,352,295,
0,451,753,167,349,292,
0,447,743,166,345,289,
0,441,732,164,343,297,
0,436,721,163,339,306,
0,432,711,162,336,303,
0,428,702,161,333,300,
0,423,692,160,330,297,
0,419,680,159,327,295,
0,423,769,158,342,292,
0,441,758,176,339,289,
0,436,745,175,335,287,
0,432,735,174,332,284,
0,427,724,172,329,302,
0,423,714,171,327,299,
0,419,704,169,323,295,
0,415,695,167,321,293,
0,411,685,167,318,290,
0,408,675,166,331,287,
0,441,798,197,348,285,
0,440,785,219,344,283,
0,435,773,216,340,280,
0,431,761,215,337,278,
0,425,751,211,334,302,
0,421,739,210,332,298,
0,417,729,208,327,295,
0,412,719,207,326,292,
0,409,709,205,323,289,
0,406,697,204,358,287,
0,423,803,222,353,284,
0,419,790,220,350,282,
0,415,778,218,346,280,
0,411,767,216,343,278,
0,406,755,214,339,303,
0,401,743,212,336,299,
0,398,734,210,334,295,
0,395,723,208,331,294,
0,391,713,207,327,291,
0,388,760,206,360,288,
0,423,796,206,357,286,
0,419,783,204,353,283,
0,415,771,203,350,280,
0,411,760,201,347,278,
0,406,749,199,344,280,
0,402,738,198,340,276,
0,398,728,196,337,275,
0,395,718,195,335,271,
0,391,708,193,332,270,
0,387,793,192,353,268,
0,431,780,195,350,265,
0,425,768,194,347,263,
0,422,757,192,344,262,
0,417,745,191,340,273,
0,412,736,190,337,275,
0,408,725,188,334,273,
0,404,715,187,332,271,
0,400,705,185,327,268,
0,396,696,184,326,267,
0,403,813,183,361,263,
0,415,799,191,358,262,
0,411,787,189,355,259,
0,407,775,187,352,257,
0,403,764,185,348,260,
0,398,752,184,345,257,
0,393,742,182,342,255,
0,390,732,180,339,253,
0,387,721,179,335,251,
0,384,711,179,333,249,
0,415,787,191,364,248,
0,411,775,195,359,245,
0,407,763,193,357,243,
0,403,752,192,353,241,
0,399,741,190,350,265,
0,393,731,188,348,262,
0,390,719,186,344,259,
0,387,710,184,341,257,
0,383,700,184,338,255,
0,380,691,183,352,253,
0,417,793,233,359,251,
0,412,781,230,356,248,
0,408,769,228,353,247,
0,403,758,226,350,244,
0,399,747,224,347,276,
0,395,736,222,344,272,
0,391,726,220,340,270,
0,387,716,218,337,268,
0,384,705,216,335,265,
0,380,696,215,355,263,
0,411,796,214,351,261,
0,407,783,212,347,259,
0,403,771,210,344,255,
0,399,760,209,340,255,
0,395,749,207,337,284,
0,390,739,205,334,281,
0,386,728,204,332,279,
0,383,718,201,327,276,
0,379,708,199,326,273,
0,376,756,199,364,271,
0,435,785,199,359,269,
0,430,773,199,355,267,
0,425,761,198,352,263,
0,421,750,195,349,262,
0,415,739,194,345,260,
0,412,729,192,343,257,
0,408,719,191,339,255,
0,403,709,190,336,253,
0,399,700,188,334,251,
0,422,807,217,364,249,
0,423,790,254,359,247,
0,419,778,252,355,245,
0,415,766,249,352,243,
0,411,755,248,349,271,
0,406,744,246,345,268,
0,401,734,243,343,265,
0,398,723,240,339,263,
0,394,713,239,336,260,
0,391,704,236,334,259,
0,423,786,235,363,255,
0,419,770,232,359,254,
0,414,759,231,355,252,
0,409,747,230,352,249,
0,406,736,227,348,280,
0,400,726,225,345,276,
0,397,716,224,343,273,
0,393,705,222,339,271,
0,390,696,220,335,268,
0,386,688,219,352,266,
0,426,792,240,364,263,
0,421,775,238,359,262,
0,416,764,236,355,259,
0,412,752,233,352,257,
0,408,742,231,349,283,
0,403,731,230,345,280,
0,399,721,227,343,276,
0,396,711,225,339,274,
0,391,701,224,337,271,
0,388,713,222,359,269,
0,411,824,220,355,267,
0,407,807,219,352,264,
0,402,795,216,348,268,
0,399,783,216,345,266,
0,395,771,214,342,295,
0,390,760,211,339,293,
0,386,749,209,335,289,
0,383,739,208,333,287,
0,379,728,207,331,284,
0,376,783,205,355,281,
0,419,796,204,352,280,
0,414,783,203,348,277,
0,409,771,201,344,275,
0,406,760,199,342,312,
0,401,750,198,339,307,
0,396,739,196,335,304,
0,393,728,195,332,301,
0,390,719,193,329,299,
0,385,709,192,327,295,
0,418,806,191,352,293,
0,425,789,190,348,291,
0,421,777,188,344,287,
0,417,766,187,342,286,
0,412,754,186,338,304,
0,408,743,184,335,301,
0,403,733,184,332,298,
0,399,723,182,329,295,
0,396,712,180,327,292,
0,391,704,179,323,289,
0,428,782,236,355,287,
0,423,766,247,352,284,
0,419,755,244,348,282,
0,415,743,242,344,280,
0,411,733,240,341,288,
0,407,723,238,338,286,
0,401,712,236,335,284,
0,398,703,233,332,280,
0,393,694,231,329,278,
0,390,685,231,356,275,
0,427,780,228,356,273,
0,422,765,227,352,271,
0,417,753,225,348,268,
0,413,743,223,345,266,
0,409,732,221,342,289,
0,405,721,220,339,287,
0,399,711,217,335,284,
0,396,702,216,333,281,
0,391,692,214,329,279,
0,389,702,212,350,276,
0,429,777,212,345,273,
0,424,763,211,342,271,
0,420,752,209,338,269,
0,415,740,207,335,267,
0,412,730,206,332,278,
0,408,719,204,329,275,
0,403,710,202,327,273,
0,399,700,200,323,270,
0,395,691,199,320,268,
0,393,764,198,355,265,
0,428,783,201,352,263,
0,423,768,199,348,261,
0,418,757,198,344,259,
0,414,745,196,342,295,
0,410,736,195,338,294,
0,406,725,193,335,291,
0,401,715,192,332,287,
0,397,705,190,329,284,
0,393,696,189,327,282,
0,443,791,201,359,280,
0,449,777,233,355,277,
0,444,763,231,352,275,
0,440,752,230,348,271,
0,435,740,227,344,303,
0,431,729,226,341,300,
0,426,719,224,338,296,
0,421,710,222,335,294,
0,417,700,220,332,291,
0,413,691,218,329,288,
0,434,790,217,352,286,
0,429,777,216,348,283,
0,424,763,214,344,280,
0,420,751,211,342,278,
0,415,740,210,338,284,
0,412,729,209,335,282,
0,408,719,207,332,280,
0,403,710,205,329,277,
0,399,700,204,326,274,
