=~=~=~=~=~=~=~=~=~=~=~= PuTTY log 2021.04.22 12:08:25 =~=~=~=~=~=~=~=~=~=~=~=
61,177,129,156,
0,163,506,209,128,155,
0,163,502,2435,557,180,412,103,
0,527,548,178,407,102,
0,521,542,176,403,100,
0,516,536,175,399,99,2,420,37,
0,540,564,140,416,105,
0,535,557,180,412,103,
0,527,548,178,407,102,
0,521,542,176,403,100,
0,516,536,175,399,99,
0,511,529,174,396,99,
0,504,524,17535,557,180,412,103,
0,527,548,178,407,102,
0,521,542,176,403,100,
0,516,536,175,399,99,
0,511,529,174,396,99,
0,504,524,172,391,97,
0,499,518,171,388,97,
0,495,563,169,437,96,
0,545,557,167,432,95,
0,539,bbbbj
0,532,543,199,423,141,
0,526,536,196,418,140,
StartUp!
124,463,595,183,364,231,
0,460,589,182,361,230,
0,455,583,180,359,228,
0,452,578,179,356,227,
0,449,573,179,353,225,
0,446,568,177,352,224,
0,442,563,176,349,223,
0,440,639,176,376,222,
0,473,632,175,371,220,
0,470,624,174,368,219,
0,465,615,172,365,226,
0,460,608,179,361,224,
0,454,600,177,358,222,
0,449,592,176,355,220,
0,444,585,175,352,217,
0,440,577,173,348,216,
0,435,571,172,345,215,
0,431,563,171,371,213,
0,480,637,169,368,211,
0,473,628,167,364,209,
0,468,620,167,360,231,
0,463,611,166,357,228,
0,456,603,164,354,226,
0,451,595,163,351,224,
0,447,588,162,348,223,
0,442,581,161,344,220,
0,438,574,159,342,219,
0,433,617,159,371,217,
0,468,632,158,368,216,
0,463,623,157,364,214,
0,458,617,184,362,240,
0,455,609,183,359,238,
0,449,601,181,355,235,
0,444,593,179,352,233,
0,440,586,178,349,231,
0,435,579,176,345,229,
0,431,572,175,343,227,
0,427,659,174,399,225,
0,508,649,172,395,224,
0,502,639,171,391,222,
0,496,632,216,387,243,
0,490,623,214,384,240,
0,483,615,211,380,238,
0,478,607,209,376,236,
0,473,600,207,373,234,
0,468,591,206,369,231,
1,463,584,204,366,231,
1,459,690,203,396,228,
1,509,679,201,391,226,
2,503,669,199,389,248,
2,497,660,227,385,244,
3,492,651,224,381,242,
3,485,642,222,377,240,
3,480,633,220,374,238,
3,475,626,217,371,236,
4,470,617,216,367,233,
4,464,610,215,364,231,
5,484,679,213,396,230,
4,510,670,211,391,227,
4,504,660,209,388,247,
5,499,651,207,384,244,
5,493,643,206,381,242,
6,487,635,204,377,240,
5,481,626,203,374,238,
6,476,618,201,371,236,
6,472,610,199,368,234,
6,466,603,198,376,231,
6,530,671,196,408,230,
6,523,663,195,404,228,
6,516,654,220,399,313,
6,511,645,216,396,309,
6,504,636,215,391,306,
6,497,627,212,388,302,
6,492,620,211,385,300,
6,487,611,209,381,297,
6,481,604,207,377,295,
6,477,597,206,409,292,
6,522,667,204,403,289,
6,515,657,203,399,287,
6,510,648,265,396,284,
6,504,639,262,391,282,
6,496,631,259,388,280,
6,492,623,255,384,278,
6,486,615,254,381,275,
6,481,607,252,377,273,
6,476,600,249,374,271,
6,472,625,248,415,268,
6,515,667,246,409,267,
6,509,657,243,406,263,
6,504,647,241,401,263,
6,497,639,240,398,260,
6,491,632,238,394,259,
6,486,623,236,391,255,
6,480,615,233,387,254,
5,476,607,231,384,252,
6,470,600,230,380,251,
6,466,675,228,410,248,
5,521,662,227,404,247,
5,515,653,224,401,255,
5,508,644,224,396,254,
5,503,636,222,393,252,
4,496,627,220,389,249,
5,491,619,217,385,247,
5,486,611,216,382,244,
5,480,604,215,379,243,
4,475,596,213,376,241,
4,472,692,211,412,239,
4,497,679,209,406,237,
4,492,670,208,401,250,
4,486,660,207,398,248,
4,480,652,205,393,246,
4,474,643,204,391,243,
4,469,635,201,387,241,
4,463,626,199,384,239,
3,460,618,199,380,237,
3,455,611,198,376,236,
4,519,689,196,414,233,
3,516,676,195,408,231,
3,511,667,195,404,235,
3,504,657,193,400,231,
3,499,648,192,396,231,
3,492,639,191,393,228,
3,487,632,189,389,227,
3,482,624,188,386,225,
3,476,615,186,382,224,
3,472,608,185,412,222,
3,515,681,184,409,220,
3,509,671,183,404,219,
3,504,662,185,399,217,
3,497,652,184,396,216,
3,492,644,182,391,215,
3,486,636,180,388,213,
3,480,627,179,385,211,
3,475,619,178,382,209,
3,470,611,176,378,207,
3,465,626,176,409,207,
3,508,670,174,406,206,
3,503,660,173,400,204,
2,496,651,179,396,211,
3,491,642,177,392,208,
2,486,633,176,388,207,
2,480,625,175,385,205,
2,474,617,173,382,204,
2,469,609,172,378,201,
2,463,601,170,375,199,
2,460,678,169,415,199,
2,512,665,167,411,198,
2,506,656,167,407,235,
1,500,647,172,402,231,
1,495,639,171,398,229,
2,489,631,179,394,227,
1,483,623,177,391,225,
1,477,615,175,387,223,
1,472,607,174,384,221,
1,467,600,172,380,220,
1,476,687,171,407,217,
1,512,673,169,403,216,
1,505,664,168,398,214,
1,500,655,181,393,212,
1,StartUp!
124,483,612,182,355,179,
0,480,607,180,353,179,
0,476,601,179,351,177,
0,472,595,179,349,176,
0,468,591,177,347,175,
0,464,585,176,345,174,
0,461,591,176,361,173,
0,466,583,175,359,172,
0,462,579,174,355,172,
0,458,574,172,353,170,
0,455,568,172,350,168,
0,450,560,170,347,167,
0,444,553,167,344,166,
0,440,547,167,340,164,
0,435,542,166,337,163,
0,432,536,164,335,162,
0,427,529,163,332,161,
0,476,570,162,359,159,
0,494,563,161,356,159,
0,487,556,159,353,158,
0,483,548,206,350,156,
0,477,542,204,347,156,
0,471,536,204,344,154,
0,465,529,202,340,153,
0,460,523,200,337,152,
0,455,518,199,334,151,
0,451,512,197,339,150,
0,479,580,195,356,148,
0,472,572,194,353,147,
0,467,566,193,350,167,
0,462,560,192,348,167,
0,460,553,191,344,166,
0,453,547,188,342,164,
0,448,540,187,339,163,
0,444,534,185,335,161,
0,440,527,184,332,159,
0,435,521,183,376,159,
0,504,595,181,369,157,
0,497,588,179,366,156,
0,492,580,195,363,193,
0,487,572,193,359,192,
0,481,566,192,355,190,
0,475,559,190,352,188,
0,470,551,188,350,187,
0,464,545,187,346,185,
0,460,539,185,343,184,
0,455,582,184,399,182,
0,515,613,182,393,180,
0,509,604,180,390,179,
0,504,596,224,386,182,
0,497,589,222,384,199,
0,492,582,271,379,207,
0,485,574,268,376,204,
0,480,568,265,371,203,
0,475,560,263,368,201,
0,470,553,260,365,199,
0,465,649,259,390,198,
0,536,639,255,384,195,
1,530,630,254,382,246,
1,524,622,263,377,242,
1,518,613,260,374,240,
1,512,605,258,370,238,
1,505,598,255,367,235,
1,499,590,253,364,233,
1,495,583,251,359,231,
1,489,575,249,357,230,
1,494,652,248,393,227,
1,500,639,245,388,225,
2,495,631,243,384,228,
2,489,622,241,381,227,
2,483,614,240,377,225,
2,478,606,238,374,223,
2,472,599,235,370,220,
2,467,591,233,367,219,
3,463,583,231,364,217,
2,457,575,230,368,216,
3,515,612,228,391,214,
3,508,601,227,387,212,
3,502,593,228,384,251,
3,496,585,226,380,248,
3,491,578,225,376,246,
3,484,572,223,372,243,
3,479,564,220,369,241,
3,473,558,219,366,240,
3,468,551,217,363,237,
3,463,545,216,398,236,
3,537,635,214,393,233,
3,531,624,212,388,231,
3,524,615,211,384,252,
3,518,607,210,381,249,
3,512,600,208,377,248,
3,505,591,207,374,245,
3,499,583,205,370,243,
3,494,577,204,367,240,
3,488,570,202,363,239,
3,484,604,200,393,236,
3,519,641,199,390,235,
2,513,632,198,384,246,
3,508,623,222,381,278,
3,502,615,220,377,275,
3,496,606,217,374,271,
3,489,599,216,370,270,
3,484,591,214,367,267,
3,480,583,211,363,263,
3,474,575,210,359,263,
3,470,639,208,403,260,
3,515,631,207,398,258,
3,508,620,205,393,268,
3,503,611,216,390,264,
3,497,604,215,385,263,
3,492,596,212,382,260,
3,485,588,211,379,258,
3,480,581,209,375,255,
3,475,574,207,371,253,
3,470,568,205,368,252,
3,504,633,204,404,249,
3,531,624,202,400,247,
3,524,614,200,396,255,
3,518,606,199,391,253,
3,512,598,214,387,251,
3,507,590,224,384,248,
3,499,583,222,380,247,
3,494,575,220,376,244,
3,488,568,217,374,242,
3,483,561,216,371,240,
3,534,596,214,397,239,
3,527,587,212,393,236,
3,521,579,248,388,312,
3,515,572,271,384,308,
3,510,564,268,380,305,
3,504,558,265,377,303,
3,496,551,263,374,300,
3,492,544,260,370,295,
3,486,539,259,367,294,
3,481,532,255,391,291,
3,524,619,254,388,289,
3,518,608,252,384,287,
3,512,600,276,380,284,
3,505,592,273,376,281,
3,500,585,271,372,280,
3,495,577,269,369,277,
3,487,570,267,366,275,
3,483,563,263,362,272,
3,478,556,262,359,270,
3,473,578,259,398,268,
2,526,625,257,392,266,
3,519,615,255,388,263,
2,513,607,253,384,267,
3,508,599,251,380,265,
2,502,591,248,376,263,
2,496,583,247,374,260,
2,489,575,245,369,259,
2,484,569,242,366,255,
2,479,563,240,363,254,
2,475,641,239,395,252,
2,512,633,237,391,250,
2,507,623,235,387,254,
2,500,614,244,383,252,
1,495,606,242,379,249,
1,489,599,240,376,248,
1,484,591,238,371,246,
1,478,583,236,368,243,
1,472,575,233,365,241,
1,467,569,231,361,240,
1,480,675,230,399,238,
1,519,664,228,395,236,
1,514,652,227,391,235,
1,508,643,225,386,232,
1,502,635,224,383,231,
1,497,627,222,379,230,
1,491,619,220,376,227,
1,484,611,218,371,227,
1,480,603,216,368,224,
1,474,595,216,366,223,
1,549,665,214,396,221,
1,547,655,211,391,220,
1,541,644,211,388,280,
1,535,636,209,384,278,
1,528,627,207,380,275,
1,523,619,206,376,272,
1,516,611,204,373,270,
1,510,604,202,369,268,
1,504,595,201,366,265,
1,499,588,199,399,263,
1,536,659,198,399,260,
1,530,650,196,395,259,
1,524,639,259,391,255,
1,518,631,255,386,255,
1,512,622,254,383,252,
1,505,614,251,379,250,
1,500,606,249,376,248,
1,494,599,246,371,247,
1,487,591,244,368,243,
1,483,592,242,404,242,
0,524,636,240,400,240,
1,518,627,238,396,242,
0,512,617,236,391,272,
0,505,609,235,387,270,
0,500,601,232,384,268,
0,495,593,231,380,265,
1,489,586,229,376,263,
0,483,579,227,374,260,
0,478,572,225,370,258,
0,473,642,224,396,255,
0,518,647,222,391,254,
0,511,638,220,387,252,
0,505,627,218,383,249,
0,499,619,216,379,248,
0,494,611,215,376,246,
0,488,603,214,371,243,
0,483,595,211,368,242,
0,477,588,209,365,240,
0,472,580,207,361,238,
0,494,682,207,393,236,
0,531,671,205,389,234,
0,525,662,204,385,231,
0,519,650,203,381,231,
0,513,641,201,377,229,
0,508,633,199,374,227,
0,502,624,198,370,225,
0,496,616,196,367,224,
0,489,609,195,364,222,
0,484,601,193,359,220,
0,512,664,192,395,219,
0,508,654,191,390,217,
0,502,645,192,387,258,
0,496,634,190,382,255,
0,491,626,227,377,253,
0,486,617,227,375,251,
0,480,609,224,371,248,
0,475,602,223,368,247,
0,468,595,220,364,243,
0,464,588,219,377,242,
0,510,636,216,380,240,
0,504,627,215,376,238,
0,498,619,302,371,236,
0,492,608,301,368,234,
0,487,600,297,364,231,
0,481,593,295,359,231,
0,476,585,292,358,228,
0,471,579,290,354,227,
0,465,572,287,351,225,
0,460,574,284,387,223,
0,518,635,281,384,221,
0,512,626,280,380,220,
0,505,617,278,376,220,
0,499,608,275,371,217,
0,495,600,273,368,216,
0,489,591,271,364,215,
0,483,584,268,359,213,
0,479,577,267,358,211,
0,472,570,263,354,209,
0,467,632,262,384,207,
0,507,632,259,379,207,
0,501,623,257,375,207,
0,496,615,255,371,206,
0,489,604,254,367,204,
0,484,596,252,364,203,
0,479,589,249,359,201,
0,473,582,248,356,199,
0,468,575,246,353,198,
0,463,568,243,351,197,
0,470,654,242,387,195,
0,510,643,240,384,194,
0,504,635,239,380,217,
0,499,626,236,376,216,
0,493,615,235,371,213,
0,487,608,233,368,211,
0,483,600,231,364,210,
0,477,592,230,359,207,
0,472,585,228,358,206,
0,465,578,226,354,204,
0,501,632,224,387,203,
0,504,622,223,384,201,
0,497,614,222,380,247,
0,492,606,220,376,244,
0,487,596,218,371,242,
0,481,588,216,368,240,
0,476,581,215,364,238,
0,471,574,214,361,236,
0,464,567,211,358,233,
0,460,560,210,385,231,
0,529,632,208,406,230,
0,523,622,207,401,227,
0,516,614,206,397,226,
0,511,606,204,393,224,
0,505,596,203,388,222,
0,499,588,201,385,220,
0,494,582,200,381,219,
0,487,574,199,377,217,
0,481,568,198,374,216,
0,477,560,195,384,214,
0,515,621,195,380,211,
0,509,612,193,376,210,
0,504,604,192,372,209,
0,497,596,191,368,207,
0,492,587,192,364,206,
0,487,579,190,361,204,
0,481,572,189,358,203,
0,476,565,188,355,201,
0,470,558,186,352,199,
0,465,605,185,390,198,
0,517,614,184,385,196,
0,511,606,182,381,211,
0,504,598,180,377,210,
0,499,590,179,374,207,
0,494,580,179,369,206,
0,487,574,177,366,204,
0,483,567,176,363,203,
0,478,560,175,359,201,
0,472,552,174,356,199,
0,467,627,172,385,198,
0,515,616,171,382,196,
0,508,608,170,377,205,
0,503,600,169,374,204,
0,496,593,167,371,201,
0,491,583,167,366,199,
0,486,575,166,363,198,
0,480,568,164,359,196,
0,476,562,163,355,195,
0,470,555,162,353,193,
0,507,619,161,382,192,
0,526,609,159,377,191,
0,519,601,184,374,231,
0,513,593,224,370,227,
0,507,583,242,367,226,
0,502,575,239,362,224,
0,496,569,236,359,222,
0,491,562,235,355,220,
0,486,556,232,352,219,
0,479,550,231,363,217,
0,504,630,228,372,215,
0,498,620,226,368,212,
0,492,612,224,365,231,
0,487,604,223,361,228,
0,481,594,221,358,227,
0,476,587,219,354,225,
0,472,579,217,351,223,
0,466,572,216,348,221,
0,462,565,214,344,220,
0,455,559,212,393,218,
0,506,627,210,389,216,
0,499,619,208,385,214,
0,494,611,207,381,243,
0,488,602,206,377,241,
0,483,592,204,374,239,
0,478,585,203,369,236,
0,472,577,201,366,235,
0,467,571,199,363,232,
0,463,563,199,359,231,
0,457,603,197,386,229,
0,505,622,195,382,227,
0,499,614,193,377,240,
0,494,606,192,374,255,
0,487,598,191,371,252,
0,483,588,190,367,249,
0,478,580,188,363,248,
0,472,574,187,359,246,
0,467,567,185,356,243,
0,462,560,184,353,241,
0,456,654,183,376,240,
0,495,643,181,371,237,
0,488,635,180,368,271,
0,483,626,200,364,268,
0,478,617,199,361,266,
0,472,608,197,358,263,
0,467,600,195,353,262,
0,462,591,193,351,259,
0,457,584,192,348,257,
0,452,577,191,344,255,
0,498,572,189,364,252,
0,540,563,187,360,249,
0,532,557,210,358,248,
0,527,551,219,354,246,
0,520,544,217,351,244,
0,515,536,215,348,242,
0,509,531,213,344,240,
0,504,525,211,340,238,
0,498,519,209,338,236,
0,492,513,207,352,235,
0,506,591,206,374,232,
0,500,583,204,369,231,
0,495,575,203,366,230,
0,489,568,200,363,227,
0,483,560,199,359,226,
0,479,551,198,355,224,
0,473,545,196,352,223,
0,468,539,195,348,221,
0,463,532,193,345,219,
0,459,527,192,379,217,
0,495,573,190,376,216,
0,488,566,188,371,214,
0,483,559,187,368,212,
0,478,551,185,364,211,
0,472,545,184,360,209,
0,467,536,183,356,207,
0,463,530,182,353,206,
0,457,524,180,350,204,
0,452,518,179,347,203,
0,448,548,177,374,201,
0,487,582,176,369,199,
0,481,574,175,366,220,
0,476,567,174,362,223,
0,470,559,172,359,221,
0,465,551,172,355,219,
0,460,543,170,352,216,
0,455,537,168,348,215,
0,451,531,167,345,214,
0,446,525,167,342,211,
0,442,625,166,371,210,
0,513,615,164,367,207,
0,508,608,163,364,217,
0,502,600,162,359,216,
0,496,591,161,356,214,
0,491,583,159,353,211,
0,485,575,159,349,209,
0,480,568,158,346,207,
0,475,561,156,343,206,
0,470,555,156,339,204,
0,465,644,155,386,203,
0,525,634,153,382,201,
0,519,625,152,379,202,
0,512,617,152,375,199,
0,507,609,151,371,199,
0,501,601,150,368,197,
0,496,591,148,363,195,
0,490,583,147,359,194,
0,485,577,147,356,193,
0,480,570,145,358,192,
0,476,659,144,382,190,
0,487,649,143,377,188,
0,483,639,191,374,189,
0,478,632,204,371,188,
0,472,624,201,367,185,
0,467,615,199,364,184,
0,463,606,198,359,184,
0,457,598,196,355,182,
0,453,590,195,353,180,
0,448,583,193,379,179,
0,508,633,192,375,178,
0,503,624,189,371,177,
0,497,615,192,368,204,
0,492,608,190,364,202,
0,486,600,188,360,199,
0,480,591,187,357,199,
0,476,583,185,353,196,
0,470,575,184,350,195,
0,465,569,183,347,193,
0,460,591,182,380,192,
0,505,630,179,376,191,
0,497,620,178,372,192,
0,492,612,201,369,206,
0,486,604,199,365,204,
0,480,596,198,361,202,
0,476,589,196,359,199,
0,470,579,195,355,199,
0,465,573,193,352,197,
0,460,566,192,348,195,
0,455,670,191,382,194,
0,513,695,188,377,192,
0,505,684,187,374,235,
0,499,675,185,370,231,
0,494,665,184,367,229,
0,487,656,183,363,227,
0,483,647,180,359,225,
0,478,637,179,355,224,
0,472,629,178,352,221,
0,467,621,176,349,220,
0,463,687,176,376,217,
0,494,676,174,372,216,
0,487,667,172,369,214,
0,481,657,174,365,212,
0,476,648,172,362,211,
0,471,639,171,359,209,
0,465,632,169,355,207,
0,461,622,167,352,206,
0,455,614,167,348,204,
0,451,606,166,355,203,
0,454,652,164,409,201,
0,496,643,163,404,199,
0,490,634,162,400,198,
0,484,625,161,396,196,
0,480,617,159,392,195,
0,474,609,159,389,193,
0,469,601,157,385,192,
0,463,592,156,381,191,
0,459,585,155,377,189,
0,455,579,153,385,188,
0,492,639,152,381,186,
0,487,630,152,377,184,
0,483,622,155,374,253,
0,478,613,192,370,250,
0,472,605,190,367,248,
0,467,597,188,364,246,
0,462,590,186,359,243,
0,457,580,184,356,241,
0,452,574,183,353,240,
0,448,590,182,385,238,
0,507,639,180,380,236,
0,499,631,179,376,233,
0,493,622,177,374,231,
0,487,614,176,369,230,
0,482,606,175,366,227,
0,476,598,173,363,225,
0,472,590,172,359,224,
0,466,581,171,355,222,
0,461,574,169,352,220,
0,456,647,167,380,219,
0,504,637,167,376,217,
0,496,628,166,372,216,
0,490,620,172,368,214,
0,484,611,171,365,211,
0,480,604,169,361,210,
0,474,595,167,358,208,
0,469,588,167,355,207,
0,463,579,165,351,206,
0,459,572,164,348,204,
0,455,638,163,374,203,
0,499,628,161,370,201,
0,492,620,159,367,199,
0,486,611,201,363,198,
0,480,604,199,359,196,
0,475,595,198,356,195,
0,470,588,195,353,193,
0,464,579,194,350,192,
0,460,572,192,345,191,
0,455,565,191,343,190,
0,451,559,190,374,188,
0,483,551,188,371,186,
0,476,545,187,367,217,
0,472,540,191,363,214,
0,466,534,190,359,212,
0,461,527,188,356,211,
0,455,522,186,353,209,
0,451,515,185,350,207,
0,447,510,184,346,206,
0,442,504,182,380,204,
0,496,561,180,384,201,
0,511,553,179,379,199,
0,504,547,177,376,204,
0,497,540,176,371,201,
0,492,534,175,368,199,
0,487,527,173,364,199,
0,481,521,172,361,196,
0,476,513,171,358,195,
0,471,508,169,353,193,
0,466,523,167,388,192,
0,512,572,167,384,191,
0,505,564,166,380,189,
0,497,557,176,376,214,
0,492,550,174,372,211,
0,487,543,172,369,210,
0,481,536,171,366,207,
0,476,531,169,362,206,
0,472,523,167,359,205,
0,466,516,167,355,203,
0,461,588,166,380,201,
0,501,600,164,376,199,
0,495,591,163,372,198,
0,487,583,169,368,212,
0,483,575,167,365,210,
0,478,568,167,361,208,
0,472,561,166,359,207,
0,467,555,163,355,204,
0,462,547,163,352,204,
0,457,540,161,348,201,
0,453,619,160,376,199,
0,508,608,159,372,198,
0,502,600,158,369,230,
0,495,592,177,366,236,
0,489,585,175,361,231,
0,483,577,174,359,231,
0,479,571,172,355,228,
0,473,563,171,352,227,
0,468,555,169,349,225,
0,463,548,167,345,223,
0,463,627,167,376,221,
0,515,617,166,371,219,
0,508,609,164,368,217,
0,501,601,162,365,216,
0,496,593,161,361,214,
0,490,586,159,358,212,
0,484,579,159,355,210,
0,480,572,158,352,209,
0,475,563,156,348,207,
0,470,583,155,369,206,
0,508,728,154,368,204,
0,515,717,153,364,203,
0,510,707,155,361,214,
0,503,696,155,358,212,
0,497,687,154,355,209,
0,492,678,153,351,207,
0,486,668,152,348,206,
0,480,659,151,344,204,
0,476,648,150,340,203,
0,471,647,148,374,201,
0,515,707,147,369,199,
0,508,696,146,366,198,
0,504,686,153,363,196,
0,496,676,152,359,195,
0,491,668,156,355,193,
0,484,658,155,352,192,
0,480,649,153,350,190,
0,475,641,152,346,189,
0,470,632,152,343,188,
0,464,646,150,380,186,
0,498,636,148,376,184,
0,492,627,147,371,184,
0,487,619,148,368,182,
0,480,611,146,364,180,
0,474,604,145,360,179,
0,469,596,144,358,177,
0,463,589,143,354,177,
0,459,583,142,351,176,
0,455,574,141,347,174,
0,450,659,140,384,173,
0,483,649,140,379,172,
0,478,639,139,376,178,
0,472,632,145,371,177,
0,466,624,143,368,176,
0,461,615,143,364,174,
0,455,607,141,361,172,
0,451,600,140,358,171,
0,447,591,139,355,170,
0,443,583,138,351,168,
0,440,652,137,385,167,
0,496,643,135,382,167,
0,491,635,135,377,190,
0,486,626,140,374,188,
0,479,617,139,371,185,
0,473,609,137,367,184,
0,468,601,136,364,183,
0,463,594,135,359,180,
0,457,587,135,356,179,
0,454,577,134,367,178,
0,483,624,132,367,176,
0,500,615,131,363,175,
0,495,608,155,359,220,
0,489,600,179,356,217,
0,483,591,177,353,215,
0,477,583,176,350,213,
0,472,575,174,347,211,
0,467,569,173,344,209,
0,462,563,172,341,207,
0,457,556,170,371,206,
0,508,585,168,367,204,
0,502,577,167,364,203,
0,496,570,167,359,251,
0,491,563,165,356,248,
0,483,556,163,353,245,
0,479,550,162,350,243,
0,473,543,161,347,241,
0,468,537,159,344,239,
0,463,531,159,341,236,
0,458,575,158,375,235,
0,507,595,156,370,232,
0,500,587,155,367,231,
0,495,579,154,363,233,
0,488,572,153,359,231,
0,482,565,152,356,229,
0,476,558,151,352,227,
0,472,551,150,350,225,
0,467,544,148,347,224,
0,462,538,147,344,222,
0,457,623,146,371,220,
0,497,613,145,368,219,
0,492,605,143,364,217,
0,486,596,150,359,216,
0,480,589,149,357,214,
0,473,582,150,353,211,
0,468,574,148,350,210,
0,463,568,147,348,207,
0,459,560,146,344,207,
0,454,553,145,340,205,
0,449,610,143,366,204,
0,463,601,143,362,201,
0,457,593,142,359,262,
0,452,585,171,355,259,
0,447,578,169,352,255,
0,442,571,167,349,253,
0,438,563,166,345,251,
0,433,557,164,343,248,
0,430,550,163,339,247,
0,425,543,162,336,244,
0,441,615,160,358,243,
0,472,607,159,354,240,
0,465,600,172,351,239,
0,460,591,182,348,236,
0,455,583,180,344,235,
0,449,575,178,341,231,
0,444,569,176,338,231,
0,440,562,175,335,228,
0,435,556,174,332,227,
0,431,548,172,332,225,
0,514,575,171,359,224,
0,507,568,169,355,222,
0,502,560,169,352,220,
0,496,553,167,348,219,
0,489,546,166,345,217,
0,483,540,164,343,216,
0,478,534,163,339,214,
0,473,527,162,336,211,
0,468,521,160,334,211,
0,463,516,159,372,209,
0,503,595,158,368,207,
0,496,587,157,364,206,
0,491,579,156,361,204,
0,485,572,155,358,203,
0,479,565,153,354,201,
0,473,558,152,351,199,
0,468,551,151,348,198,
0,463,544,150,344,196,
0,458,538,148,342,195,
0,454,560,147,385,193,
0,513,597,147,380,192,
0,508,589,145,376,191,
0,502,582,169,372,189,
0,496,574,167,368,188,
0,488,567,166,365,187,
0,483,560,164,361,185,
0,478,553,163,358,184,
0,473,546,161,355,182,
0,468,540,160,352,181,
0,463,621,159,371,179,
0,476,611,158,366,179,
0,471,604,156,363,185,
0,465,595,156,359,184,
0,460,588,154,355,183,
0,455,580,153,352,181,
0,449,573,152,349,179,
0,445,566,151,345,177,
0,440,560,150,343,176,
0,436,552,148,339,175,
0,468,628,147,372,174,
0,502,619,146,368,172,
0,496,611,146,364,199,
0,491,603,161,361,196,
0,485,595,159,358,195,
0,478,588,159,354,193,
0,473,579,157,352,191,
0,467,572,156,348,190,
0,463,566,154,344,188,
0,458,559,153,342,187,
0,508,551,152,368,185,
0,504,544,151,364,184,
0,498,539,173,359,222,
0,492,532,174,356,220,
0,487,526,194,353,217,
0,480,519,192,350,216,
0,475,515,190,347,214,
0,470,509,188,344,211,
0,464,504,186,340,210,
0,460,499,185,368,208,
0,524,577,184,366,207,
0,518,569,182,361,205,
0,511,562,180,358,207,
0,505,555,179,355,206,
0,499,547,177,352,204,
0,493,542,176,348,203,
0,487,535,174,344,199,
0,483,528,173,342,199,
0,477,523,172,339,198,
0,472,557,171,368,195,
0,515,600,169,365,194,
0,510,591,167,359,193,
0,504,583,177,356,196,
0,498,575,176,353,195,
0,493,569,174,350,193,
0,486,562,172,347,192,
0,480,555,171,344,190,
0,476,548,169,340,188,
0,471,542,167,337,187,
0,466,620,167,381,185,
0,489,617,166,376,184,
0,483,609,164,372,191,
0,478,601,172,368,189,
0,472,593,171,365,187,
0,467,586,169,361,185,
0,462,579,167,358,184,
0,456,572,167,355,183,
0,452,564,166,352,181,
0,448,558,164,348,180,
0,465,555,163,391,179,
0,509,547,161,386,177,
0,503,540,161,382,184,
0,497,534,175,377,182,
0,492,527,173,374,180,
0,486,521,172,370,179,
0,480,516,169,367,177,
0,473,510,167,364,176,
0,469,504,167,359,174,
0,463,499,166,358,172,
0,512,611,164,390,172,
0,507,600,163,385,170,
0,501,591,167,382,188,
0,495,583,167,377,186,
0,489,575,167,374,184,
0,484,569,166,371,184,
0,478,562,163,367,182,
0,472,555,162,364,179,
0,467,548,161,359,178,
0,463,542,159,373,177,
0,504,627,159,370,175,
0,497,615,157,366,174,
0,492,608,156,362,172,
0,486,600,155,359,171,
0,480,591,153,355,170,
0,475,584,152,352,169,
0,469,577,152,349,167,
0,463,570,150,346,166,
0,459,563,150,343,165,
0,455,583,148,382,163,
0,518,639,147,377,163,
0,511,627,145,372,179,
0,505,620,145,368,215,
0,499,611,143,365,212,
0,494,603,176,361,210,
0,488,595,175,358,208,
0,481,588,172,355,206,
0,476,580,171,352,204,
0,472,573,169,348,203,
0,467,643,167,376,201,
0,480,641,167,371,199,
0,474,631,165,367,207,
0,469,622,195,363,206,
0,463,614,193,359,204,
0,459,606,191,356,201,
0,455,598,190,353,199,
0,448,591,188,350,198,
0,444,583,185,347,196,
0,440,575,184,344,195,
0,459,647,183,376,193,
0,501,636,182,372,192,
0,496,625,179,368,201,
0,489,617,179,364,199,
0,484,609,177,360,198,
0,479,601,176,357,195,
0,473,593,175,354,194,
0,467,586,173,351,192,
0,463,579,172,348,191,
0,457,572,170,344,190,
0,504,637,169,357,188,
0,498,627,167,353,186,
0,492,617,217,350,185,
0,487,609,235,346,184,
0,481,601,232,343,183,
0,476,593,231,339,182,
0,471,586,228,337,180,
0,465,579,226,334,179,
0,460,572,224,332,177,
0,455,565,223,360,176,
0,505,633,220,368,174,
0,499,625,219,364,173,
0,493,615,217,359,179,
0,487,606,216,356,177,
0,482,599,214,353,176,
0,476,591,212,350,174,
0,472,583,210,347,173,
0,465,575,207,344,171,
0,460,569,207,340,169,
0,455,568,205,390,168,
0,510,627,203,384,167,
0,504,618,201,380,172,
0,497,608,199,376,219,
0,492,600,199,372,216,
0,487,592,198,369,215,
0,481,584,196,365,213,
0,476,577,195,362,211,
0,469,570,192,359,208,
0,463,563,191,355,207,
0,460,618,190,372,205,
0,519,630,188,368,204,
0,513,621,187,365,244,
0,507,611,208,359,248,
0,501,603,206,358,246,
0,496,595,204,354,243,
0,490,588,203,351,241,
0,483,579,201,348,240,
0,478,572,199,344,237,
0,473,566,198,342,236,
0,469,688,196,371,233,
0,526,705,194,368,231,
0,519,696,192,364,261,
0,513,683,216,359,258,
0,507,673,214,356,255,
0,502,664,211,353,253,
0,496,655,209,350,251,
0,489,647,207,347,248,
0,484,638,206,344,247,
0,479,630,204,340,244,
0,508,669,203,386,242,
0,509,659,200,382,240,
0,503,649,199,379,238,
0,497,639,198,374,236,
0,492,630,196,371,235,
0,487,622,195,367,232,
0,481,615,193,364,231,
0,475,607,192,359,229,
0,470,600,190,356,227,
0,465,591,188,367,225,
0,523,636,187,369,224,
0,516,627,185,366,222,
0,510,619,184,363,222,
0,504,608,183,358,220,
0,499,600,182,355,218,
0,493,592,180,352,216,
0,487,585,179,348,215,
0,481,579,177,345,214,
0,476,572,176,343,211,
0,472,566,175,376,210,
0,504,646,174,372,207,
0,499,636,172,368,207,
0,494,628,172,366,205,
0,487,617,170,361,204,
0,483,609,219,358,202,
0,478,601,216,354,200,
0,472,594,214,351,199,
0,465,587,212,348,198,
0,461,579,210,344,196,
0,457,633,208,384,195,
0,469,647,207,380,193,
0,463,638,205,376,200,
0,459,627,203,372,200,
0,454,619,201,368,199,
0,449,611,199,364,197,
0,444,603,199,360,195,
0,440,595,196,358,194,
0,435,588,195,354,192,
0,431,580,193,352,191,
0,450,653,192,376,189,
0,534,643,191,371,188,
0,527,634,189,368,222,
0,520,624,189,364,220,
0,515,615,188,359,217,
0,509,607,186,356,216,
0,504,600,185,353,214,
0,497,591,184,350,212,
0,491,583,182,347,210,
0,486,577,180,344,208,
0,496,629,179,383,207,
0,494,620,177,378,205,
0,487,611,176,375,204,
0,483,601,175,371,203,
0,478,593,174,367,201,
0,472,585,172,363,199,
0,467,579,171,359,198,
0,463,572,170,356,196,
0,456,564,169,353,195,
0,452,558,167,363,193,
0,492,611,166,379,192,
0,486,601,164,375,190,
0,481,595,211,371,207,
0,476,583,207,368,204,
0,471,577,206,363,203,
0,465,569,204,359,201,
0,460,563,203,356,199,
0,455,556,201,353,198,
0,449,550,199,350,196,
0,445,543,198,382,194,
0,494,615,195,378,192,
0,487,606,194,375,191,
0,482,599,193,371,228,
0,476,588,195,367,226,
0,472,581,194,363,224,
0,466,574,192,359,223,
0,461,567,191,355,220,
0,455,560,190,352,219,
0,450,553,188,350,216,
0,446,593,187,382,215,
0,508,611,185,378,212,
0,501,604,184,374,220,
0,496,595,207,371,224,
0,489,585,206,367,222,
0,484,578,204,363,220,
0,479,571,203,359,219,
0,473,563,200,355,216,
0,468,557,199,352,215,
0,463,551,197,350,212,
0,457,611,195,377,211,
0,498,603,194,373,209,
0,492,595,192,369,214,
0,487,587,192,366,212,
0,481,577,190,362,211,
0,476,570,188,358,208,
0,471,563,187,355,207,
0,465,556,185,352,205,
0,460,550,184,348,204,
0,455,543,182,345,202,
0,487,615,181,368,199,
0,504,606,179,364,199,
0,498,598,194,359,224,
0,492,590,220,357,221,
0,487,580,217,352,220,
0,481,573,216,350,217,
0,476,566,214,346,216,
0,472,559,212,344,214,
0,466,551,211,340,212,
0,460,545,208,349,211,
0,512,655,207,379,207,
0,505,646,205,375,207,
0,500,637,204,371,205,
0,495,628,201,367,203,
0,489,618,199,363,201,
0,483,610,199,359,199,
0,479,602,197,356,199,
0,473,595,195,353,197,
0,468,588,194,350,195,
0,462,580,192,369,194,
0,492,647,191,366,192,
0,486,638,189,361,191,
0,480,629,188,359,207,
0,475,620,187,355,206,
0,470,610,185,352,204,
0,464,603,184,348,203,
0,460,595,182,345,200,
0,455,588,181,342,199,
0,450,580,179,339,198,
0,445,593,178,379,196,
0,498,603,176,374,194,
0,492,595,175,370,192,
0,487,587,174,367,191,
0,481,579,173,363,190,
0,476,571,172,359,188,
0,471,563,170,355,187,
0,465,557,169,352,185,
0,460,551,167,349,184,
0,455,543,167,346,183,
0,450,615,166,378,181,
0,521,605,164,374,179,
0,515,596,163,371,199,
0,509,590,231,367,196,
0,504,582,230,363,195,
0,497,572,227,359,193,
0,492,566,225,355,192,
0,487,558,224,352,190,
0,481,551,222,349,188,
0,476,545,220,346,187,
0,492,662,217,384,185,
0,521,651,216,380,184,
0,515,642,221,376,182,
0,510,633,248,372,180,
0,504,625,246,369,180,
0,498,615,243,364,179,
0,492,607,241,361,177,
0,487,600,240,358,176,
0,482,591,238,355,175,
0,477,584,236,353,174,
0,511,648,233,374,172,
0,505,639,231,371,171,
0,499,631,230,367,180,
0,494,622,227,364,179,
0,487,614,226,359,177,
0,483,604,224,355,176,
0,478,596,223,352,174,
0,472,588,220,350,173,
0,467,582,219,346,172,
0,462,575,217,373,170,
0,515,636,215,369,168,
0,508,627,214,366,167,
0,503,618,211,362,199,
0,496,610,210,359,196,
0,492,602,208,355,195,
0,486,592,207,352,193,
0,480,585,206,348,192,
0,475,578,204,344,190,
0,471,571,203,342,188,
0,465,612,201,382,187,
0,496,646,199,377,185,
0,490,636,198,374,198,
0,485,627,196,370,214,
0,480,620,195,367,211,
0,473,611,194,363,209,
0,468,601,192,359,207,
0,463,593,191,355,206,
0,459,587,190,352,204,
0,455,579,188,349,203,
0,449,656,187,364,200,
0,499,646,185,360,199,
0,493,637,184,358,209,
0,487,628,198,354,207,
0,482,620,195,351,206,
0,477,611,194,348,204,
0,472,601,193,344,202,
0,467,594,191,340,199,
0,462,587,190,337,199,
0,456,579,188,335,197,
0,480,665,187,365,195,
0,524,655,184,361,193,
0,518,646,188,358,207,
0,512,637,236,354,206,
0,505,628,233,352,204,
0,500,620,231,348,201,
0,495,610,229,344,199,
0,489,602,227,340,199,
0,483,595,225,337,197,
0,479,587,224,335,195,
0,496,685,222,362,194,
0,492,675,219,359,192,
0,487,665,217,355,191,
0,480,655,216,352,189,
0,476,647,249,348,188,
0,471,636,246,345,186,
0,465,627,243,341,184,
0,460,620,241,338,184,
0,455,612,239,335,182,
0,451,604,237,376,180,
0,512,665,235,375,179,
0,505,655,232,371,177,
0,500,647,231,367,178,
0,494,639,229,364,177,
0,488,630,227,359,176,
0,483,622,225,357,174,
0,478,611,224,353,173,
0,473,604,222,350,172,
0,467,596,220,347,170,
0,463,652,219,382,169,
0,503,707,216,377,167,
0,496,696,215,374,167,
0,491,686,212,370,183,
0,486,676,211,367,182,
0,480,667,209,363,179,
0,475,655,207,359,178,
0,470,647,207,355,177,
0,465,639,205,352,176,
0,460,631,204,349,174,
0,455,687,202,396,172,
0,492,675,199,391,171,
0,486,666,199,387,226,
0,480,657,197,384,228,
0,476,647,195,380,226,
0,470,639,195,376,224,
0,465,628,193,372,222,
0,460,621,192,368,220,
0,455,613,190,365,219,
0,451,606,189,361,216,
0,446,688,188,384,215,
0,496,678,186,380,214,
0,491,668,188,376,211,
0,486,658,186,373,209,
0,480,649,184,369,207,
0,475,641,184,366,206,
0,470,630,182,363,204,
0,464,622,180,358,203,
0,460,614,179,355,201,
0,455,607,178,352,199,
0,452,682,177,364,198,
0,508,671,176,359,196,
0,502,663,175,357,213,
0,496,653,173,353,211,
0,491,644,172,351,209,
0,485,636,171,348,207,
0,480,625,169,344,206,
0,475,617,167,340,204,
0,470,609,167,337,202,
0,464,601,166,370,201,
0,519,691,165,371,199,
0,524,680,163,367,198,
0,518,671,166,364,214,
0,512,662,165,359,211,
0,506,652,163,356,210,
0,500,643,163,353,207,
0,495,633,161,350,207,
0,489,625,159,345,204,
0,484,616,159,343,203,
0,480,620,158,374,201,
0,519,671,157,369,199,
0,511,660,156,366,198,
0,505,652,155,361,196,
0,499,643,153,359,195,
0,494,635,153,355,193,
0,488,626,152,352,192,
0,483,615,151,348,191,
0,478,608,150,344,189,
0,472,600,148,342,188,
0,468,663,147,390,186,
0,512,657,147,385,184,
0,504,648,145,382,184,
0,499,639,150,378,182,
0,494,632,148,374,180,
0,487,623,147,371,179,
0,483,615,146,368,178,
0,478,605,145,364,177,
0,472,598,144,359,176,
0,467,590,143,356,174,
0,463,647,142,379,173,
0,519,638,141,375,172,
0,511,630,169,371,178,
0,505,621,199,368,176,
0,499,612,197,364,175,
0,495,604,195,359,173,
0,489,596,193,357,172,
0,483,587,192,353,171,
0,478,580,190,350,169,
0,472,574,188,347,167,
0,468,654,187,376,167,
0,508,643,185,371,166,
0,500,635,184,368,194,
0,495,626,182,364,192,
0,489,618,206,361,190,
0,483,610,204,358,188,
0,479,602,201,355,187,
0,473,593,199,351,185,
0,468,585,198,348,184,
0,463,579,196,371,182,
0,497,644,195,379,180,
0,508,635,193,374,179,
0,500,627,192,371,201,
0,495,618,190,368,199,
0,489,610,188,364,196,
0,484,601,187,359,195,
0,479,595,185,357,193,
0,473,585,184,352,192,
0,468,577,183,350,190,
0,463,579,181,380,189,
0,507,639,179,375,188,
0,503,631,178,371,186,
0,496,622,187,368,231,
0,489,614,185,364,229,
0,484,606,184,360,227,
0,479,598,182,357,225,
0,473,591,180,354,223,
0,468,582,179,350,221,
0,463,574,177,347,220,
0,459,636,176,380,217,
0,519,647,175,376,216,
0,513,638,174,371,214,
0,505,630,172,368,216,
0,499,621,171,364,214,
0,494,613,169,361,211,
0,488,605,167,358,210,
0,483,598,167,354,207,
0,478,588,166,351,207,
0,473,580,164,347,205,
0,468,639,163,376,204,
0,524,630,163,371,201,
0,518,621,161,368,235,
0,510,613,160,364,252,
0,504,604,159,361,250,
0,499,596,158,358,248,
0,493,590,157,355,246,
0,487,582,156,352,243,
0,483,573,155,348,241,
0,477,566,153,344,240,
0,472,630,152,378,238,
0,520,620,152,375,236,
0,515,611,150,371,247,
0,507,604,153,367,243,
0,501,595,152,364,241,
0,496,588,151,359,240,
0,491,580,150,356,238,
0,486,574,148,353,236,
0,480,565,147,350,233,
0,475,559,147,358,231,
0,480,641,145,361,230,
0,487,632,144,358,228,
0,483,624,143,355,227,
0,476,615,187,352,225,
0,471,607,185,348,224,
0,465,600,184,345,222,
0,461,591,182,342,220,
0,455,583,180,339,219,
0,451,575,179,335,216,
0,447,568,177,364,216,
0,495,641,176,361,214,
0,488,632,175,358,211,
0,483,624,176,354,224,
0,476,615,174,351,221,
0,472,608,173,348,219,
0,466,600,172,344,217,
0,461,591,170,341,216,
0,455,584,168,338,214,
0,451,575,167,334,212,
0,447,646,167,363,211,
0,487,652,165,359,208,
0,482,643,163,355,207,
0,476,634,166,352,221,
0,470,625,163,349,219,
0,465,617,162,345,217,
0,460,609,161,343,215,
0,455,601,159,339,214,
0,451,594,159,336,211,
0,446,584,157,333,209,
0,441,673,156,376,207,
0,501,663,155,372,206,
0,495,653,154,368,222,
0,487,644,223,365,231,
0,483,635,219,361,229,
0,477,627,217,358,227,
0,472,619,216,355,225,
0,467,611,214,352,223,
0,462,604,211,348,222,
0,457,593,210,344,220,
0,452,664,207,377,217,
0,478,654,207,374,216,
0,472,644,205,369,246,
0,465,636,204,366,243,
0,460,627,201,363,240,
0,455,619,199,359,238,
0,451,611,198,356,236,
0,446,603,196,353,234,
0,441,595,195,350,231,
0,438,587,193,353,230,
0,448,609,192,356,228,
0,472,601,191,353,227,
0,467,593,189,350,224,
0,460,585,199,347,223,
0,455,578,198,344,220,
0,451,571,195,340,219,
0,446,564,194,337,217,
0,441,558,193,334,216,
0,436,551,192,332,214,
0,432,547,190,355,212,
0,449,639,188,352,211,
0,444,632,187,348,209,
0,439,623,185,344,209,
0,432,615,184,342,207,
0,428,607,183,339,206,
0,423,599,181,335,204,
0,420,591,179,332,203,
0,416,583,178,329,200,
0,413,575,176,327,199,
0,409,625,176,357,198,
0,463,649,174,353,196,
0,457,639,173,350,195,
0,452,632,197,347,207,
0,446,624,195,344,206,
0,441,615,193,340,204,
0,437,608,191,337,201,
0,432,600,190,334,199,
0,428,591,188,331,199,
0,423,583,187,327,197,
0,419,659,185,353,195,
0,472,649,184,349,194,
0,465,639,182,346,207,
0,460,631,181,343,220,
0,454,623,179,339,217,
0,449,615,177,336,215,
0,444,606,176,333,213,
0,440,599,175,330,211,
0,435,591,173,327,209,
0,431,582,172,324,207,
0,427,659,172,361,206,
0,489,648,169,358,204,
0,483,639,167,354,203,
0,478,632,201,351,201,
0,472,623,199,348,199,
0,466,615,236,344,198,
0,461,607,233,340,196,
0,455,599,231,337,195,
0,451,591,229,335,193,
0,447,582,227,332,192,
0,446,635,225,361,190,
0,478,626,224,359,188,
0,472,617,222,355,188,
0,467,609,220,352,186,
0,460,601,217,348,184,
0,455,593,216,345,183,
0,451,586,214,342,182,
0,446,579,212,339,180,
0,441,572,211,335,179,
0,437,563,209,333,177,
0,476,635,207,349,176,
0,472,625,206,345,175,
0,467,617,222,342,219,
0,462,609,220,339,216,
0,455,601,217,335,215,
0,450,593,216,333,212,
0,446,586,214,329,211,
0,440,579,211,327,209,
0,436,572,210,324,207,
0,432,607,208,345,206,
0,455,635,207,342,204,
0,451,625,205,338,202,
0,446,617,204,335,208,
0,440,609,202,332,206,
0,435,601,199,329,204,
0,430,593,199,326,203,
0,426,586,197,323,201,
0,422,579,195,320,199,
0,418,572,194,318,198,
0,415,657,193,356,196,
0,481,647,192,352,195,
0,476,638,190,348,198,
0,470,628,236,345,231,
0,464,620,233,342,228,
0,458,612,231,339,227,
0,454,604,229,335,224,
0,448,596,227,332,223,
0,444,589,225,329,220,
0,440,582,223,327,219,
0,435,650,222,359,217,
0,491,639,220,355,216,
0,484,632,218,352,216,
0,480,623,216,348,215,
0,473,615,214,345,214,
0,467,606,212,342,211,
0,463,599,211,339,209,
0,457,591,209,335,207,
0,452,583,207,332,206,
0,448,575,206,329,204,
0,444,649,204,343,203,
0,467,639,203,339,201,
0,462,632,201,336,221,
0,455,623,199,333,219,
0,451,615,198,330,217,
0,446,607,196,327,216,
0,440,599,195,324,213,
0,436,591,193,321,211,
0,432,583,192,319,209,
0,428,576,191,316,207,
0,462,624,189,342,206,
0,456,615,188,338,204,
0,451,607,186,335,224,
0,447,599,185,332,222,
0,441,591,184,328,220,
0,436,583,182,326,217,
0,432,575,180,323,216,
0,427,569,179,319,214,
0,423,563,178,318,212,
0,419,556,177,331,211,
0,457,622,175,327,208,
0,452,612,174,324,207,
0,448,604,173,322,206,
0,442,596,172,319,204,
0,438,589,171,316,202,
0,432,582,169,313,199,
0,428,574,167,311,199,
0,423,568,167,308,198,
0,419,560,166,307,195,
0,415,568,164,335,194,
0,460,623,163,331,192,
0,454,615,162,327,211,
0,449,606,161,324,255,
0,444,598,159,322,254,
0,440,591,190,319,251,
0,433,583,188,316,248,
0,429,575,185,313,247,
0,424,568,184,311,244,
0,420,561,183,308,242,
0,417,624,182,323,240,
0,452,621,179,319,238,
0,448,612,178,316,236,
0,443,604,177,313,234,
0,438,596,176,312,231,
0,433,588,174,308,231,
0,428,582,172,306,228,
0,423,574,171,304,227,
0,419,567,169,301,225,
0,415,560,167,299,223,
0,411,625,167,335,221,
0,434,614,166,330,220,
0,430,606,165,327,220,
0,425,598,163,324,217,
0,420,590,162,321,216,
0,416,583,161,319,214,
0,411,575,159,316,211,
0,408,568,158,312,211,
0,403,561,157,310,209,
0,399,555,156,307,207,
0,444,632,155,332,206,
0,449,620,153,327,204,
0,444,611,153,324,203,
0,440,604,152,321,201,
0,435,595,152,319,199,
0,431,588,151,316,198,
0,424,581,149,313,196,
0,420,574,148,311,195,
0,416,567,147,307,193,
0,412,560,146,329,192,
0,452,657,145,332,191,
0,448,645,144,328,189,
0,442,636,143,326,188,
0,438,627,142,322,186,
0,432,619,141,319,184,
0,427,611,140,317,184,
0,423,603,139,313,182,
0,419,595,138,312,180,
0,414,588,137,308,179,
0,410,590,135,347,178,
0,451,659,135,343,177,
0,446,647,135,339,176,
0,441,639,144,335,211,
0,436,630,143,332,209,
0,432,622,142,329,207,
0,426,614,141,327,206,
0,422,606,140,323,204,
0,417,598,139,321,201,
0,414,591,137,318,199,
0,409,647,135,330,199,
0,418,667,135,327,197,
0,414,655,134,323,195,
0,409,646,137,319,194,
0,406,637,137,318,192,
0,401,629,148,315,191,
0,397,620,147,312,190,
0,393,612,145,310,188,
0,390,605,143,307,186,
0,387,598,143,304,184,
0,384,687,142,319,184,
0,414,675,140,317,182,
0,409,664,140,313,182,
0,405,655,144,311,180,
0,401,646,143,308,179,
0,397,638,142,305,177,
0,391,629,140,303,176,
0,388,621,140,300,175,
0,385,613,139,297,174,
0,381,605,137,295,172,
0,408,691,135,334,171,
0,408,679,135,331,169,
0,403,669,167,327,224,
0,399,659,183,323,222,
0,395,651,223,321,220,
0,391,641,220,318,218,
0,386,632,217,315,216,
0,383,624,215,312,214,
0,379,616,213,310,212,
0,376,609,211,329,211,
0,399,705,209,336,208,
0,394,692,207,333,207,
0,390,683,206,329,222,
0,386,673,204,326,220,
0,383,664,203,323,218,
0,379,655,201,319,216,
0,374,646,199,318,214,
0,371,638,198,315,211,
0,368,630,196,312,211,
0,365,623,195,321,209,
0,419,702,193,318,207,
0,414,688,192,315,205,
0,409,679,236,312,209,
0,405,669,233,309,207,
0,401,660,231,307,206,
0,397,651,230,304,204,
0,391,643,227,301,202,
0,388,634,224,299,199,
0,384,625,223,295,199,
0,381,683,221,328,197,
0,435,711,220,325,195,
0,430,699,217,323,195,
0,425,689,216,319,195,
0,421,679,214,316,216,
0,417,670,212,312,215,
0,412,661,211,310,212,
0,408,652,209,307,211,
0,403,643,207,304,208,
0,399,636,205,302,207,
0,396,734,204,326,205,
0,412,721,202,322,203,
0,408,708,200,319,225,
0,403,697,199,316,223,
0,399,688,198,312,221,
0,396,679,196,310,219,
0,391,669,195,307,217,
0,387,660,192,304,216,
0,384,652,192,302,213,
0,380,643,190,300,211,
0,411,757,188,333,209,
0,423,743,187,329,207,
0,419,731,185,327,230,
0,414,719,184,323,227,
0,409,710,184,319,225,
0,406,699,182,317,224,
0,401,689,180,314,222,
0,396,680,179,312,220,
0,392,671,178,309,217,
0,390,663,177,326,216,
0,465,738,175,342,214,
0,460,727,174,339,212,
0,455,713,227,335,216,
0,450,704,236,332,215,
0,446,694,233,328,212,
0,440,684,231,326,211,
0,435,674,230,323,209,
0,431,665,227,319,207,
0,426,656,225,317,206,
0,422,647,224,356,204,
0,496,736,222,353,203,
0,489,724,220,350,201,
0,483,711,220,346,199,
0,478,701,219,342,198,
0,473,691,216,339,196,
0,467,681,215,335,195,
0,463,672,214,333,193,
0,456,664,211,329,192,
0,451,655,209,327,190,
0,448,711,207,367,188,
0,498,755,206,363,187,
0,492,743,205,359,189,
0,487,730,204,355,198,
0,481,719,203,352,195,
0,476,709,201,348,194,
0,471,699,199,344,192,
0,465,689,198,342,191,
0,460,679,195,339,189,
0,455,671,195,335,188,
0,455,760,193,377,186,
0,534,745,192,372,184,
0,527,734,192,369,227,
0,520,721,263,364,224,
0,515,711,259,361,222,
0,509,700,257,358,220,
0,504,691,255,355,217,
0,498,681,253,352,216,
0,491,671,251,348,214,
0,486,664,248,345,212,
0,484,774,246,371,210,
0,487,761,244,368,208,
0,483,749,242,364,220,
0,478,736,240,359,217,
0,472,724,238,356,216,
0,467,714,236,353,214,
0,463,704,235,350,212,
0,458,695,232,347,211,
0,452,685,231,344,208,
0,448,676,229,352,207,
0,515,737,227,380,205,
0,509,726,225,376,204,
0,504,715,224,371,207,
0,497,702,222,367,206,
0,492,692,220,364,204,
0,487,683,218,359,203,
0,481,673,216,357,201,
0,476,664,215,353,199,
0,470,655,214,351,198,
0,465,655,211,391,196,
0,527,758,210,386,195,
0,521,746,208,382,193,
0,515,736,207,378,243,
0,510,721,206,374,241,
0,504,711,204,370,239,
0,498,700,203,367,237,
0,492,691,201,364,235,
0,487,681,199,359,233,
0,481,671,198,356,231,
0,476,715,196,391,229,
0,519,763,195,387,227,
0,513,751,193,384,225,
0,507,739,192,380,224,
0,501,726,191,376,222,
0,496,716,190,371,220,
0,490,705,188,368,217,
0,484,696,187,365,216,
0,480,686,185,361,215,
0,473,676,184,359,212,
0,468,773,183,408,211,
0,536,760,181,403,209,
0,530,748,180,399,207,
0,524,736,184,395,206,
0,518,723,183,391,204,
0,512,712,181,387,203,
0,507,703,179,384,201,
0,500,692,178,380,199,
0,496,684,177,376,199,
0,488,674,175,372,196,
0,504,742,174,385,195,
0,524,729,172,382,193,
0,518,719,172,379,231,
0,511,708,219,375,228,
0,505,696,216,370,227,
0,499,686,215,367,224,
0,495,676,212,364,223,
0,489,668,211,359,221,
0,484,659,209,358,219,
0,478,651,207,359,216,
0,533,751,205,387,216,
0,527,738,204,384,214,
0,520,728,202,379,231,
0,515,716,200,376,230,
0,508,704,220,371,227,
0,503,694,217,368,225,
0,497,684,216,364,224,
0,492,675,213,360,222,
0,486,665,211,358,220,
0,480,657,209,400,217,
0,531,764,207,398,216,
0,525,752,206,393,214,
0,519,742,204,390,236,
0,513,731,203,385,234,
0,507,717,201,381,231,
0,502,707,199,377,230,
0,496,697,198,374,228,
0,491,688,196,371,226,
0,483,679,195,367,224,
0,480,707,193,407,222,
0,521,760,192,401,220,
0,515,748,190,397,219,
0,509,737,201,393,216,
0,504,726,199,390,215,
0,497,712,198,385,213,
0,492,703,196,382,211,
0,487,693,195,378,209,
0,481,684,193,375,207,
0,475,674,192,371,206,
0,471,768,190,399,205,
0,519,769,188,395,203,
0,513,757,187,391,209,
0,508,745,231,387,207,
0,502,735,230,384,206,
0,496,721,227,378,204,
0,491,711,225,375,202,
0,486,701,224,371,200,
0,480,691,222,368,199,
0,473,682,220,364,198,
0,480,820,217,384,195,
0,512,805,216,380,194,
0,505,792,215,376,221,
0,499,780,212,372,219,
0,495,768,211,369,217,
0,489,754,209,364,216,
0,483,743,207,361,214,
0,479,732,206,359,211,
0,473,722,204,355,209,
0,467,712,203,353,207,
0,521,859,200,396,206,
0,515,843,199,391,204,
0,510,829,228,387,206,
0,504,816,227,384,204,
0,498,799,224,380,203,
0,493,787,223,376,201,
0,487,775,221,371,199,
0,482,764,219,368,198,
0,477,753,217,365,196,
0,471,747,216,407,195,
0,504,891,213,405,193,
0,498,873,211,400,192,
0,492,859,214,397,193,
0,487,845,212,393,192,
0,481,828,211,390,190,
0,476,815,208,384,188,
0,472,803,207,381,187,
0,467,791,206,377,185,
0,462,779,204,374,184,
0,455,847,202,393,184,
0,511,903,199,388,182,
0,505,903,199,385,194,
0,499,883,198,381,222,
0,494,867,195,377,220,
0,487,849,203,374,217,
0,483,835,201,369,216,
0,478,823,199,366,214,
0,472,810,198,363,212,
0,467,798,196,359,210,
0,462,882,195,407,209,
0,519,903,193,402,207,
0,513,894,192,398,205,
0,508,875,190,394,204,
0,502,860,188,390,201,
0,496,843,188,387,199,
0,491,830,186,382,199,
0,486,817,184,379,196,
0,480,804,184,375,195,
0,475,792,182,371,194,
0,474,893,180,403,192,
0,526,901,179,399,191,
0,519,883,177,395,207,
0,514,867,229,391,204,
0,508,853,227,387,203,
0,503,835,225,384,201,
0,497,823,223,379,199,
0,492,809,221,376,198,
0,486,798,219,371,196,
0,481,785,217,369,195,
0,520,898,216,396,193,
0,521,907,214,392,191,
0,515,900,214,389,191,
0,510,879,211,385,189,
0,504,864,210,382,188,
0,497,847,208,377,187,
0,492,833,207,374,184,
0,487,819,205,370,184,
0,481,807,204,367,182,
0,477,795,201,400,180,
0,507,902,199,403,179,
0,500,902,199,399,178,
0,496,881,199,395,206,
0,489,865,198,391,204,
0,484,852,196,387,203,
0,479,835,195,384,201,
0,473,822,193,380,199,
0,468,809,192,376,198,
0,463,797,191,372,195,
0,459,831,190,406,195,
0,519,901,188,400,193,
0,512,888,186,396,191,
0,507,871,191,392,189,
0,500,857,189,389,188,
0,495,843,231,385,186,
0,489,825,228,380,184,
0,484,813,226,377,184,
0,479,800,224,374,182,
0,473,788,222,370,180,
0,469,871,220,399,179,
0,543,899,217,395,177,
0,536,880,216,391,187,
0,529,865,215,387,185,
0,523,851,212,384,184,
0,518,838,211,380,182,
0,511,821,209,376,180,
0,505,808,207,372,179,
0,500,796,206,369,177,
0,495,783,204,366,176,
0,490,890,203,391,175,
0,518,896,200,387,173,
0,512,878,199,384,172,
0,505,863,201,380,171,
0,499,848,199,376,169,
0,495,835,198,373,167,
0,489,818,196,368,167,
0,484,806,195,365,166,
0,479,793,193,361,164,
0,473,782,192,359,163,
0,472,896,190,395,162,
0,524,899,188,391,161,
0,519,880,199,387,186,
0,512,865,197,384,184,
0,507,851,195,380,183,
0,500,837,194,376,180,
0,496,821,192,371,179,
0,489,807,191,368,178,
0,485,796,189,364,176,
0,480,783,188,391,175,
0,522,898,187,390,173,
0,536,886,184,386,193,
0,529,870,224,383,255,
0,523,855,222,379,252,
0,516,841,220,376,250,
0,511,828,218,371,248,
0,505,812,216,368,246,
0,499,799,215,364,243,
0,494,787,212,360,241,
0,488,807,211,391,240,
0,526,884,209,387,238,
0,518,868,207,384,235,
0,512,854,257,380,233,
0,505,839,255,376,231,
0,500,826,252,372,230,
0,495,814,249,369,227,
0,489,798,248,365,226,
0,484,785,246,361,224,
0,479,775,243,359,222,
0,474,849,241,408,221,
0,543,884,239,403,219,
0,534,868,237,399,217,
0,527,854,235,395,216,
0,521,839,233,391,214,
0,516,825,231,387,211,
0,510,812,230,384,210,
0,504,797,227,379,209,
0,499,785,226,376,207,
0,494,774,224,371,206,
0,488,883,223,416,204,
0,545,878,221,412,202,
0,536,862,219,408,200,
0,530,847,217,403,199,
0,524,834,216,399,198,
0,519,820,214,396,196,
0,512,807,212,391,195,
0,507,792,211,387,193,
0,501,780,209,384,192,
0,496,769,207,381,191,
0,491,892,206,398,189,
0,508,877,204,393,188,
0,500,863,206,390,218,
0,494,847,207,387,216,
0,488,834,205,383,214,
0,483,820,204,379,212,
0,479,807,201,376,210,
0,473,792,199,371,208,
0,469,780,199,368,207,
0,463,769,197,385,206,
0,493,888,195,396,204,
0,499,871,194,391,201,
0,494,856,195,388,201,
0,487,842,194,384,199,
0,483,828,215,381,199,
0,478,815,212,377,197,
0,472,803,211,374,195,
0,467,787,209,369,194,
0,462,775,207,366,192,
0,458,775,206,399,191,
0,518,868,204,395,190,
0,509,854,202,391,188,
0,504,839,204,387,194,
0,497,825,212,384,192,
0,492,813,211,380,191,
0,487,799,208,376,189,
0,481,788,207,372,188,
0,476,774,205,368,186,
0,472,761,203,364,184,
0,467,824,201,410,184,
0,511,864,199,405,182,
0,504,847,199,401,180,
0,497,834,251,397,202,
0,492,820,248,393,200,
0,487,807,246,390,199,
0,481,796,243,386,197,
0,476,783,241,383,195,
0,472,768,239,377,194,
0,466,758,237,375,192,
0,462,871,236,408,191,
0,513,862,233,404,189,
0,505,847,231,399,190,
0,500,833,229,396,197,
0,494,819,227,392,195,
0,489,807,225,388,193,
0,483,794,224,385,192,
0,478,782,222,382,190,
0,473,768,220,377,189,
0,467,756,219,374,188,
0,463,864,217,384,185,
0,483,848,216,380,184,
0,477,834,214,376,246,
0,472,820,270,372,241,
0,467,807,267,369,239,
0,462,795,263,366,236,
0,456,783,262,363,235,
0,452,768,259,359,232,
0,448,757,257,355,231,
0,444,747,255,372,229,
0,476,862,254,395,227,
0,492,847,251,391,225,
0,486,833,249,387,241,
0,480,819,247,383,239,
0,475,807,245,379,236,
0,470,793,243,376,235,
0,464,782,241,372,231,
0,460,768,239,368,231,
0,455,756,237,364,228,
0,450,748,236,399,227,
0,513,852,233,396,225,
0,507,838,231,391,223,
0,499,824,255,387,225,
0,494,811,252,384,223,
0,488,798,249,380,221,
0,483,785,248,376,219,
0,478,774,246,373,217,
0,472,760,243,369,216,
0,467,748,241,365,214,
0,463,799,240,391,212,
0,517,837,238,387,211,
0,510,823,236,383,209,
0,503,810,252,379,207,
0,496,797,249,376,205,
0,492,785,247,371,204,
0,486,772,244,368,202,
0,481,761,243,365,200,
0,476,748,240,361,199,
0,471,736,239,358,198,
0,466,839,236,376,196,
0,501,827,235,373,195,
0,495,814,232,369,220,
0,487,800,231,366,246,
0,483,788,228,362,243,
0,477,775,227,359,240,
0,472,764,225,355,238,
0,467,753,224,353,236,
0,462,739,222,350,235,
0,457,729,220,345,232,
0,453,828,219,384,231,
0,502,813,216,380,228,
0,496,799,216,376,227,
0,488,787,214,371,225,
0,483,775,211,368,224,
0,478,764,210,365,222,
0,472,752,208,361,220,
0,467,742,207,359,218,
0,463,728,206,355,216,
0,457,718,204,360,215,
0,478,831,203,387,213,
0,504,817,201,384,211,
0,498,804,199,380,211,
0,492,792,198,376,209,
0,486,780,197,372,207,
0,480,768,195,369,205,
0,476,756,194,366,204,
0,471,745,192,363,202,
0,465,732,192,359,200,
0,460,722,190,380,199,
0,502,817,188,376,198,
0,496,803,187,372,195,
0,489,792,209,368,220,
0,483,779,207,365,219,
0,478,768,207,361,216,
0,472,755,204,358,215,
0,467,743,203,355,212,
0,463,733,201,352,211,
0,457,720,199,348,209,
0,453,763,199,387,207,
0,515,815,196,382,206,
0,508,801,195,378,204,
0,504,789,236,375,251,
0,496,776,232,371,248,
0,490,765,231,368,246,
0,484,753,228,364,243,
0,480,743,227,360,241,
0,475,732,225,358,239,
0,470,719,223,353,237,
0,465,816,221,385,236,
0,534,801,219,381,233,
0,527,788,217,377,231,
0,521,775,236,374,252,
0,513,764,233,370,249,
0,508,752,231,367,247,
0,502,742,229,364,244,
0,496,731,227,359,243,
0,491,719,225,356,240,
0,486,707,224,352,239,
0,481,807,222,379,236,
0,508,792,220,375,235,
0,503,780,218,371,232,
0,497,768,216,368,231,
0,490,756,231,364,228,
0,484,744,252,360,227,
0,480,734,249,358,225,
0,475,723,247,354,224,
0,470,713,244,351,222,
0,465,701,243,351,220,
0,464,799,240,379,219,
0,495,785,239,375,216,
0,489,773,237,371,225,
0,484,761,235,368,223,
0,477,750,232,364,220,
0,472,739,231,360,219,
0,467,728,228,358,217,
0,462,718,227,355,216,
0,457,707,225,351,214,
0,452,713,224,374,212,
0,496,861,222,371,210,
0,492,846,220,367,208,
0,487,831,236,364,238,
0,481,818,234,359,236,
0,475,806,231,356,233,
0,470,793,230,353,231,
0,464,781,227,350,230,
0,460,769,226,347,227,
0,455,758,224,344,226,
0,450,760,222,388,224,
0,513,803,220,384,222,
0,507,790,219,380,220,
0,501,777,217,376,224,
0,495,766,216,372,223,
0,487,754,214,368,220,
0,483,743,212,366,218,
0,478,732,210,361,216,
0,472,722,208,359,215,
0,467,712,207,355,213,
0,463,805,206,369,211,
0,476,807,204,365,209,
0,471,793,203,361,207,
0,465,781,206,359,207,
0,460,769,204,355,206,
0,454,758,231,352,204,
0,449,747,229,348,202,
0,445,736,227,345,201,
0,440,725,225,343,199,
0,436,715,224,339,198,
0,432,807,222,379,196,
0,497,792,220,375,195,
0,492,780,217,371,201,
0,486,768,216,367,199,
0,480,756,215,364,197,
0,473,745,212,359,195,
0,468,734,211,356,193,
0,463,723,209,353,192,
0,459,713,207,350,191,
0,454,704,206,348,189,
0,451,794,204,376,188,
0,495,781,203,372,186,
0,489,769,201,369,231,
0,484,757,199,366,227,
0,477,745,198,362,226,
0,472,734,196,359,224,
0,467,724,195,355,222,
0,462,713,193,352,220,
0,457,704,192,349,218,
0,452,694,191,346,216,
0,492,788,189,369,214,
0,487,775,188,366,212,
0,481,764,190,362,211,
0,476,752,198,359,209,
0,469,741,195,355,207,
0,464,729,193,352,206,
0,459,719,192,349,204,
0,455,710,191,345,203,
0,449,699,189,343,201,
0,445,690,188,371,199,
0,476,796,186,374,198,
0,471,783,184,369,196,
0,465,771,184,366,195,
0,460,760,182,363,193,
0,454,748,180,359,192,
0,449,737,179,355,190,
0,444,727,178,352,188,
0,440,716,177,350,187,
0,435,706,176,346,185,
0,432,714,175,391,184,
0,521,796,173,384,183,
0,515,783,172,381,182,
0,508,771,179,377,196,
0,503,759,177,373,195,
0,496,748,176,370,193,
0,490,737,175,367,191,
0,484,726,174,363,189,
0,480,716,172,359,188,
0,475,705,171,356,186,
0,470,768,169,380,184,
0,492,783,167,375,184,
0,486,771,167,371,184,
0,480,760,223,367,182,
0,475,748,221,364,180,
0,468,737,219,359,179,
0,463,727,216,356,177,
0,459,716,215,353,176,
0,454,706,212,351,175,
0,449,696,211,348,174,
0,448,792,209,368,172,
0,496,779,207,363,172,
0,489,768,207,359,219,
0,484,755,230,355,216,
0,479,743,227,352,214,
0,472,732,225,349,211,
0,467,722,223,346,209,
0,462,711,221,343,207,
0,457,702,220,339,206,
0,452,692,217,337,204,
0,504,790,216,375,203,
0,519,777,214,370,201,
0,515,766,214,366,227,
0,508,753,211,363,225,
0,503,742,210,359,224,
0,496,731,207,355,222,
0,489,720,206,352,219,
0,484,710,204,350,217,
0,480,700,203,347,216,
0,475,691,201,367,214,
0,500,775,199,375,211,
0,494,764,199,370,210,
0,488,752,212,367,208,
0,483,740,217,363,207,
0,478,729,216,359,205,
0,472,719,214,356,204,
0,466,708,211,353,201,
0,461,699,210,350,199,
0,456,689,207,347,199,
0,452,685,207,367,196,
0,503,783,205,363,195,
0,496,771,203,359,193,
0,491,760,201,355,204,
0,486,748,199,352,202,
0,480,737,199,349,200,
0,473,727,196,345,199,
0,468,716,195,343,197,
0,463,706,193,339,195,
0,459,696,192,337,194,
0,455,753,191,373,192,
0,492,782,189,369,191,
0,486,769,188,364,221,
0,481,758,190,360,221,
0,476,746,188,358,219,
0,470,736,187,354,217,
0,463,725,185,352,216,
0,459,715,184,348,213,
0,454,704,183,344,211,
0,449,695,181,342,209,
0,446,792,179,371,207,
0,479,774,179,368,206,
0,473,763,177,363,205,
0,468,751,176,359,204,
0,463,739,175,356,201,
0,457,728,174,352,199,
0,451,718,172,350,199,
0,448,708,171,347,196,
0,443,698,170,344,195,
0,439,688,169,340,193,
0,476,799,167,376,192,
0,499,782,167,372,191,
0,493,770,199,368,190,
0,487,758,260,364,188,
0,481,747,257,360,187,
0,476,735,255,358,185,
0,470,724,252,354,184,
0,465,714,250,351,183,
0,460,704,248,348,181,
0,455,695,247,354,179,
0,480,787,243,363,178,
0,473,771,242,359,177,
0,468,759,240,355,180,
0,463,748,238,352,179,
0,457,736,236,348,177,
0,453,726,234,345,176,
0,447,715,231,342,175,
0,443,705,230,339,173,
0,438,696,228,336,172,
0,433,686,227,364,171,
0,499,785,225,359,169,
0,492,769,223,355,167,
0,487,758,222,352,167,
0,481,745,220,349,166,
0,476,735,218,346,165,
0,472,724,216,343,163,
0,464,714,214,339,163,
0,460,704,212,336,161,
0,455,695,211,334,160,
0,451,728,209,373,159,
0,504,760,207,368,158,
0,499,745,207,364,172,
0,493,734,205,360,174,
0,487,723,204,358,172,
0,482,713,201,354,171,
0,476,703,199,351,169,
0,470,693,199,348,167,
0,465,684,197,344,167,
0,460,675,195,342,166,
0,455,763,194,372,164,
0,513,750,193,369,163,
0,507,735,192,364,172,
0,502,724,203,360,171,
0,496,713,200,358,169,
0,489,704,199,354,167,
0,484,694,198,351,167,
0,478,684,195,348,165,
0,473,675,194,344,163,
0,467,665,192,342,163,
0,480,783,191,380,161,
0,497,770,190,376,159,
0,492,755,189,371,203,
0,487,743,192,368,199,
0,481,733,190,364,199,
0,476,722,188,360,196,
0,471,711,187,358,195,
0,464,702,185,355,193,
0,460,692,184,351,192,
0,455,683,183,352,190,
0,499,796,181,367,188,
0,492,783,179,363,187,
0,487,768,182,359,195,
0,481,755,179,355,194,
0,476,744,179,352,192,
0,471,734,177,348,191,
0,465,723,176,345,189,
0,460,713,174,343,187,
0,455,703,173,339,185,
0,450,694,172,372,184,
0,503,801,171,368,183,
0,496,788,169,364,182,
0,491,773,168,359,235,
0,485,761,167,356,231,
0,480,750,217,353,230,
0,475,739,216,350,228,
0,470,728,214,347,226,
0,463,718,211,344,224,
0,458,707,209,340,222,
0,454,731,207,368,220,
0,500,772,206,364,219,
0,495,760,204,359,216,
0,489,747,203,355,215,
0,483,736,201,352,214,
0,478,724,199,349,211,
0,473,714,198,345,210,
0,467,704,196,343,208,
0,462,695,195,339,206,
0,456,685,192,336,204,
0,452,762,192,342,203,
0,455,749,190,339,201,
0,451,737,188,335,219,
0,446,723,187,332,216,
0,441,713,185,329,215,
0,438,703,184,327,212,
0,433,693,183,323,211,
0,428,684,182,321,209,
0,423,674,179,319,207,
0,419,665,179,316,206,
0,448,714,177,364,204,
0,486,703,176,361,202,
0,480,692,175,358,203,
0,475,679,174,353,201,
0,470,671,196,350,199,
0,464,662,205,347,198,
0,460,653,203,344,196,
0,453,645,201,340,195,
0,448,637,199,337,193,
0,444,630,198,340,192,
0,507,761,195,376,190,
0,499,749,194,372,189,
0,494,738,196,369,208,
0,487,723,195,364,206,
0,483,713,193,361,204,
0,477,703,191,358,203,
0,472,694,190,354,201,
0,465,684,188,352,199,
0,461,675,187,348,198,
0,455,665,185,380,196,
0,496,770,184,376,194,
0,490,758,182,372,192,
0,485,746,184,369,234,
0,480,732,182,364,231,
0,473,721,180,361,230,
0,468,711,179,358,227,
0,463,701,177,355,225,
0,457,691,176,352,224,
0,452,681,175,348,222,
0,448,704,173,371,220,
0,505,746,172,367,217,
0,499,735,171,363,216,
0,494,724,183,359,216,
0,487,711,181,355,214,
0,483,700,179,352,211,
0,477,691,178,349,210,
0,472,681,176,345,208,
0,465,671,175,343,207,
0,461,664,173,339,205,
0,456,752,172,367,204,
0,525,760,171,363,201,
0,519,748,169,359,226,
0,513,734,175,355,224,
0,507,723,173,352,222,
0,502,712,172,348,220,
0,496,703,170,345,217,
0,491,692,168,343,216,
0,483,683,167,339,214,
0,479,674,166,336,212,
0,478,814,165,363,210,
0,496,799,163,359,208,
0,489,787,164,355,211,
0,484,771,164,352,209,
0,479,760,163,348,207,
0,473,748,162,344,206,
0,468,737,161,342,204,
0,463,727,159,338,203,
0,457,717,159,335,201,
0,453,707,157,334,199,
0,495,814,156,365,198,
0,489,799,155,361,196,
0,483,787,154,358,215,
0,478,772,153,354,213,
0,472,760,152,350,211,
0,467,749,151,347,209,
0,463,738,150,344,207,
0,457,728,149,340,206,
0,451,717,148,337,204,
0,447,707,147,372,202,
0,489,814,146,369,199,
0,483,799,145,366,199,
0,479,787,173,362,199,
0,472,772,171,359,198,
0,467,760,169,355,195,
0,463,749,167,352,195,
0,457,738,167,348,193,
0,453,728,165,344,192,
0,447,717,163,342,190,
0,443,729,162,377,188,
0,487,796,161,373,187,
0,481,783,159,369,188,
0,476,771,198,366,196,
0,471,756,195,363,195,
0,465,745,194,358,193,
0,460,735,192,355,191,
0,455,724,191,352,190,
0,451,713,189,348,188,
0,445,704,187,345,187,
0,440,777,185,369,184,
0,514,771,184,366,184,
0,508,760,183,361,215,
0,503,748,225,359,211,
0,496,734,223,355,210,
0,491,723,221,351,207,
0,486,712,219,348,207,
0,480,703,217,344,204,
0,475,693,216,342,203,
0,468,684,212,339,201,
0,464,763,211,386,199,
0,485,751,209,382,198,
0,479,739,207,379,196,
0,473,728,206,375,195,
0,468,715,204,371,193,
0,463,704,203,367,192,
0,459,695,201,364,190,
0,454,685,199,359,188,
0,449,675,198,356,187,
0,444,667,196,353,185,
0,504,775,195,379,184,
0,502,761,193,375,182,
0,496,750,194,371,206,
0,489,739,192,368,204,
0,484,725,191,364,202,
0,480,715,189,359,200,
0,473,704,188,356,199,
0,468,695,187,353,198,
0,463,685,185,350,195,
0,457,675,184,362,194,
0,489,803,182,363,192,
0,483,791,180,359,190,
0,478,779,179,355,223,
0,472,766,178,352,220,
0,467,752,177,348,218,
0,463,740,176,345,216,
0,457,730,174,342,215,
0,453,719,173,339,212,
0,448,710,172,335,211,
0,443,711,170,364,209,
0,517,787,169,359,207,
0,511,775,167,355,207,
0,504,763,236,352,226,
0,499,752,233,349,224,
0,493,737,231,344,222,
0,487,727,230,342,220,
0,483,716,227,339,218,
0,478,707,225,335,216,
0,472,696,224,333,215,
0,467,771,222,371,212,
0,505,799,220,366,211,
0,499,786,218,363,211,
0,494,774,216,359,208,
0,487,762,215,356,207,
0,483,748,212,352,205,
0,477,736,211,348,204,
0,472,727,209,345,202,
0,467,716,207,343,199,
0,462,706,206,339,199,
0,459,837,204,384,197,
0,510,821,203,380,195,
0,504,807,201,376,235,
0,499,795,207,372,231,
0,493,783,204,368,230,
0,487,768,203,364,227,
0,482,756,201,361,226,
0,477,745,199,358,224,
0,472,735,198,355,222,
0,467,724,196,352,220,
0,519,826,195,371,218,
0,536,812,193,367,216,
0,529,799,199,363,243,
0,524,786,201,359,240,
0,517,775,199,356,238,
0,511,760,198,352,236,
0,505,748,195,349,233,
0,500,737,195,345,231,
0,495,728,193,343,230,
0,489,717,192,371,228,
0,523,803,190,374,225,
0,516,791,188,369,224,
0,510,778,220,366,227,
0,504,766,217,363,224,
0,499,755,216,359,223,
0,494,740,214,355,221,
0,487,730,212,352,219,
0,483,719,210,348,217,
0,478,710,208,345,216,
0,472,702,207,387,214,
0,505,785,204,382,211,
0,499,772,203,378,210,
0,494,760,206,375,235,
0,487,749,204,371,232,
0,483,738,203,368,231,
0,477,724,200,363,228,
0,472,715,199,359,227,
0,467,704,198,356,225,
0,463,695,195,353,223,
0,457,759,195,384,221,
0,491,777,192,380,219,
0,485,765,191,376,228,
0,480,753,204,372,229,
0,474,742,203,368,227,
0,469,731,201,365,225,
0,463,718,199,360,223,
0,459,707,198,358,221,
0,454,698,196,354,219,
0,449,688,195,351,217,
0,446,799,193,376,216,
0,504,784,191,371,214,
0,498,772,190,368,214,
0,493,760,188,364,211,
0,487,749,187,360,209,
0,481,738,185,358,207,
0,476,724,184,353,207,
0,472,714,183,350,204,
0,466,704,181,347,203,
0,461,695,179,344,201,
0,502,803,179,382,199,
0,506,788,177,378,199,
0,500,776,211,374,231,
0,495,764,216,370,229,
0,489,753,214,367,227,
0,483,742,211,364,225,
0,479,728,210,359,223,
0,473,718,207,355,221,
0,468,707,206,352,219,
0,463,698,204,375,217,
0,492,801,203,382,216,
0,487,787,201,377,214,
0,481,775,199,374,214,
0,476,764,198,371,212,
0,471,752,196,367,211,
0,465,742,195,364,209,
0,461,728,193,359,207,
0,455,718,192,355,206,
0,451,707,190,352,204,
0,447,698,189,391,203,
0,522,790,187,387,200,
0,515,777,185,384,199,
0,510,765,184,380,198,
0,504,753,183,376,196,
0,497,742,182,372,195,
0,492,732,179,368,193,
0,487,718,179,364,192,
0,481,707,177,361,190,
0,476,698,176,358,189,
0,472,769,175,397,188,
0,527,812,173,391,186,
0,521,798,172,388,200,
0,515,785,181,384,202,
0,510,774,179,381,199,
0,504,761,177,377,199,
0,498,748,176,374,197,
0,492,737,175,369,195,
0,487,727,174,366,194,
0,482,716,172,363,192,
0,478,831,171,396,191,
0,527,828,169,391,189,
0,520,814,167,387,222,
0,514,801,189,384,219,
0,508,788,188,380,217,
0,503,776,185,376,216,
0,497,761,184,374,214,
0,492,751,183,368,211,
0,487,739,181,365,210,
0,481,729,179,362,208,
0,476,815,179,393,207,
0,508,801,176,390,205,
0,503,788,179,386,203,
0,496,775,202,382,201,
0,491,764,200,379,199,
0,486,753,199,375,198,
0,480,739,197,371,196,
0,476,728,195,367,195,
0,471,718,193,364,193,
0,465,707,192,363,192,
0,485,803,191,373,191,
0,512,790,189,369,188,
0,507,776,188,366,187,
0,500,765,185,362,185,
0,495,753,184,359,184,
0,489,743,183,355,183,
0,484,728,182,352,182,
0,480,718,180,348,180,
0,474,708,179,345,179,
0,469,699,177,371,177,
0,504,792,176,368,176,
0,497,779,174,364,175,
0,492,768,257,359,199,
0,486,755,252,356,198,
0,480,743,250,353,196,
0,476,732,248,351,195,
0,470,719,246,348,193,
0,465,710,243,344,192,
0,460,700,241,340,190,
0,455,733,240,380,188,
0,504,767,238,375,187,
0,496,755,235,371,185,
0,491,743,233,368,185,
0,484,732,231,364,184,
0,480,721,230,359,183,
0,474,711,227,357,181,
0,469,699,226,354,179,
0,463,689,224,350,179,
0,460,679,223,347,177,
0,455,747,221,384,176,
0,523,735,219,380,174,
0,515,723,217,376,176,
0,509,713,252,372,187,
0,504,702,250,369,185,
0,497,692,248,366,184,
0,492,683,246,363,182,
0,487,671,243,359,180,
0,481,663,241,355,179,
0,476,654,239,352,177,
0,472,791,238,387,176,
0,529,776,236,384,175,
0,521,764,233,380,192,
0,515,752,231,376,189,
0,509,742,230,372,188,
0,504,730,227,369,186,
0,497,719,226,366,184,
0,492,707,224,361,183,
0,487,697,223,359,182,
0,482,688,220,361,180,
0,479,799,219,394,179,
0,508,785,217,390,177,
0,501,773,215,387,195,
0,496,761,214,383,192,
0,489,750,211,379,191,
0,484,739,210,376,190,
0,480,728,208,371,188,
0,474,715,207,368,186,
0,470,705,206,364,184,
0,464,696,204,371,184,
0,496,795,203,367,182,
0,492,782,201,363,180,
0,486,769,199,359,212,
0,480,758,198,356,209,
0,475,747,196,353,207,
0,470,736,195,350,206,
0,463,725,193,347,204,
0,460,711,192,344,203,
0,455,702,191,340,201,
0,450,734,189,364,199,
0,485,781,188,359,217,
0,480,768,187,355,268,
0,472,757,187,352,304,
0,467,745,185,349,300,
0,462,735,224,346,297,
0,456,723,221,343,295,
0,452,713,219,339,292,
0,448,701,217,335,289,
0,443,691,216,333,287,
0,439,790,214,376,285,
0,493,779,212,371,283,
0,487,767,210,368,280,
0,480,755,207,364,278,
0,475,743,206,361,275,
0,470,732,204,358,273,
0,464,722,203,355,271,
0,460,711,201,352,268,
0,455,700,199,348,267,
0,449,689,199,344,263,
0,446,811,197,376,262,
0,508,796,195,372,260,
0,502,783,194,369,258,
0,495,771,199,365,255,
0,489,760,198,361,254,
0,483,748,196,359,252,
0,479,737,195,355,249,
0,473,728,193,352,248,
0,468,714,192,348,246,
0,463,704,190,347,244,
0,464,814,188,379,243,
0,505,799,187,376,240,
0,499,787,185,371,239,
0,492,775,187,368,236,
0,487,763,185,364,235,
0,481,752,184,361,233,
0,476,740,183,358,231,
0,471,730,181,355,230,
0,465,717,179,351,228,
0,460,707,179,385,227,
0,516,807,177,381,225,
0,515,793,176,377,223,
0,510,781,179,374,222,
0,502,769,180,369,220,
0,496,758,179,366,217,
0,491,746,177,363,216,
0,486,736,176,359,215,
0,480,724,175,356,214,
0,475,711,174,352,211,
0,470,731,172,388,210,
0,472,787,171,384,209,
0,466,775,169,380,207,
0,462,763,169,376,206,
0,455,751,167,372,204,
0,451,739,167,369,203,
0,446,728,167,366,201,
0,441,719,166,362,199,
0,438,708,164,359,198,
0,433,696,163,355,197,
0,430,795,162,391,195,
0,504,799,161,385,194,
0,499,787,159,382,193,
0,492,775,247,379,195,
0,486,763,243,375,193,
0,480,751,240,371,192,
0,476,740,238,368,191,
0,470,729,236,364,190,
0,465,719,234,360,188,
0,460,707,231,357,187,
0,455,802,231,384,185,
0,510,788,228,380,184,
0,504,775,227,377,220,
0,496,764,225,373,217,
0,491,752,235,369,216,
0,486,741,260,366,214,
0,480,730,257,362,211,
0,475,719,255,359,209,
0,470,710,253,355,207,
0,465,697,251,352,207,
0,461,792,248,386,205,
0,496,779,247,382,203,
0,491,768,244,379,211,
0,483,755,243,375,209,
0,479,743,240,371,207,
0,473,733,239,368,206,
0,468,723,236,364,204,
0,463,711,234,360,202,
0,457,702,231,358,199,
0,454,690,231,387,199,
0,495,801,229,386,198,
0,498,788,227,382,195,
0,492,776,225,379,198,
0,486,764,224,375,195,
0,480,753,222,371,194,
0,475,742,220,368,192,
0,470,731,218,364,191,
0,464,720,216,360,190,
0,460,710,215,358,188,
0,455,728,214,387,187,
0,511,798,211,384,185,
0,504,784,210,379,184,
0,499,772,208,376,183,
0,492,760,207,371,182,
0,486,749,205,368,179,
0,480,738,204,364,179,
0,476,728,201,361,177,
0,471,717,200,358,176,
0,465,704,199,355,175,
0,460,783,198,384,174,
0,531,803,196,379,172,
0,525,790,195,376,171,
0,519,777,241,371,170,
0,511,765,239,368,168,
0,505,753,236,364,167,
0,499,743,233,361,166,
0,494,732,231,358,165,
0,489,721,230,355,164,
0,484,709,228,352,163,
0,480,807,227,388,162,
0,529,792,224,384,161,
0,523,780,223,381,214,
0,517,768,221,377,225,
0,510,756,219,374,224,
0,504,745,216,369,220,
0,499,734,216,366,219,
0,492,723,214,363,217,
0,487,713,211,359,216,
0,482,700,210,356,214,
0,478,812,208,385,211,
0,505,798,207,382,210,
0,499,785,206,377,248,
0,494,773,204,374,244,
0,487,761,202,370,242,
0,481,750,199,367,240,
0,476,739,199,364,238,
0,472,728,198,359,236,
0,466,718,195,356,233,
0,462,705,195,353,231,
0,499,807,193,390,230,
0,503,793,192,385,227,
0,497,781,190,382,226,
0,492,769,190,377,224,
0,484,758,188,374,223,
0,479,747,187,371,220,
0,473,736,185,368,219,
0,468,725,184,364,216,
0,463,715,183,359,216,
0,459,732,182,376,214,
0,519,806,180,383,211,
0,512,792,179,379,210,
0,506,780,241,376,217,
0,500,768,246,371,216,
0,494,756,243,368,214,
0,487,745,240,364,211,
0,483,735,239,361,209,
0,478,723,236,358,207,
0,472,713,234,355,206,
0,467,788,232,387,205,
0,500,793,231,384,203,
0,494,781,228,380,201,
0,488,769,230,376,201,
0,483,758,268,371,199,
0,476,746,264,368,198,
0,472,735,263,365,195,
0,466,724,260,361,195,
0,462,714,258,358,193,
0,456,704,255,355,192,
0,452,799,254,375,190,
0,479,786,252,369,188,
0,472,774,249,366,211,
0,467,761,289,363,209,
0,462,750,286,359,207,
0,455,739,283,356,206,
0,451,728,280,352,203,
0,447,718,278,350,201,
0,442,707,275,347,199,
0,438,698,273,344,199,
0,433,802,271,375,196,
0,496,789,268,371,195,
0,490,776,267,368,194,
0,484,764,263,364,192,
0,480,753,262,360,191,
0,472,742,259,358,189,
0,467,731,257,354,188,
0,463,720,255,351,186,
0,457,711,254,348,184,
0,453,700,252,344,184,
0,492,811,249,380,182,
0,504,798,248,376,180,
0,497,785,246,372,179,
0,492,772,243,368,179,
0,487,761,241,365,177,
0,480,750,240,361,176,
0,475,739,238,358,174,
0,470,728,236,355,173,
0,464,718,234,352,172,
0,460,707,232,367,171,
0,513,803,231,380,169,
0,506,790,228,376,167,
0,500,777,227,372,184,
0,495,765,225,368,183,
0,489,754,224,365,180,
0,483,743,222,361,179,
0,477,732,220,358,177,
0,472,721,219,355,176,
0,467,711,217,352,175,
0,462,702,216,371,173,
0,486,788,214,367,172,
0,480,775,212,363,171,
0,475,764,211,359,192,
0,470,752,209,356,190,
0,464,741,207,353,188,
0,457,731,206,350,187,
0,454,719,204,347,184,
0,448,710,203,344,184,
0,444,700,201,340,182,
0,440,745,199,384,180,
0,499,776,199,377,179,
0,493,764,197,374,178,
0,487,752,209,371,177,
0,482,741,207,367,176,
0,476,730,205,364,174,
0,470,719,203,359,172,
0,465,709,201,356,171,
0,460,700,199,353,169,
0,455,689,198,350,168,
0,451,796,196,380,167,
0,493,778,195,375,166,
0,487,766,193,371,164,
0,482,754,192,368,163,
0,476,743,191,364,163,
0,472,732,190,359,161,
0,464,721,188,357,159,
0,460,711,187,353,159,
0,455,701,185,351,158,
0,450,691,184,348,157,
0,476,793,183,377,156,
0,497,775,182,372,155,
0,492,764,181,368,207,
0,486,752,184,365,205,
0,480,741,182,361,204,
0,476,731,180,358,201,
0,468,719,179,355,199,
0,463,710,177,352,198,
0,459,700,176,348,196,
0,454,690,175,353,195,
0,492,788,174,377,193,
0,487,772,172,372,192,
0,481,760,196,369,190,
0,476,748,195,365,188,
0,470,737,196,362,187,
0,465,727,194,359,185,
0,459,716,192,355,184,
0,454,706,191,352,182,
0,449,696,189,348,180,
0,444,687,188,382,179,
0,486,782,186,377,178,
0,480,767,184,373,176,
0,475,755,191,369,184,
0,470,743,189,366,184,
0,464,732,188,362,182,
0,458,721,186,359,180,
0,453,711,184,355,178,
0,448,702,183,352,176,
0,444,691,181,349,176,
0,440,736,179,380,174,
0,504,793,178,376,173,
0,497,777,177,371,199,
0,492,766,197,368,220,
0,487,753,195,364,217,
0,481,743,194,359,216,
0,475,732,192,357,214,
0,470,721,190,354,211,
0,464,711,188,351,210,
0,460,701,187,348,207,
0,455,803,185,387,206,
0,512,799,184,383,204,
0,507,784,183,379,247,
0,500,772,184,375,243,
0,495,760,182,371,241,
0,489,749,180,368,239,
0,483,738,179,364,236,
0,478,728,177,359,234,
0,472,717,176,357,231,
0,467,707,174,354,231,
0,489,782,173,381,228,
0,521,765,172,377,227,
0,515,753,177,372,302,
0,508,742,181,369,297,
0,504,732,200,366,295,
0,497,720,199,361,292,
0,491,710,199,359,289,
0,486,700,196,355,287,
0,480,691,195,352,284,
0,475,681,193,350,281,
0,502,791,192,379,280,
0,496,777,190,375,277,
0,490,763,209,370,281,
0,484,751,209,367,280,
0,480,739,207,364,276,
0,473,728,205,359,274,
0,467,719,203,356,271,
0,463,708,201,353,270,
0,457,698,199,350,268,
0,454,689,198,381,265,
0,503,799,196,376,263,
0,496,783,195,372,261,
0,491,771,193,368,259,
0,484,760,192,364,257,
0,480,748,190,361,255,
0,474,737,188,358,253,
0,467,726,187,354,251,
0,463,716,185,351,248,
0,457,706,184,348,247,
0,454,729,183,384,245,
0,499,790,181,379,243,
0,494,774,179,375,241,
0,487,762,179,371,240,
0,483,750,178,367,238,
0,478,739,177,364,236,
0,472,728,176,359,233,
0,465,718,175,356,232,
0,461,707,172,353,230,
0,455,698,172,350,228,
0,451,782,171,381,227,
0,548,787,169,377,225,
0,542,771,167,373,262,
0,536,760,167,368,259,
0,529,748,166,365,255,
0,523,736,164,361,254,
0,518,726,163,359,252,
0,510,716,162,355,249,
0,504,705,161,352,248,
0,499,696,159,348,246,
0,496,806,159,381,243,
0,512,792,158,377,241,
0,505,776,157,374,239,
0,500,764,186,369,237,
0,495,753,184,366,236,
0,489,742,183,362,233,
0,484,731,181,359,231,
0,478,720,179,355,230,
0,472,710,177,352,227,
0,468,700,176,350,226,
0,494,808,175,377,224,
0,487,795,173,374,223,
0,481,780,208,370,225,
0,476,768,210,366,224,
0,472,756,208,362,222,
0,466,744,207,359,220,
0,462,734,204,355,219,
0,455,723,203,352,216,
0,451,713,201,349,215,
0,447,704,199,368,214,
0,472,779,198,365,211,
0,467,766,196,361,211,
0,462,752,218,358,263,
0,456,740,216,354,262,
0,451,729,214,351,259,
0,447,719,211,348,257,
0,443,708,210,344,255,
0,436,699,207,342,252,
0,433,689,206,338,249,
0,429,707,204,361,248,
0,500,774,203,357,246,
0,494,761,201,353,264,
0,487,747,205,350,297,
0,483,736,204,346,294,
0,478,726,201,344,291,
0,472,715,199,340,288,
0,467,704,199,337,286,
0,461,695,196,334,284,
0,455,685,195,332,280,
0,452,770,193,366,279,
0,500,785,192,361,276,
0,495,772,191,358,273,
0,489,758,211,354,271,
0,483,745,207,351,270,
0,478,735,207,348,267,
0,473,724,204,344,265,
0,467,713,203,342,263,
0,462,704,200,338,261,
0,456,694,199,335,259,
0,460,811,198,372,255,
0,502,796,196,368,254,
0,496,783,195,364,253,
0,491,768,195,359,251,
0,485,756,193,356,249,
0,480,745,192,353,248,
0,475,734,191,350,246,
0,470,723,189,347,243,
0,463,713,187,344,241,
0,458,704,185,341,240,
0,511,798,184,381,238,
0,512,783,183,377,236,
0,507,771,182,374,236,
0,500,757,180,369,233,
0,495,745,179,366,231,
0,489,735,177,362,230,
0,484,723,176,359,228,
0,479,713,175,355,227,
0,472,704,173,352,224,
0,467,694,172,371,223,
0,479,819,171,374,221,
0,472,806,169,369,220,
0,467,793,220,366,218,
0,463,777,217,361,216,
0,457,766,215,358,215,
0,452,755,213,355,214,
0,448,743,211,352,211,
0,444,732,209,348,210,
0,438,722,207,345,208,
0,434,739,206,359,207,
0,487,823,204,355,206,
0,483,808,203,352,204,
0,478,796,243,349,212,
0,472,780,241,345,211,
0,467,769,239,342,209,
0,462,757,236,339,207,
0,455,746,235,335,206,
0,451,736,232,333,204,
0,446,724,230,330,202,
0,441,792,228,369,200,
0,495,805,227,365,199,
0,488,792,225,361,222,
0,483,780,224,358,224,
0,478,764,222,353,223,
0,472,753,220,351,221,
0,467,742,218,348,219,
0,462,732,216,344,217,
0,457,721,215,341,216,
0,451,711,212,338,213,
0,448,818,211,363,211,
0,490,803,209,359,209,
0,484,791,207,356,207,
0,479,779,217,352,206,
0,473,764,216,348,204,
0,468,752,214,345,203,
0,463,740,211,342,201,
0,459,730,210,339,199,
0,454,719,208,335,198,
0,448,710,207,333,196,
0,483,820,204,354,195,
0,481,806,203,351,193,
0,476,793,202,348,271,
0,470,780,199,344,269,
0,465,766,199,340,267,
0,460,755,198,337,263,
0,455,743,196,334,262,
0,450,732,195,331,259,
0,446,722,193,327,257,
0,440,712,192,359,255,
0,508,787,190,370,252,
0,501,775,188,367,251,
0,496,764,237,363,248,
0,489,752,233,359,246,
0,484,737,231,355,244,
0,479,727,230,352,242,
0,473,716,227,349,240,
0,468,706,226,345,239,
0,462,696,224,343,236,
0,457,694,222,374,234,
0,495,777,220,369,233,
0,489,765,218,366,231,
0,483,753,254,363,236,
0,478,742,251,359,235,
0,472,728,248,355,231,
0,467,718,246,352,231,
0,463,707,244,348,228,
0,457,697,242,345,227,
0,451,688,240,343,225,
0,448,743,238,371,223,
0,498,772,236,368,221,
0,492,760,233,364,220,
0,487,749,232,360,217,
0,481,737,231,357,216,
0,476,723,228,353,215,
0,471,713,227,350,213,
0,465,704,225,347,211,
0,460,694,224,344,209,
0,455,684,222,340,208,
0,451,782,220,372,207,
0,499,768,217,368,205,
0,493,755,216,364,251,
0,487,743,214,361,248,
0,482,734,212,358,245,
0,476,719,211,353,243,
0,472,710,209,351,241,
0,467,700,207,347,239,
0,461,690,207,344,237,
0,455,680,205,341,235,
0,494,775,203,384,232,
0,500,761,201,379,231,
0,495,750,204,376,229,
0,488,738,216,371,227,
0,483,728,214,368,225,
0,478,714,211,364,224,
0,472,704,210,359,222,
0,467,694,207,357,220,
0,463,684,206,353,219,
0,456,675,204,369,217,
0,511,798,203,379,215,
0,504,784,201,375,213,
0,499,772,268,371,236,
0,494,760,263,368,233,
0,487,746,262,364,231,
0,483,735,259,359,229,
0,477,724,257,356,227,
0,472,714,255,353,225,
0,467,704,253,350,224,
0,460,695,251,385,222,
0,492,777,248,381,219,
0,487,764,246,377,217,
0,481,753,255,373,245,
0,476,742,253,369,243,
0,471,728,251,366,240,
0,465,718,248,362,239,
0,460,707,247,359,236,
0,455,697,244,355,235,
0,451,688,243,352,232,
0,446,743,240,382,231,
0,511,787,238,377,228,
0,505,775,236,374,227,
0,499,763,237,369,225,
0,494,751,235,366,224,
0,487,737,233,363,222,
0,483,727,231,359,220,
0,478,716,230,355,218,
0,472,706,227,352,216,
0,467,696,226,348,215,
0,462,796,224,383,214,
0,507,781,222,379,211,
0,500,768,220,375,224,
0,495,756,219,371,222,
0,489,745,217,368,220,
0,483,732,216,364,217,
0,479,721,214,359,216,
0,473,711,212,356,214,
0,468,701,211,353,212,
0,463,691,209,351,211,
0,478,799,207,389,209,
0,480,785,206,385,207,
0,475,773,204,382,206,
0,470,761,211,377,204,
0,463,750,210,374,203,
0,460,736,208,370,201,
0,455,725,207,366,199,
0,450,715,204,363,198,
0,445,704,204,359,196,
0,440,696,201,377,195,
0,500,838,199,400,194,
0,494,823,199,396,192,
0,488,809,247,391,192,
0,483,796,243,388,190,
0,478,783,241,385,189,
0,472,769,239,381,188,
0,467,758,237,376,187,
0,462,747,235,373,185,
0,457,736,232,369,184,
0,452,726,231,384,183,
0,500,821,228,380,182,
0,494,807,227,376,179,
0,489,795,231,372,223,
0,483,782,228,369,220,
0,478,771,227,366,219,
0,472,756,225,362,216,
0,467,745,223,358,215,
0,463,734,222,355,213,
0,457,723,220,352,211,
0,453,763,217,384,209,
0,516,811,216,380,207,
0,510,797,214,376,206,
0,504,784,234,372,209,
0,499,772,231,368,207,
0,492,761,230,365,206,
0,487,747,228,360,204,
0,482,736,226,358,203,
0,477,725,224,354,201,
0,472,715,223,352,199,
0,467,798,220,384,198,
0,502,783,218,380,196,
0,496,771,216,376,217,
0,490,760,239,373,216,
0,484,748,236,369,214,
0,480,736,235,366,211,
0,474,723,232,361,209,
0,469,713,231,359,207,
0,463,704,228,355,206,
0,459,694,227,352,204,
0,455,810,225,391,203,
0,515,796,223,387,201,
0,509,783,221,384,199,
0,504,771,219,380,198,
0,497,760,217,376,195,
0,492,748,216,372,195,
0,487,734,214,368,193,
0,481,723,212,364,192,
0,476,713,211,361,190,
0,471,704,209,364,189,
0,495,809,207,398,187,
0,523,796,206,393,185,
0,517,783,204,390,231,
0,511,771,203,386,229,
0,505,760,201,382,227,
0,499,748,199,379,225,
0,494,735,198,374,223,
0,488,723,196,371,222,
0,483,713,195,367,220,
0,478,704,194,400,217,
0,492,801,192,397,216,
0,484,788,191,393,214,
0,480,776,190,389,217,
0,474,764,188,385,216,
0,468,753,187,382,214,
0,463,742,185,378,211,
0,459,728,184,374,210,
0,455,718,184,370,208,
0,449,707,182,367,207,
0,446,747,181,387,205,
0,508,799,179,384,204,
0,500,787,178,380,227,
0,495,775,207,376,226,
0,488,763,205,371,224,
0,483,752,204,368,222,
0,479,740,201,365,220,
0,473,728,199,361,219,
0,467,717,199,358,216,
0,463,707,197,355,215,
0,458,812,195,369,214,
0,494,819,193,365,211,
0,486,806,192,361,211,
0,480,793,190,358,209,
0,475,781,189,355,207,
0,470,769,187,352,206,
0,465,758,185,348,204,
0,460,743,184,344,203,
0,455,733,183,342,200,
0,451,722,182,339,199,
0,446,825,180,377,198,
0,515,812,179,374,196,
0,508,798,207,370,197,
0,502,785,228,366,195,
0,496,774,227,363,193,
0,491,761,224,359,192,
0,485,751,223,356,191,
0,480,736,220,352,190,
0,475,726,219,348,188,
0,470,716,217,348,187,
0,472,820,216,388,185,
0,515,807,214,384,184,
0,508,794,211,380,204,
0,502,781,209,376,202,
0,496,769,207,374,200,
0,491,758,206,369,199,
0,486,747,204,366,198,
0,480,733,203,362,195,
0,475,723,201,359,194,
0,470,712,199,391,193,
0,504,807,199,388,191,
0,501,793,197,384,190,
0,495,781,195,380,188,
0,489,769,193,376,186,
0,484,758,192,372,184,
0,479,747,191,369,183,
0,473,736,190,366,182,
0,468,722,188,361,180,
0,463,711,187,359,179,
0,459,745,185,384,178,
0,519,807,184,380,176,
0,510,794,183,376,176,
0,504,782,188,372,211,
0,499,769,187,369,209,
0,493,758,193,365,207,
0,487,747,192,361,206,
0,482,736,190,359,204,
0,477,723,188,355,203,
0,472,711,187,352,201,
0,467,804,185,380,199,
0,513,798,184,376,198,
0,505,785,183,372,209,
0,500,773,204,368,246,
0,495,760,202,364,243,
0,489,750,219,361,241,
0,483,739,216,358,240,
0,479,728,215,355,238,
0,473,715,212,351,236,
0,468,704,211,348,233,
0,463,823,209,379,231,
0,509,807,207,376,230,
0,502,795,206,371,268,
0,496,783,214,368,263,
0,491,771,216,364,262,
0,485,760,224,361,259,
0,480,748,222,358,257,
0,475,737,220,354,255,
0,470,723,217,350,252,
0,464,713,216,348,251,
0,462,830,214,391,248,
0,515,815,212,388,246,
0,507,802,211,384,244,
0,502,790,208,380,242,
0,496,777,207,376,240,
0,490,766,205,374,238,
0,485,754,204,369,236,
0,480,740,202,366,235,
0,475,729,199,361,232,
0,470,719,199,396,231,
0,496,845,198,395,228,
0,499,831,195,391,227,
0,492,817,195,387,228,
0,487,804,195,384,226,
0,481,792,193,380,224,
0,476,780,192,376,223,
0,472,768,191,372,221,
0,466,753,189,369,219,
0,461,743,188,364,217,
0,456,753,187,391,216,
0,501,828,185,387,214,
0,495,814,184,383,212,
0,487,801,183,379,211,
0,483,788,181,376,209,
0,477,776,179,371,207,
0,472,765,178,368,206,
0,467,753,177,364,204,
0,462,739,176,361,203,
0,456,729,175,357,201,
0,452,810,174,385,199,
0,539,831,172,382,199,
0,531,817,171,377,214,
0,524,804,182,374,257,
0,518,792,179,370,254,
0,512,780,178,367,252,
0,505,768,176,364,249,
0,500,756,175,359,248,
0,495,743,174,356,246,
0,489,732,173,353,243,
0,485,824,172,379,241,
0,519,809,169,376,239,
0,513,796,168,371,238,
0,506,783,211,368,236,
0,500,771,209,364,233,
0,494,760,207,359,231,
0,489,748,206,358,230,
0,483,737,204,354,228,
0,479,724,201,351,227,
0,473,714,199,347,224,
0,469,807,199,384,223,
0,512,793,197,380,221,
0,505,781,195,376,220,
0,498,768,226,372,217,
0,492,757,224,369,216,
0,487,746,222,366,214,
0,482,735,220,362,212,
0,476,724,218,359,211,
0,472,711,216,355,209,
0,466,702,215,378,207,
0,483,809,212,382,206,
0,490,796,211,377,204,
0,484,783,209,374,203,
0,478,771,207,371,201,
0,472,760,206,367,199,
0,467,748,204,364,198,
0,462,737,203,359,196,
0,457,727,200,356,195,
0,453,713,199,353,194,
0,448,719,198,395,192,
0,526,807,196,390,191,
0,519,793,195,386,190,
0,512,782,198,382,188,
0,504,769,195,377,187,
0,499,758,193,375,185,
0,494,747,192,371,184,
0,487,736,191,368,183,
0,483,725,189,364,182,
0,478,711,188,359,180,
0,472,780,186,391,179,
0,504,801,185,387,177,
0,498,788,184,384,176,
0,492,775,195,380,204,
0,486,764,193,376,201,
0,480,752,192,373,199,
0,475,742,190,369,198,
0,470,731,188,366,196,
0,465,719,187,363,195,
0,460,707,185,359,193,
0,455,794,184,388,192,
0,495,780,183,384,190,
0,489,768,181,380,188,
0,483,756,191,376,187,
0,477,745,188,373,185,
0,472,734,187,369,184,
0,467,723,185,366,182,
0,462,712,184,363,180,
0,456,703,182,359,179,
0,452,691,181,355,178,
0,454,783,179,398,176,
0,504,769,178,393,175,
0,499,758,177,390,176,
0,493,746,187,386,174,
0,487,735,184,383,172,
0,481,724,183,379,172,
0,476,713,182,376,170,
0,471,704,179,371,169,
0,465,694,178,368,167,
0,460,683,176,384,167,
0,492,786,176,385,166,
0,511,774,174,382,164,
0,504,762,176,377,188,
0,499,750,182,374,187,
0,492,739,180,371,184,
0,487,728,179,367,183,
0,481,718,177,364,182,
0,476,707,176,359,179,
0,471,697,174,357,179,
0,466,689,173,383,177,
0,515,790,172,378,176,
0,510,776,171,375,174,
0,504,765,212,371,200,
0,497,753,209,367,199,
0,491,742,207,364,197,
0,486,731,205,359,195,
0,480,720,204,356,193,
0,475,710,201,353,192,
0,470,700,199,350,190,
0,465,755,199,376,189,
0,524,789,197,372,187,
0,518,776,195,369,185,
0,512,764,201,365,218,
0,505,753,199,361,216,
0,499,742,198,359,214,
0,493,731,195,355,212,
0,487,719,195,352,210,
0,482,710,193,349,208,
0,478,700,192,345,207,
0,472,784,190,380,205,
0,506,771,188,376,203,
0,499,759,187,371,204,
0,495,747,259,368,204,
0,488,736,255,364,201,
0,482,725,254,360,199,
0,476,715,252,358,198,
0,472,704,249,354,196,
0,467,695,247,352,195,
0,462,685,244,348,193,
0,457,780,243,376,192,
0,516,768,241,371,191,
0,510,755,239,368,189,
0,504,743,237,364,188,
0,498,733,235,360,186,
0,492,723,232,357,184,
0,486,711,231,354,183,
0,480,702,229,351,182,
0,476,692,227,348,180,
0,471,683,225,344,179,
0,481,787,224,384,177,
0,494,774,222,380,176,
0,488,761,220,376,204,
0,483,750,219,373,201,
0,476,738,217,369,199,
0,472,728,215,366,198,
0,466,717,213,362,195,
0,461,707,211,359,194,
0,456,697,210,355,192,
0,451,688,208,354,191,
0,510,792,207,377,190,
0,504,780,205,374,188,
0,499,768,204,370,187,
0,493,755,203,367,185,
0,486,744,200,363,184,
0,480,734,199,359,182,
0,476,723,198,356,180,
0,471,712,196,353,179,
0,465,703,195,350,177,
0,460,694,193,390,176,
0,531,787,192,386,175,
0,524,775,191,382,174,
0,518,763,207,379,228,
0,511,751,205,375,226,
0,504,740,203,371,224,
0,499,729,201,368,222,
0,494,719,199,364,220,
0,487,708,198,360,218,
0,483,699,195,358,216,
0,478,730,195,384,215,
0,499,780,193,377,212,
0,492,768,192,375,219,
0,487,755,247,371,240,
0,482,743,243,367,238,
0,476,733,241,364,236,
0,471,723,239,359,233,
0,465,711,237,356,231,
0,460,702,235,353,230,
0,455,692,232,351,227,
0,451,783,231,385,225,
0,499,767,228,380,224,
0,494,755,227,376,228,
0,487,743,225,372,226,
0,483,732,224,369,224,
0,476,721,222,366,222,
0,471,711,220,362,220,
0,465,701,217,359,218,
0,460,691,216,355,216,
0,455,681,215,352,215,
0,467,783,212,384,213,
0,508,771,211,377,211,
0,502,759,212,374,210,
0,496,747,226,371,207,
0,491,736,224,367,206,
0,483,725,222,364,205,
0,479,715,220,359,203,
0,473,704,217,356,201,
0,468,695,216,353,199,
0,463,685,214,351,199,
0,489,791,212,376,196,
0,483,777,211,371,195,
0,478,766,209,368,240,
0,472,753,207,364,238,
0,467,743,206,359,236,
0,460,732,204,356,233,
0,455,721,202,353,231,
0,451,711,200,351,229,
0,447,700,199,347,227,
0,443,691,198,387,225,
0,510,802,196,390,224,
0,503,788,195,384,222,
0,497,776,194,381,221,
0,492,764,193,377,219,
0,486,753,191,374,217,
0,480,742,190,370,216,
0,473,731,188,366,214,
0,469,721,187,364,211,
0,463,711,185,359,210,
0,460,736,184,390,208,
0,509,807,183,385,207,
0,503,794,182,380,205,
0,497,781,184,377,204,
0,491,769,183,374,202,
0,486,758,182,370,200,
0,480,747,179,367,199,
0,474,736,178,363,197,
0,469,724,177,359,195,
0,463,715,176,356,194,
0,460,780,175,399,192,
0,495,771,173,394,191,
0,489,760,172,390,203,
0,483,748,177,385,201,
0,478,736,176,382,199,
0,473,726,174,378,198,
0,467,716,172,375,195,
0,462,705,172,371,194,
0,456,696,170,368,192,
0,452,687,168,364,191,
0,465,785,167,398,190,
0,519,768,167,393,188,
0,512,756,171,388,189,
0,506,744,192,384,188,
0,500,734,190,381,187,
0,495,723,188,377,185,
0,487,712,186,374,184,
0,483,702,184,370,182,
0,478,692,183,367,180,
0,472,684,182,364,179,
0,521,795,180,391,178,
0,519,779,179,387,176,
0,514,767,179,384,226,
0,508,755,177,379,224,
0,502,743,176,376,222,
0,496,732,175,372,220,
0,489,721,173,369,217,
0,484,711,172,365,216,
0,479,701,170,361,214,
0,474,691,169,392,212,
0,529,785,167,393,210,
0,523,770,166,387,208,
0,516,758,171,384,207,
0,510,746,169,380,205,
0,504,736,167,377,204,
0,499,724,167,374,202,
0,492,714,166,369,199,
0,487,704,163,367,199,
0,481,694,163,363,196,
0,476,708,161,389,195,
0,518,773,160,385,193,
0,512,758,159,380,205,
0,506,747,184,376,258,
0,500,735,183,372,255,
0,495,724,200,369,253,
0,489,713,199,366,251,
0,483,704,196,363,248,
0,478,694,195,359,246,
0,472,684,193,355,244,
0,467,766,192,391,242,
0,529,792,190,387,240,
0,522,775,188,383,240,
0,516,763,210,379,239,
0,511,752,207,376,236,
0,504,740,207,371,235,
0,499,729,204,368,232,
0,492,719,203,365,231,
0,487,709,200,361,228,
0,481,699,199,358,227,
0,487,806,198,387,225,
0,536,792,195,383,223,
0,530,775,194,377,222,
0,524,764,193,374,220,
0,518,752,192,370,218,
0,512,741,190,367,216,
0,507,731,189,364,215,
0,499,719,187,359,212,
0,494,710,185,356,211,
0,488,700,184,353,209,
0,528,803,183,382,207,
0,527,790,182,377,207,
0,519,775,184,373,251,
0,515,762,183,369,248,
0,508,751,181,366,246,
0,503,739,179,362,244,
0,497,729,178,359,242,
0,491,719,176,355,240,
0,485,708,175,352,238,
0,480,699,174,380,236,
0,534,798,172,388,233,
0,527,784,171,384,231,
0,520,769,177,380,230,
0,515,758,175,376,228,
0,509,747,174,372,227,
0,504,736,172,369,225,
0,498,724,171,366,224,
0,491,715,169,362,221,
0,486,704,167,359,220,
0,481,714,167,389,217,
0,521,808,166,384,216,
0,515,796,164,381,215,
0,508,780,164,376,212,
0,503,768,163,372,211,
0,497,756,167,369,209,
0,492,745,166,366,207,
0,486,734,164,362,206,
0,480,723,163,359,204,
0,475,713,161,355,203,
0,471,777,160,398,201,
0,539,803,159,392,199,
0,532,791,158,389,199,
0,526,775,216,384,196,
0,519,764,215,380,195,
0,515,752,212,377,194,
0,508,740,211,374,192,
0,503,730,208,370,191,
0,496,719,207,366,189,
0,491,710,205,363,188,
0,487,806,204,415,187,
0,536,792,201,411,185,
0,529,779,199,408,220,
0,524,764,199,402,217,
0,518,752,196,398,216,
0,512,740,207,394,213,
0,506,730,206,391,211,
0,499,719,204,387,209,
0,493,709,201,384,207,
0,487,699,199,380,206,
0,521,787,198,403,204,
0,524,774,196,399,203,
0,519,761,195,396,207,
0,512,748,244,391,206,
0,506,736,243,387,204,
0,500,726,240,384,203,
0,496,715,238,380,201,
0,488,705,236,376,199,
0,483,696,233,372,198,
0,478,686,231,382,195,
0,527,797,230,387,194,
0,520,783,227,384,193,
0,515,771,226,380,201,
0,508,756,224,376,199,
0,503,745,223,371,198,
0,497,734,220,368,195,
0,492,723,219,365,195,
0,485,713,217,361,193,
0,480,704,215,359,191,
0,475,694,214,384,190,
0,517,793,211,380,188,
0,510,781,210,376,195,
0,504,769,209,372,261,
0,499,754,207,368,259,
0,493,743,207,364,255,
0,487,732,205,361,254,
0,483,721,203,358,252,
0,476,711,201,355,249,
0,472,701,199,352,247,
0,467,763,199,389,245,
0,516,797,197,384,243,
0,510,783,195,380,241,
0,504,772,195,377,239,
0,498,757,193,372,237,
0,493,745,192,369,235,
0,487,735,191,366,233,
0,482,724,189,361,231,
0,476,714,188,359,230,
0,471,704,186,355,227,
0,474,813,185,391,225,
0,547,798,184,387,224,
0,540,785,182,384,248,
0,535,770,181,380,246,
0,527,758,179,376,243,
0,522,747,178,371,241,
0,516,736,177,368,240,
0,511,725,176,364,238,
0,504,715,174,361,236,
0,498,704,173,358,233,
0,493,809,172,388,231,
0,498,796,171,384,230,
0,492,783,199,380,276,
0,487,768,227,376,273,
0,482,756,225,372,271,
0,477,745,223,368,269,
0,472,734,221,366,267,
0,467,723,219,362,263,
0,461,713,217,359,262,
0,456,704,216,370,259,
0,519,821,213,389,257,
0,512,807,211,385,255,
0,505,794,209,381,252,
0,500,779,207,377,251,
0,495,768,206,373,248,
0,489,755,204,369,247,
0,483,743,203,366,244,
0,479,733,201,363,243,
0,472,723,199,359,241,
0,467,713,199,396,239,
0,519,815,196,391,236,
0,513,802,195,387,235,
0,507,790,230,384,233,
0,500,774,231,380,231,
0,496,763,231,376,230,
0,489,751,228,372,227,
0,484,740,227,369,226,
0,480,729,224,366,224,
0,473,719,223,361,223,
0,468,766,220,399,221,
0,519,799,219,396,219,
0,512,786,216,391,217,
0,507,774,216,387,216,
0,500,760,215,384,215,
0,495,748,213,380,212,
0,489,737,211,376,211,
0,484,726,209,372,209,
0,479,716,207,369,207,
0,472,705,206,366,206,
0,468,816,204,384,204,
0,510,803,203,380,203,
0,504,790,201,376,214,
0,499,777,199,372,211,
0,492,762,199,369,210,
0,487,751,196,364,208,
0,482,740,195,361,207,
0,477,729,193,358,205,
0,472,719,192,355,204,
0,465,708,191,352,201,
0,488,814,189,396,199,
0,501,799,188,391,199,
0,495,787,187,388,198,
0,489,775,184,384,196,
0,484,760,184,381,195,
0,479,748,183,376,193,
0,473,737,180,372,192,
0,468,727,179,369,191,
0,463,716,178,366,189,
0,457,707,177,366,188,
0,508,807,176,385,187,
0,503,793,174,380,185,
0,496,782,179,377,184,
0,491,769,177,374,183,
0,486,755,176,369,181,
0,480,743,175,366,180,
0,475,732,174,363,179,
0,470,722,172,359,177,
0,465,711,171,355,176,
0,459,702,169,376,175,
0,504,810,167,371,174,
0,498,797,167,368,172,
0,492,785,224,364,213,
0,487,771,222,361,211,
0,481,758,220,356,208,
0,476,747,217,353,207,
0,472,736,216,351,205,
0,465,725,214,348,204,
0,461,715,211,344,201,
0,455,752,210,384,199,
0,520,803,208,380,198,
0,515,790,207,376,220,
0,508,777,207,372,224,
0,503,766,205,369,222,
0,497,751,204,364,220,
0,492,739,202,361,218,
0,486,729,199,358,216,
0,481,719,199,355,215,
0,476,708,198,351,213,
0,470,812,195,388,211,
0,491,808,193,384,209,
0,485,796,192,380,216,
0,480,783,191,376,215,
0,474,771,190,372,212,
0,469,756,188,368,211,
0,463,745,187,364,209,
0,460,734,185,361,207,
0,455,723,184,358,206,
0,450,713,183,355,204,
0,467,819,181,384,202,
0,504,804,179,380,199,
0,497,792,192,376,203,
0,492,780,224,372,199,
0,486,768,231,368,199,
0,481,752,248,364,198,
0,476,742,245,360,195,
0,471,731,243,358,194,
0,465,720,241,354,193,
0,460,711,239,352,192,
0,543,805,236,387,190,
0,536,792,235,384,188,
0,530,779,231,380,187,
0,524,768,231,376,185,
0,518,755,228,372,184,
0,512,742,227,368,183,
0,506,731,225,364,181,
0,500,719,224,361,179,
0,495,710,222,358,179,
0,489,700,220,388,177,
0,518,803,217,386,176,
0,512,790,216,383,174,
0,505,778,215,379,199,
0,499,766,213,376,199,
0,494,754,211,371,196,
0,488,740,209,367,195,
0,483,729,207,364,193,
0,479,719,206,359,192,
0,473,708,205,357,191,
0,468,737,204,376,189,
0,515,799,201,371,187,
0,509,785,199,367,195,
0,504,774,200,364,225,
0,497,761,199,359,224,
0,492,750,198,357,222,
0,487,736,196,353,220,
0,481,726,195,350,217,
0,476,715,193,347,216,
0,472,705,192,344,214,
0,467,799,191,376,212,
0,481,824,188,372,210,
0,476,811,187,368,210,
0,470,797,192,365,208,
0,464,784,191,361,207,
0,460,772,189,359,205,
0,455,759,188,354,204,
0,451,747,186,351,201,
0,446,736,184,348,199,
0,441,726,184,344,199,
0,467,801,182,380,197,
0,505,787,180,376,195,
0,499,775,179,372,224,
0,494,764,184,368,222,
0,487,752,182,365,220,
0,483,740,180,361,218,
0,478,728,179,358,216,
0,472,716,177,354,215,
0,467,707,176,351,212,
0,463,697,175,348,211,
0,516,803,174,372,209,
0,510,790,172,369,207,
0,504,777,203,366,209,
0,498,766,203,361,207,
0,492,753,201,359,206,
0,487,743,199,355,204,
0,481,729,198,351,203,
0,476,719,195,348,201,
0,472,708,195,344,199,
0,466,699,193,384,198,
0,518,803,192,385,196,
0,511,790,189,381,195,
0,505,777,209,377,204,
0,499,765,207,374,202,
0,494,753,205,370,199,
0,488,743,204,367,199,
0,483,729,201,363,198,
0,478,719,199,359,195,
0,472,708,199,355,194,
0,468,731,196,380,193,
0,496,804,195,376,191,
0,491,791,193,371,189,
0,485,779,193,368,191,
0,480,768,192,364,189,
0,474,755,190,361,188,
0,469,743,188,358,186,
0,463,730,187,353,184,
0,460,719,185,351,184,
0,455,710,184,348,182,
0,450,785,183,371,180,
0,502,786,181,368,179,
0,496,774,179,364,198,
0,490,762,187,360,195,
0,484,751,184,358,194,
0,480,739,183,354,192,
0,473,726,182,351,191,
0,469,716,179,347,190,
0,463,705,179,344,188,
0,459,696,177,340,186,
0,455,812,176,382,184,
0,507,798,175,377,184,
0,501,785,173,375,222,
0,496,773,190,370,220,
0,489,761,188,367,217,
0,484,750,213,364,216,
0,480,736,211,359,214,
0,474,726,209,355,212,
0,468,715,207,352,211,
0,463,705,206,350,209,
0,459,800,204,367,207,
0,462,787,203,363,205,
0,455,775,199,359,203,
0,452,763,199,356,201,
0,448,751,197,353,199,
0,443,740,195,350,199,
0,439,727,194,347,197,
0,434,716,192,343,195,
0,430,706,191,339,193,
0,426,696,190,369,192,
0,475,807,188,375,191,
0,500,793,187,371,189,
0,495,781,193,367,189,
0,489,769,191,364,188,
0,483,758,189,359,185,
0,478,746,188,356,184,
0,473,732,187,353,183,
0,467,722,185,349,182,
0,463,711,184,346,180,
0,458,719,182,380,179,
0,519,811,180,376,177,
0,511,798,179,372,176,
0,504,785,211,369,211,
0,499,773,208,365,208,
0,493,761,207,361,207,
0,487,750,205,359,205,
0,482,736,204,355,203,
0,477,726,201,351,201,
0,472,715,199,348,199,
0,467,781,198,369,198,
0,496,796,196,365,196,
0,487,782,195,361,201,
0,483,771,193,358,238,
0,477,759,192,355,236,
0,472,748,190,352,233,
0,467,736,188,348,231,
0,462,723,187,345,230,
0,456,712,185,342,227,
0,452,703,184,339,225,
0,448,792,183,371,224,
0,498,779,182,368,222,
0,491,767,179,364,227,
0,486,755,184,359,224,
0,480,743,182,357,223,
0,475,732,180,353,220,
0,470,722,179,350,219,
0,464,709,177,347,217,
0,460,699,176,344,216,
0,455,689,175,340,214,
0,452,807,173,376,212,
0,512,793,172,371,210,
0,505,781,171,368,216,
0,499,768,169,364,213,
0,494,757,167,359,211,
0,487,745,167,358,209,
0,483,735,166,354,207,
0,478,721,164,350,206,
0,472,711,163,347,204,
0,467,702,163,369,203,
0,515,801,161,376,201,
0,536,788,159,371,199,
0,527,776,193,368,217,
0,521,764,191,364,215,
0,515,752,190,361,212,
0,510,742,188,358,211,
0,504,731,187,355,209,
0,499,718,185,351,207,
0,494,707,184,348,206,
0,487,704,182,382,204,
0,485,796,180,377,203,
0,480,783,179,374,200,
0,473,771,201,370,199,
0,468,759,199,367,198,
0,463,748,201,363,196,
0,459,736,199,359,195,
0,455,726,199,356,193,
0,450,712,196,352,192,
0,446,703,195,349,191,
0,441,764,193,383,189,
0,508,793,192,378,188,
0,500,780,191,375,186,
0,494,769,211,371,196,
0,487,758,209,368,194,
0,483,745,207,364,192,
0,478,735,206,359,191,
0,472,723,204,357,189,
0,467,711,202,352,188,
0,462,701,199,350,187,
0,457,787,199,372,184,
0,495,774,197,369,184,
0,489,761,195,366,198,
0,483,750,215,361,219,
0,477,739,212,359,217,
0,472,728,211,355,216,
0,467,717,208,352,214,
0,462,707,207,348,211,
0,456,695,205,344,209,
0,451,685,203,342,207,
0,448,779,201,376,206,
0,511,765,199,371,205,
0,505,753,199,368,226,
0,498,742,204,364,223,
0,492,731,202,360,221,
0,487,719,199,358,219,
0,481,710,199,354,217,
0,476,700,197,351,216,
0,472,688,195,347,214,
0,466,679,194,360,211,
0,508,782,192,375,210,
0,534,769,191,371,208,
0,527,758,191,368,244,
0,519,745,199,364,241,
0,515,735,197,359,239,
0,508,724,195,357,237,
0,503,713,193,353,235,
0,497,704,192,351,233,
0,492,691,191,347,231,
0,487,683,189,370,229,
0,515,787,188,366,227,
0,508,775,186,362,225,
0,503,763,184,359,236,
0,496,751,183,355,231,
0,491,739,182,352,231,
0,485,728,180,349,228,
0,480,718,179,345,227,
0,475,707,177,343,225,
0,470,696,176,339,223,
0,465,748,175,374,222,
0,504,783,174,369,220,
0,497,771,172,366,217,
0,491,760,183,363,216,
0,484,748,180,359,214,
0,479,737,179,355,212,
0,473,726,177,352,210,
0,468,716,176,349,209,
0,463,705,175,345,207,
0,459,694,173,342,206,
0,455,782,172,379,204,
0,487,768,171,375,203,
0,481,756,169,371,204,
0,475,744,190,368,207,
0,470,734,188,364,205,
0,464,723,186,359,204,
0,460,712,184,356,201,
0,455,703,184,353,199,
0,450,692,182,351,199,
0,446,681,180,347,197,
0,441,752,179,378,195,
0,477,740,177,374,194,
0,472,729,176,371,234,
0,464,718,235,367,231,
0,460,707,231,364,228,
0,455,697,230,359,227,
0,449,688,227,356,224,
0,445,679,225,353,223,
0,440,670,224,350,221,
0,436,659,222,358,219,
0,480,726,220,376,217,
0,508,715,218,371,216,
0,502,704,216,368,233,
0,495,694,215,365,231,
0,489,684,212,361,229,
0,484,674,211,358,227,
0,479,665,209,355,225,
0,473,655,207,352,223,
0,468,647,206,348,221,
0,463,638,204,384,220,
0,519,702,203,381,217,
0,519,691,201,377,216,
0,512,681,207,374,263,
0,504,671,207,369,259,
0,499,663,204,366,255,
0,494,654,203,363,254,
0,487,644,201,359,252,
0,483,636,199,356,249,
0,478,628,198,353,248,
0,472,654,196,383,246,
0,527,687,195,379,243,
0,519,676,193,375,241,
0,515,667,192,371,302,
0,507,657,191,368,299,
0,501,649,189,364,295,
0,496,639,188,360,292,
0,490,632,186,357,289,
0,485,624,184,354,287,
0,480,615,183,351,284,
0,475,695,182,382,283,
0,508,684,180,379,280,
0,502,673,179,375,278,
0,496,664,178,371,275,
0,489,655,176,367,273,
0,483,646,175,364,271,
0,479,637,174,359,268,
0,473,628,172,356,266,
0,468,620,171,353,263,
0,463,611,170,351,262,
0,459,687,169,380,259,
0,508,675,167,376,258,
0,502,665,167,371,255,
0,496,656,184,368,254,
0,488,647,182,364,252,
0,483,639,179,361,249,
0,478,630,178,358,248,
0,472,622,176,354,246,
0,467,614,175,352,243,
0,463,604,174,348,243,
0,476,707,172,380,240,
0,512,696,171,376,239,
0,505,687,169,373,237,
0,500,676,169,369,235,
0,492,668,167,366,233,
0,487,658,166,362,231,
0,482,649,164,359,230,
0,476,639,163,355,227,
0,472,632,162,352,226,
0,467,622,161,349,224,
0,504,700,159,377,223,
0,503,688,159,374,221,
0,497,679,174,370,220,
0,492,670,175,366,218,
0,484,660,172,363,216,
0,480,652,171,359,215,
0,474,643,169,356,213,
0,469,634,167,352,211,
0,463,625,167,350,210,
0,460,648,166,380,209,
0,510,683,164,383,207,
0,504,673,163,379,206,
0,497,664,167,376,206,
0,492,654,167,371,204,
0,485,646,164,368,203,
0,480,637,163,364,201,
0,474,628,162,361,199,
0,469,620,161,358,198,
0,463,612,159,355,197,
0,460,688,159,374,195,
0,522,676,157,368,194,
0,515,667,156,364,193,
0,510,657,223,361,201,
0,504,647,220,358,199,
0,496,639,217,354,198,
0,491,631,216,352,195,
0,486,622,214,348,194,
0,480,614,211,345,193,
0,475,607,209,342,191,
0,471,717,207,377,190,
0,504,705,206,373,188,
0,497,695,204,369,220,
0,492,685,203,366,216,
0,486,675,201,362,215,
0,480,665,199,359,213,
0,473,656,198,355,211,
0,468,647,196,352,209,
0,463,639,195,349,207,
0,459,632,193,346,206,
0,478,715,192,375,204,
0,529,704,191,371,202,
0,523,694,206,368,200,
0,516,684,262,364,199,
0,511,673,259,359,198,
0,504,664,255,356,195,
0,498,655,254,353,194,
0,493,647,252,350,192,
0,487,638,249,347,191,
0,482,630,248,344,190,
0,493,709,246,384,188,
0,487,698,243,380,187,
0,483,688,241,376,235,
0,477,678,239,372,232,
0,472,668,237,369,231,
0,465,659,235,366,228,
0,460,651,233,361,226,
0,455,642,231,359,224,
0,451,633,230,355,222,
0,448,625,227,373,220,
0,519,716,226,377,219,
0,513,705,224,374,217,
0,507,695,223,370,220,
0,501,684,221,367,217,
0,496,675,220,363,216,
0,488,666,217,359,214,
0,483,657,216,356,212,
0,478,647,215,353,210,
0,473,639,212,350,209,
0,467,636,211,377,207,
0,519,708,209,372,205,
0,513,697,207,369,204,
0,507,688,234,366,203,
0,502,678,231,361,201,
0,496,668,230,359,199,
0,488,659,227,355,198,
0,483,651,226,352,195,
0,478,642,224,348,194,
0,473,633,222,345,193,
0,468,696,220,380,191,
0,524,713,219,374,190,
0,517,703,216,371,199,
0,511,693,215,367,197,
0,505,684,213,364,195,
0,499,673,224,359,193,
0,492,664,222,356,192,
0,487,655,220,353,190,
0,483,647,217,350,188,
0,477,639,216,347,188,
0,473,707,214,379,185,
0,529,692,212,374,184,
0,523,683,211,369,218,
0,516,673,209,366,216,
0,510,664,207,363,214,
0,504,655,206,359,211,
0,497,646,204,356,209,
0,492,638,202,353,207,
0,487,629,200,350,206,
0,482,621,199,347,204,
0,535,707,198,390,203,
0,545,693,196,384,201,
0,539,684,223,380,199,
0,532,673,227,376,198,
0,527,664,225,373,196,
0,520,655,224,369,195,
0,513,646,221,366,193,
0,508,638,220,363,192,
0,502,630,217,359,190,
0,497,622,216,379,188,
0,519,715,214,387,187,
0,513,701,212,382,185,
0,508,691,211,378,226,
0,502,681,209,375,224,
0,496,671,207,371,222,
0,491,662,207,367,220,
0,484,653,204,364,217,
0,479,644,203,359,216,
0,474,636,201,357,214,
0,470,633,199,388,212,
0,510,727,198,384,210,
0,504,712,196,380,208,
0,497,703,201,376,218,
0,492,692,199,372,216,
0,487,683,198,369,215,
0,480,673,195,366,212,
0,475,664,194,362,210,
0,470,655,192,359,209,
0,465,647,191,355,207,
0,460,705,190,376,206,
0,505,758,188,371,204,
0,499,743,187,367,209,
0,493,732,188,364,207,
0,487,721,186,359,206,
0,483,711,184,356,204,
0,476,701,184,353,203,
0,471,691,182,351,200,
0,465,681,180,348,199,
0,460,671,179,344,198,
0,456,764,177,385,195,
0,508,751,176,380,194,
0,503,736,175,376,220,
0,496,726,187,372,218,
0,491,715,185,369,216,
0,486,704,184,365,215,
0,479,695,183,361,212,
0,474,685,180,359,210,
0,469,675,179,355,208,
0,463,667,177,352,207,
0,488,760,176,392,205,
0,484,747,175,388,204,
0,479,733,209,384,203,
0,473,722,243,380,201,
0,468,711,240,376,199,
0,463,702,238,372,198,
0,457,691,236,369,196,
0,452,682,233,366,194,
0,448,672,231,363,193,
0,444,664,230,376,192,
0,512,745,227,383,190,
0,505,734,225,379,188,
0,500,719,254,374,204,
0,494,709,252,371,203,
0,488,699,249,367,200,
0,483,689,247,364,199,
0,477,679,244,359,197,
0,472,671,242,356,195,
0,467,662,240,353,193,
0,462,653,238,377,192,
0,494,760,236,374,191,
0,487,745,234,370,189,
0,483,734,231,366,198,
0,477,723,230,361,195,
0,472,712,228,359,193,
0,467,703,227,355,192,
0,460,692,225,352,191,
0,455,683,223,349,188,
0,451,673,221,345,187,
0,447,715,220,378,185,
0,503,752,217,374,184,
0,497,737,216,369,184,
0,492,727,215,366,183,
0,486,716,212,362,182,
0,480,705,211,359,180,
0,475,696,209,355,179,
0,468,686,207,352,177,
0,463,676,206,349,176,
0,459,667,204,345,175,
0,455,761,203,366,174,
0,499,748,201,362,172,
0,494,734,199,359,199,
0,487,723,199,355,197,
0,483,712,196,351,195,
0,478,702,195,348,194,
0,472,692,194,344,192,
0,465,683,192,342,191,
0,460,673,191,339,188,
0,455,664,189,335,188,
0,499,758,188,374,185,
0,519,745,187,369,184,
0,512,732,199,366,201,
0,506,719,243,361,199,
0,500,710,240,359,197,
0,495,700,238,355,195,
0,489,689,236,352,194,
0,483,680,233,348,192,
0,478,671,231,345,191,
0,472,662,230,352,189,
0,509,723,227,377,187,
0,503,711,225,374,185,
0,496,700,255,370,201,
0,491,689,255,366,199,
0,486,679,254,362,198,
0,480,670,252,359,195,
0,475,661,249,355,194,
0,468,652,247,352,192,
0,463,643,244,348,191,
0,459,641,243,380,189,
0,489,744,240,377,188,
0,483,733,239,373,185,
0,479,719,267,369,217,
0,472,708,263,365,216,
0,467,699,262,361,214,
0,463,689,259,358,211,
0,457,679,257,355,210,
0,451,670,254,352,208,
0,448,660,252,348,206,
0,444,694,251,377,204,
0,511,728,248,372,203,
0,504,716,246,369,201,
0,499,704,244,366,199,
0,493,693,242,361,199,
0,487,684,240,358,197,
0,482,674,238,354,195,
0,477,664,236,351,193,
0,471,655,234,348,192,
0,465,647,231,344,191,
0,461,750,231,383,189,
0,505,760,228,379,188,
0,499,748,227,376,223,
0,494,733,225,370,220,
0,487,723,224,367,219,
0,483,711,222,364,216,
0,478,702,220,359,215,
0,472,692,219,356,212,
0,466,683,216,353,211,
0,461,673,215,351,209,
0,482,756,214,382,207,
0,512,743,211,377,206,
0,506,732,211,375,236,
0,500,719,216,369,233,
0,495,708,215,366,231,
0,489,698,213,363,229,
0,483,688,211,359,227,
0,479,679,209,355,225,
0,472,670,207,352,224,
0,467,661,206,352,221,
0,524,755,204,382,219,
0,516,743,203,377,217,
0,511,732,204,374,216,
0,504,719,204,369,214,
0,499,708,203,366,212,
0,494,697,201,363,211,
0,487,688,199,359,209,
0,483,679,198,355,207,
0,476,670,196,352,206,
0,472,661,195,390,204,
0,528,768,193,385,202,
0,521,756,192,382,199,
0,515,745,243,378,199,
0,509,731,240,374,197,
0,504,720,238,369,196,
0,498,710,236,366,194,
0,492,700,233,363,193,
0,487,690,231,359,192,
0,480,680,230,356,190,
0,476,708,227,395,188,
0,531,760,225,390,187,
0,524,748,224,386,217,
0,519,737,222,383,231,
0,512,723,220,378,228,
0,507,713,219,375,226,
0,500,703,216,371,224,
0,496,694,215,368,223,
0,490,684,214,364,220,
0,483,674,211,359,218,
0,479,764,209,386,216,
0,509,760,207,382,215,
0,503,747,207,377,213,
0,497,736,276,374,211,
0,492,722,273,369,209,
0,486,711,271,366,207,
0,480,702,268,363,206,
0,476,692,265,359,204,
0,471,683,263,356,203,
0,463,673,261,353,201,
0,483,760,259,384,199,
0,523,748,256,380,198,
0,515,736,255,376,224,
0,510,726,252,372,222,
0,504,711,251,368,220,
0,499,702,248,364,217,
0,493,691,247,361,216,
0,487,683,244,358,214,
0,483,673,243,355,212,
0,476,664,240,352,211,
0,515,776,238,384,208,
0,508,763,236,380,207,
0,503,752,235,377,205,
0,497,740,232,373,204,
0,492,727,231,369,201,
0,486,716,230,366,199,
0,481,706,227,361,199,
0,476,696,226,359,197,
0,471,687,224,355,195,
0,464,677,223,384,193,
0,509,759,220,387,192,
0,503,747,219,383,191,
0,497,736,217,379,255,
0,491,724,216,376,254,
0,486,711,214,371,252,
0,480,701,212,368,249,
0,475,691,211,364,248,
0,470,681,209,359,245,
0,463,671,207,357,243,
0,459,665,206,376,240,
0,484,721,204,371,239,
0,479,710,203,368,236,
0,473,700,201,364,236,
0,468,690,199,361,233,
0,463,678,199,356,231,
0,458,668,197,353,230,
0,454,659,195,350,227,
0,449,651,194,347,226,
0,444,643,193,344,224,
0,440,724,191,380,222,
0,504,742,190,376,220,
0,498,731,188,371,263,
0,492,719,210,368,260,
0,487,710,208,364,257,
0,481,696,207,359,255,
0,476,687,204,357,253,
0,471,678,203,353,251,
0,465,668,201,351,248,
0,460,659,199,348,247,
0,476,754,198,375,244,
0,519,742,196,371,242,
0,513,730,195,368,240,
0,508,719,230,364,238,
0,502,709,227,359,236,
0,496,696,225,355,235,
0,491,687,224,352,232,
0,485,677,222,350,231,
0,480,668,220,346,229,
0,473,659,217,344,227,
0,504,758,216,388,225,
0,499,745,214,384,224,
0,494,735,225,380,277,
0,487,723,283,376,274,
0,483,712,280,373,271,
0,477,700,277,368,269,
0,472,689,275,366,267,
0,467,679,271,362,263,
0,462,671,270,359,262,
0,455,663,268,376,260,
0,519,746,265,380,257,
0,512,735,263,376,255,
0,506,723,260,372,292,
0,500,713,258,369,289,
0,495,700,255,365,287,
0,489,691,254,361,284,
0,483,681,252,358,281,
0,479,671,250,355,280,
0,473,663,248,352,277,
0,467,677,247,383,275,
0,508,760,243,378,271,
0,503,748,241,375,270,
0,497,737,291,371,271,
0,492,726,287,367,269,
0,486,713,285,364,267,
0,480,703,283,359,264,
0,476,693,280,356,263,
0,470,684,278,353,260,
0,465,674,275,350,258,
0,460,744,273,370,255,
0,499,761,270,366,254,
0,492,750,268,363,268,
0,487,739,303,359,280,
0,482,728,300,355,278,
0,476,715,296,352,275,
0,472,704,294,348,272,
0,466,695,291,345,270,
0,461,684,289,342,268,
0,455,675,287,339,265,
0,452,783,284,355,263,
0,504,769,281,351,260,
0,499,757,279,348,259,
0,493,745,336,344,256,
0,487,735,333,342,255,
0,482,721,329,338,252,
0,476,711,327,335,250,
0,472,700,323,332,248,
0,467,691,320,329,247,
0,462,681,318,327,245,
0,515,795,315,380,243,
0,518,781,312,376,240,
0,512,769,310,372,239,
0,506,757,307,369,237,
0,500,745,304,366,235,
0,495,732,302,362,233,
0,489,721,299,358,231,
0,484,711,296,355,230,
0,479,702,294,352,228,
0,473,691,291,374,227,
0,508,806,289,382,225,
0,502,792,287,377,223,
0,496,780,284,374,240,
0,491,768,283,371,238,
0,486,756,280,367,236,
0,480,742,278,364,234,
0,475,732,275,359,231,
0,470,721,273,355,230,
0,464,711,271,352,228,
0,460,712,270,378,227,
0,508,807,267,374,224,
0,502,795,265,370,223,
0,496,783,263,367,246,
0,489,770,261,363,243,
0,484,759,259,359,241,
0,480,744,258,356,240,
0,475,734,255,352,237,
0,469,723,254,349,235,
0,463,713,252,345,233,
0,460,778,251,375,231,
0,493,792,248,371,230,
0,487,779,246,367,227,
0,482,768,254,364,225,
0,477,755,252,359,224,
0,472,743,249,356,222,
0,466,731,248,353,220,
0,462,719,246,350,219,
0,455,710,243,347,216,
0,451,700,241,344,216,
0,448,826,240,391,214,
0,516,811,238,386,212,
0,510,798,236,383,211,
0,504,785,235,379,210,
0,498,772,233,375,208,
0,492,761,231,371,207,
0,487,747,230,367,206,
0,481,736,228,364,204,
0,476,726,227,359,203,
0,472,716,225,357,201,
0,467,803,224,384,199,
0,498,790,222,379,199,
0,492,777,220,376,224,
0,487,766,219,371,223,
0,481,754,217,368,221,
0,476,743,216,364,219,
0,471,729,214,360,217,
0,465,719,212,357,216,
0,461,709,211,354,214,
0,455,699,209,363,211,
0,476,789,208,376,209,
0,504,775,206,372,208,
0,498,764,207,369,207,
0,492,752,206,365,205,
0,487,742,204,361,204,
0,481,731,204,359,201,
0,476,718,201,354,199,
0,472,707,199,352,199,
0,466,697,199,348,197,
0,461,690,198,387,196,
0,494,803,196,382,194,
0,486,790,195,378,192,
0,481,778,207,375,222,
0,475,765,205,371,220,
0,470,754,204,368,218,
0,465,743,201,364,216,
0,460,729,199,359,214,
0,455,719,199,356,212,
0,450,708,196,353,211,
0,446,756,195,374,209,
0,486,785,193,370,207,
0,479,772,192,367,247,
0,473,760,255,363,260,
0,468,749,254,359,258,
0,463,738,252,356,255,
0,457,728,249,353,254,
0,453,714,247,348,252,
0,448,704,244,345,249,
0,444,695,243,343,248,
0,440,779,241,396,245,
0,513,766,239,391,243,
0,505,753,236,387,240,
0,499,743,280,384,239,
0,494,731,276,380,236,
0,487,720,274,376,235,
0,483,710,271,373,232,
0,478,697,269,368,231,
0,472,688,267,365,230,
0,467,679,264,361,227,
0,463,777,263,382,225,
0,497,764,260,377,224,
0,491,752,258,374,231,
0,485,740,259,371,230,
0,480,729,255,367,228,
0,475,719,254,364,226,
0,470,709,252,359,224,
0,463,696,250,356,223,
0,459,687,248,353,220,
0,455,678,246,359,220,
0,476,788,244,384,217,
0,502,775,243,380,216,
0,494,764,240,376,271,
0,488,752,238,372,268,
0,483,740,255,368,265,
0,478,729,254,366,263,
0,472,719,252,361,260,
0,467,706,249,358,259,
0,462,696,248,355,255,
0,457,688,246,378,254,
0,508,792,243,374,252,
0,500,779,241,370,250,
0,495,767,239,366,263,
0,489,755,236,363,260,
0,483,743,235,359,259,
0,479,732,233,356,255,
0,473,722,231,353,254,
0,468,710,230,349,252,
0,463,699,227,345,249,
0,459,740,226,377,248,
0,503,785,224,372,246,
0,495,774,223,369,243,
0,489,761,222,366,253,
0,483,750,220,361,251,
0,478,739,219,359,248,
0,473,728,216,355,247,
0,467,718,216,352,244,
0,463,704,214,348,242,
0,457,696,211,345,240,
0,454,765,211,392,239,
0,517,752,209,388,236,
0,509,739,207,385,248,
0,504,729,206,381,263,
0,497,719,204,377,260,
0,492,707,203,374,258,
0,487,698,201,370,255,
0,481,688,199,367,254,
0,476,676,199,363,251,
0,471,668,197,359,249,
0,466,778,195,385,248,
0,519,764,194,382,245,
0,512,752,192,377,246,
0,506,742,192,374,243,
0,500,730,190,371,241,
0,495,719,189,367,239,
0,489,710,188,364,237,
0,483,700,185,359,235,
0,479,688,184,356,233,
0,473,678,184,355,231,
0,481,801,183,375,230,
0,518,787,181,371,228,
0,510,775,180,368,284,
0,504,763,184,364,280,
0,499,752,182,359,279,
0,493,740,180,358,275,
0,487,729,179,353,273,
0,482,717,177,351,271,
0,477,707,176,347,268,
0,472,697,176,375,267,
0,521,801,174,373,263,
0,515,787,173,369,262,
0,507,775,188,366,260,
0,502,763,198,362,257,
0,496,752,196,359,255,
0,490,741,195,355,253,
0,484,730,193,352,251,
0,480,718,192,349,249,
0,475,707,190,345,248,
0,470,728,189,371,246,
0,472,777,187,367,243,
0,465,764,185,363,241,
0,460,753,215,359,245,
0,455,742,211,355,243,
0,451,731,209,353,240,
0,446,719,207,350,239,
0,441,710,206,347,236,
0,437,697,204,344,235,
0,433,688,203,339,233,
0,430,783,201,372,231,
0,483,785,199,368,230,
0,477,772,198,365,238,
0,470,760,196,361,253,
0,464,748,195,358,250,
0,460,738,193,355,248,
0,455,728,192,352,246,
0,450,717,190,348,243,
0,445,704,188,344,241,
0,440,695,187,341,240,
0,436,819,185,376,238,
0,499,803,184,371,236,
0,494,792,183,368,233,
0,487,779,191,364,231,
0,481,768,189,360,230,
0,476,755,188,357,227,
0,472,743,185,354,226,
0,466,733,184,351,224,
0,461,720,183,348,223,
0,455,711,182,344,222,
0,460,807,180,380,220,
0,532,792,179,376,217,
0,526,780,177,372,264,
0,519,768,176,368,262,
0,512,756,175,365,259,
0,507,745,174,361,255,
0,500,734,172,358,254,
0,496,723,171,355,252,
0,490,711,170,352,249,
0,484,701,169,379,248,
0,521,780,167,376,246,
0,524,768,167,372,243,
0,518,755,166,368,241,
0,511,743,240,365,240,
0,504,733,236,361,238,
0,499,722,235,358,236,
0,493,711,231,355,233,
0,487,702,231,352,231,
0,483,690,228,348,230,
0,478,707,227,385,228,
0,510,766,225,381,227,
0,504,754,223,377,225,
0,498,743,231,374,231,
0,491,732,228,370,231,
0,486,721,227,366,227,
0,480,711,225,363,226,
0,475,700,223,359,224,
0,470,691,221,356,223,
0,465,679,220,352,221,
0,460,770,217,380,219,
0,509,774,216,376,217,
0,503,761,215,371,216,
0,497,750,212,368,234,
0,490,739,210,364,231,
0,484,728,208,361,230,
0,480,717,207,358,227,
0,474,707,206,355,226,
0,469,697,204,352,224,
0,463,685,203,348,222,
0,460,787,201,376,220,
0,515,774,199,371,219,
0,509,761,198,368,216,
0,504,750,196,364,216,
0,496,739,195,360,214,
0,491,728,193,357,211,
0,486,718,192,353,209,
0,480,707,191,351,208,
0,475,697,189,348,207,
0,470,686,188,344,206,
0,465,799,186,384,204,
0,513,785,184,380,202,
0,507,773,184,376,201,
0,502,761,182,372,199,
0,494,750,180,369,198,
0,488,739,179,366,196,
0,483,728,177,363,195,
0,478,718,176,359,193,
0,473,707,175,355,192,
0,468,696,174,381,192,
0,479,777,173,378,190,
0,478,764,172,374,188,
0,472,752,171,371,187,
0,467,741,176,367,185,
0,460,730,174,364,184,
0,455,719,172,359,184,
0,451,710,171,356,182,
0,447,700,169,353,180,
0,442,689,167,350,179,
0,438,696,167,384,178,
0,513,787,166,380,177,
0,507,774,164,376,176,
0,501,763,184,372,191,
0,495,751,184,369,189,
0,488,739,181,365,187,
0,483,728,179,361,185,
0,478,718,178,359,184,
0,472,707,176,355,183,
0,467,698,175,352,181,
0,463,770,174,384,180,
0,510,780,172,380,178,
0,504,768,171,376,177,
0,497,755,174,372,191,
0,492,743,218,368,189,
0,485,733,216,365,188,
0,480,722,214,361,185,
0,475,711,211,359,184,
0,470,702,210,355,183,
0,464,692,208,352,182,
0,460,817,207,383,179,
0,543,802,205,379,178,
0,537,790,203,375,216,
0,531,776,216,371,239,
0,524,765,214,368,237,
0,518,753,211,364,234,
0,511,743,209,359,231,
0,505,732,207,358,231,
0,500,721,206,353,228,
0,495,711,204,351,227,
0,489,775,203,361,224,
0,487,763,201,358,223,
0,483,751,199,355,226,
0,477,739,199,352,224,
0,472,728,199,348,222,
0,465,718,196,344,220,
0,461,707,195,342,217,
0,455,698,193,339,216,
0,451,688,192,335,215,
0,448,679,190,333,213,
0,484,787,189,366,211,
0,497,775,188,363,209,
0,492,763,186,359,238,
0,486,751,184,355,236,
0,480,740,183,352,233,
0,473,729,181,349,231,
0,468,719,179,346,229,
0,463,708,178,343,227,
0,459,699,177,339,225,
0,454,689,176,355,223,
0,516,771,175,377,221,
0,509,759,173,374,220,
0,504,747,177,370,221,
0,497,736,176,366,220,
0,491,725,175,363,217,
0,485,715,173,359,216,
0,480,704,172,356,214,
0,475,695,170,353,211,
0,470,685,169,350,210,
0,464,676,167,382,208,
0,505,768,167,376,207,
0,499,755,166,372,205,
0,494,743,190,369,207,
0,487,732,188,366,205,
0,481,721,187,362,204,
0,476,711,184,359,201,
0,471,700,183,355,199,
0,465,691,182,352,199,
0,460,681,180,349,196,
0,455,732,179,383,195,
0,502,772,177,377,194,
0,496,760,176,374,211,
0,491,748,177,369,216,
0,484,737,176,366,214,
0,478,726,175,363,211,
0,472,716,172,359,209,
0,467,705,172,355,207,
0,463,696,170,352,206,
0,458,686,169,350,204,
0,454,799,167,387,203,
0,511,782,166,382,201,
0,505,770,165,379,199,
0,499,758,164,375,198,
0,494,746,163,371,196,
0,487,736,161,368,195,
0,481,724,160,364,193,
0,476,714,159,361,192,
0,472,704,158,358,190,
0,467,695,157,355,188,
0,492,788,156,388,187,
0,511,775,155,384,185,
0,505,764,169,380,184,
0,499,751,192,376,184,
0,494,739,191,371,182,
0,487,729,188,368,180,
0,481,719,187,365,179,
0,476,708,185,361,177,
0,472,699,184,358,176,
0,466,689,182,359,175,
0,513,817,180,384,174,
0,507,803,179,379,172,
0,501,791,185,376,198,
0,495,777,184,371,195,
0,489,766,183,368,194,
0,483,755,181,364,192,
0,478,743,179,361,190,
0,472,732,177,358,189,
0,467,722,176,355,187,
0,462,711,175,380,185,
0,521,781,174,376,184,
0,514,769,172,371,183,
0,508,757,203,368,182,
0,503,745,199,364,179,
0,497,735,199,360,179,
0,489,723,196,357,177,
0,484,713,195,354,176,
0,479,704,193,351,174,
0,473,694,192,348,173,
0,470,723,190,359,172,
0,487,766,188,356,171,
0,482,753,187,352,197,
0,476,742,185,348,223,
0,472,731,184,345,221,
0,466,719,183,343,219,
0,460,710,180,339,217,
0,455,700,179,336,215,
0,451,690,177,334,213,
0,446,680,176,331,211,
0,442,792,175,364,209,
0,505,799,174,359,207,
0,499,785,172,355,206,
0,494,774,211,352,204,
0,487,761,208,348,203,
0,483,750,207,345,201,
0,476,739,204,342,199,
0,471,728,203,339,198,
0,465,718,201,336,196,
0,461,708,199,334,195,
0,476,798,198,377,193,
0,512,780,196,372,192,
0,507,768,195,368,220,
0,500,756,204,364,217,
0,495,745,203,361,216,
0,489,734,201,358,214,
0,483,723,199,355,211,
0,478,713,197,352,209,
0,472,704,195,348,207,
0,467,694,194,347,206,
0,499,802,192,384,204,
0,494,785,191,380,203,
0,488,774,219,376,259,
0,483,761,216,371,255,
0,478,750,215,368,254,
0,472,739,213,364,252,
0,465,728,211,361,249,
0,460,718,209,358,247,
0,455,707,207,355,244,
0,451,697,206,379,242,
0,501,789,204,376,240,
0,495,773,202,371,239,
0,489,761,268,368,238,
0,483,750,263,364,236,
0,478,738,262,359,233,
0,472,728,259,357,231,
0,466,717,255,354,230,
0,461,707,254,351,227,
0,456,697,252,348,226,
0,452,728,250,377,224,
0,504,782,248,373,223,
0,498,767,246,368,221,
0,492,755,243,365,220,
0,487,743,241,361,218,
0,481,732,240,358,216,
0,476,721,238,355,215,
0,470,711,236,352,213,
0,464,701,234,348,211,
0,460,691,231,345,209,
0,455,781,231,391,207,
0,505,782,228,387,206,
0,499,766,227,383,207,
0,494,755,225,379,206,
0,487,743,224,376,204,
0,483,732,222,371,203,
0,477,721,220,368,201,
0,471,711,217,364,199,
0,465,701,216,361,198,
0,460,691,215,359,196,
0,474,802,213,381,195,
0,516,787,211,377,193,
0,510,772,209,372,200,
0,504,760,207,369,199,
0,498,750,207,366,197,
0,492,738,205,362,195,
0,487,728,204,359,194,
0,480,717,201,355,192,
0,476,707,199,352,191,
0,471,697,199,350,190,
0,512,790,198,366,188,
0,511,777,196,362,187,
0,504,761,198,358,185,
0,499,750,196,355,184,
0,493,739,195,352,183,
0,487,728,193,348,181,
0,483,718,192,344,179,
0,476,707,191,342,178,
0,471,697,189,339,177,
0,466,688,188,387,176,
0,510,780,186,398,174,
0,504,767,185,394,173,
0,497,752,184,389,174,
0,492,740,182,385,172,
0,486,729,181,382,171,
0,480,719,179,378,169,
0,476,708,179,375,167,
0,469,699,177,371,167,
0,463,689,176,368,166,
