=~=~=~=~=~=~=~=~=~=~=~= PuTTY log 2021.04.22 12:50:52 =~=~=~=~=~=~=~=~=~=~=~=
68,
0,569,598,179,225,476,
0,563,590,530,631,173,233,461,,541,195,192,465,
0,536,535,193,191,460,
0,529,582,192,219,455,
0,598,600,555,556,199,195,476,
0,548,547,196,193,471,
0,542,541,195,192,465,
0,536,535,193,191,460,
0,529,582,192,219,455,
0,598,603,190,216,451,
0,588,594,188,214,447,
0,580,587,188,212,440,
0,573,579,186,211,456,
0,566,572,196,209,479,
0,560,565,19bbbj
0,552,556,192,205,468,
0,546,550,191,204,463,StartUp!
121,526,561,172,228,448,
0,520,556,171,227,444,
0,516,551,169,226,441,
0,512,547,168,224,438,
0,508,580,167,227,434,
0,538,658,167,226,431,
0,544,651,166,224,428,
0,540,643,164,224,423,
0,535,637,163,222,422,
0,529,631,163,220,418,
0,525,622,161,219,446,
0,519,614,162,216,441,
0,512,606,160,215,436,
0,505,598,159,214,431,
0,500,591,158,211,426,
0,495,583,156,211,422,
0,545,632,156,233,417,
0,566,621,154,231,413,
0,560,613,153,229,409,
0,551,604,152,227,406,
0,545,596,177,225,435,
0,539,589,176,224,430,
0,531,582,174,222,425,
0,525,574,172,220,420,
0,519,568,171,218,415,
0,514,561,169,221,412,
0,528,614,167,219,408,
0,521,604,167,217,403,
0,515,595,166,216,399,
0,510,588,163,214,396,
0,504,583,163,212,449,
0,501,575,163,211,444,
0,495,568,161,210,438,
0,489,561,159,207,433,
0,484,555,159,207,429,
0,480,599,158,237,424,
0,600,636,156,235,420,
0,591,624,155,231,415,
0,583,616,155,230,412,
0,577,608,153,228,438,
0,569,600,153,226,463,
0,563,592,152,224,458,
0,555,584,151,222,451,
0,548,577,150,220,447,
0,542,571,148,219,442,
0,536,699,147,259,438,
0,605,694,146,257,433,
0,596,681,145,254,428,
0,590,671,158,252,423,
0,582,662,156,250,479,
0,575,653,188,248,472,
0,568,644,186,246,467,
0,560,636,184,243,460,
0,553,627,183,241,455,
0,547,620,181,240,451,
0,542,686,179,255,446,
1,595,675,178,253,441,
1,587,664,177,251,436,
1,580,654,176,248,432,
1,573,646,201,246,468,
1,566,636,199,243,462,
1,560,628,198,241,457,
1,551,620,195,240,451,
1,545,612,193,238,447,
1,539,605,192,254,441,
2,589,708,190,278,438,
2,592,697,189,275,432,
2,584,685,187,272,428,
2,577,675,185,270,423,
2,571,667,201,268,497,
3,563,657,199,265,492,
2,557,648,198,263,486,
3,548,639,195,260,479,
2,542,632,194,259,473,
3,536,624,192,275,469,
3,627,702,191,273,463,
3,617,691,189,271,459,
3,609,679,188,268,455,
3,601,670,186,265,449,
3,594,660,191,263,513,
3,587,652,188,261,507,
3,578,643,187,259,501,
3,571,634,185,255,494,
3,564,626,184,255,489,
3,559,659,183,273,483,
3,591,665,180,270,479,
3,583,655,179,268,473,
3,575,644,178,264,468,
3,568,636,177,263,483,
2,562,627,186,260,515,
3,556,620,184,258,508,
3,547,611,184,255,503,
2,542,604,181,254,496,
2,536,596,179,252,491,
3,529,639,179,280,486,
2,600,630,176,278,480,
3,592,620,176,275,476,
3,585,611,174,272,470,
2,578,603,173,271,519,
2,572,595,201,268,513,
3,565,588,199,265,507,
3,556,580,198,263,502,
2,550,574,195,262,495,
2,543,568,194,259,489,
3,551,654,192,286,483,
3,627,643,191,283,479,
3,617,635,189,280,473,
3,610,624,188,278,468,
3,603,615,204,275,523,
3,595,608,201,273,516,
3,588,600,199,271,510,
3,579,591,198,268,504,
3,572,584,195,266,497,
3,566,577,195,270,492,
3,625,632,193,287,487,
3,636,622,192,284,481,
3,627,614,190,282,476,
3,620,604,188,279,472,
3,611,595,189,276,467,
3,604,588,188,274,462,
3,596,581,185,271,457,
3,588,574,184,270,452,
3,581,567,182,268,447,
3,574,570,181,269,443,
4,613,651,179,268,438,
3,604,641,178,265,434,
4,597,631,176,263,430,
3,590,622,175,260,425,
3,583,614,199,259,476,
3,575,606,198,256,472,
3,568,598,196,255,466,
3,560,590,195,252,461,
3,553,583,192,251,455,
3,548,628,192,271,450,
3,606,652,190,270,445,
3,598,643,188,267,440,
3,590,632,187,263,436,
3,583,623,185,262,464,
3,575,615,195,259,493,
3,569,607,193,257,487,
3,562,600,192,255,481,
3,554,591,190,253,476,
3,547,583,188,252,471,
3,542,668,187,255,465,
3,600,658,184,254,460,
3,591,648,184,252,455,
3,583,638,185,249,451,
3,577,630,184,247,462,
2,570,620,209,244,455,
3,563,612,207,243,451,
3,556,604,206,241,447,
3,548,597,204,240,441,
2,542,590,202,238,436,
3,543,703,200,268,432,
2,589,691,199,265,428,
2,582,681,198,263,423,
2,574,670,201,260,419,
2,568,660,207,257,463,
2,560,652,205,255,458,
2,553,643,203,254,453,
1,547,634,201,252,448,
2,540,626,199,249,444,
2,533,618,198,250,438,
1,601,735,195,267,433,
1,620,723,194,263,428,
1,611,711,192,262,423,
1,604,699,192,260,420,
1,596,689,202,257,472,
1,588,679,199,255,467,
1,582,671,199,253,462,
1,575,662,196,251,456,
1,567,653,195,248,451,
1,560,644,193,268,446,
1,579,713,192,268,441,
1,572,703,190,264,436,
1,564,693,188,263,432,
1,558,680,187,260,428,
1,551,671,187,257,427,
1,544,662,185,255,423,
1,539,653,184,254,418,
1,532,644,183,251,415,
0,526,636,180,249,411,
1,519,678,179,262,406,
1,607,714,178,259,401,
1,599,704,176,255,398,
1,591,694,175,255,395,
1,583,681,174,252,425,
0,576,671,172,249,461,
0,569,663,171,248,455,
0,563,654,169,246,451,
1,556,646,168,243,446,
0,548,637,167,241,441,
0,542,675,166,252,435,
0,575,665,164,250,431,
0,568,655,163,248,427,
0,561,647,162,246,423,
0,555,636,161,243,468,
0,547,627,159,241,462,
0,541,620,159,240,456,
0,536,612,158,238,451,
0,529,604,156,236,448,
0,521,597,155,234,443,
0,518,678,153,253,436,
0,583,667,152,251,432,
0,575,657,152,248,428,
0,569,648,151,247,423,
0,562,638,161,243,457,
0,556,629,159,241,451,
0,548,621,159,240,447,
0,542,613,158,238,441,
0,536,605,156,236,437,
0,528,598,155,248,433,
0,557,688,153,263,427,
0,572,676,152,260,423,
0,564,667,151,257,419,
0,558,658,150,255,415,
0,551,647,182,253,455,
0,544,638,179,251,449,
0,538,630,178,248,444,
0,532,622,177,247,440,
0,526,614,175,244,435,
0,519,606,174,254,431,
0,560,674,172,252,425,
0,551,664,171,250,420,
0,545,655,169,248,416,
0,539,646,167,246,412,
0,532,635,177,243,463,
0,526,627,176,241,457,
0,519,619,174,239,452,
0,513,610,172,237,448,
0,508,603,171,235,443,
0,502,627,169,258,438,
0,600,622,167,255,432,
0,592,614,167,253,428,
0,585,606,166,251,423,
0,577,598,164,248,422,
0,571,588,207,246,440,
0,564,582,205,243,435,
0,557,575,203,241,430,
0,551,568,201,240,425,
0,543,561,199,238,421,
0,536,633,198,248,415,
0,575,624,195,246,412,
0,568,615,194,244,408,
0,561,607,192,242,404,
0,555,599,191,240,463,
0,548,589,190,238,457,
0,542,582,188,236,451,
0,536,575,187,233,448,
0,529,568,185,231,442,
0,524,560,184,230,438,
0,516,649,182,231,432,
0,566,639,180,231,427,
0,560,632,179,228,423,
0,552,623,177,227,419,
0,545,615,188,225,465,
0,539,604,185,223,460,
0,533,596,184,222,454,
0,527,589,183,220,449,
0,520,582,181,219,444,
0,515,575,179,219,440,
0,543,664,177,235,434,
0,561,654,176,232,430,
0,553,645,179,231,425,
0,547,636,179,228,421,
0,541,627,179,227,452,
0,534,617,177,224,448,
0,527,609,176,223,442,
0,522,601,175,221,438,
0,516,594,173,219,433,
0,511,587,172,240,428,
0,585,663,170,238,423,
0,576,653,168,236,419,
0,569,644,167,233,415,
0,563,636,166,231,411,
0,556,627,166,230,467,
0,550,616,163,227,462,
0,543,608,163,225,457,
0,536,600,161,224,452,
0,531,593,160,222,448,
0,524,635,159,252,443,
0,569,655,158,249,436,
0,562,646,156,247,432,
0,556,637,155,244,428,
0,548,628,154,243,442,
0,542,620,166,241,472,
0,536,610,164,239,466,
0,529,603,163,236,461,
0,524,595,161,235,455,
0,518,588,159,232,451,
0,511,659,159,243,447,
0,568,649,157,241,440,
0,561,639,156,239,436,
0,555,632,155,236,432,
0,547,623,153,235,428,
0,541,615,169,232,423,
0,535,604,167,231,419,
0,528,597,167,228,415,
0,523,590,166,227,411,
0,516,582,164,225,408,
0,510,661,163,231,403,
0,566,651,161,229,399,
0,559,642,159,227,395,
0,551,633,159,225,391,
0,545,624,167,224,432,
0,539,615,168,222,427,
0,532,606,167,220,422,
0,526,599,166,217,417,
0,519,591,164,216,414,
0,515,583,163,216,409,
0,548,657,161,220,405,
0,568,647,159,217,399,
0,560,639,159,216,396,
0,553,630,158,214,391,
0,547,622,176,212,444,
0,540,613,173,211,439,
0,534,603,172,209,433,
0,527,595,171,207,429,
0,521,588,169,206,424,
0,515,585,167,243,420,
0,570,671,166,243,415,
0,563,663,164,241,411,
0,556,654,163,240,407,
0,548,644,162,238,403,
0,542,636,167,236,454,
0,536,625,166,233,449,
0,529,617,164,231,444,
0,523,609,163,229,440,
0,518,601,162,227,435,
0,512,639,161,242,430,
0,565,684,159,240,425,
0,558,675,158,238,420,
0,551,665,156,236,415,
0,543,655,155,233,412,
0,537,647,169,231,409,
0,531,636,167,230,406,
0,526,628,167,227,401,
0,519,620,165,225,398,
0,513,611,164,224,393,
0,508,704,163,225,391,
0,551,692,161,224,387,
0,544,683,159,222,383,
0,537,672,159,220,379,
0,531,664,157,218,435,
0,525,655,158,216,430,
0,519,643,157,215,425,
0,513,636,156,213,420,
0,508,627,154,211,415,
0,502,619,153,209,412,
0,497,716,152,237,408,
0,556,704,151,235,403,
0,548,694,150,231,399,
0,542,684,152,231,395,
0,536,675,151,228,451,
0,529,665,150,227,446,
0,523,654,148,225,440,
0,517,646,147,223,435,
0,511,637,145,221,431,
0,505,629,145,224,427,
0,500,668,143,246,422,
0,568,658,143,243,418,
0,560,648,176,241,413,
0,553,639,211,240,408,
0,547,632,209,238,472,
0,540,623,207,236,467,
0,534,614,206,233,461,
0,527,606,204,231,455,
0,521,598,201,229,451,
0,515,591,199,227,447,
0,542,647,199,226,442,
0,561,638,196,224,438,
0,553,630,195,222,432,
0,547,621,193,221,428,
0,541,613,195,219,478,
0,534,605,193,217,472,
0,527,595,192,216,467,
0,522,588,190,214,462,
0,516,580,188,211,456,
0,510,617,187,232,451,
0,575,639,185,230,448,
0,566,631,184,228,442,
0,559,622,182,226,436,
0,551,614,180,224,460,
0,545,606,187,223,478,
0,539,598,185,220,472,
0,532,589,184,219,467,
0,527,582,183,216,462,
0,520,574,180,215,457,
0,515,652,179,231,452,
0,575,641,178,228,448,
0,568,632,176,227,443,
0,560,624,175,225,437,
0,553,615,174,223,483,
0,547,608,175,221,477,
0,540,600,174,220,472,
0,534,590,172,217,467,
0,527,583,171,216,462,
0,521,575,169,214,456,
0,516,665,167,233,451,
0,578,655,167,231,447,
0,568,646,166,228,443,
0,562,637,164,227,436,
0,555,628,167,225,497,
0,548,620,167,223,491,
0,542,611,164,221,485,
0,536,601,163,219,480,
0,529,595,162,217,475,
0,524,588,161,223,470,
0,518,637,159,242,464,
0,568,627,159,240,460,
0,560,619,157,238,455,
0,552,611,156,236,449,
0,545,603,172,233,444,
0,539,595,170,231,440,
0,533,588,168,230,435,
0,527,578,167,227,431,
0,521,572,166,225,427,
0,515,564,164,235,423,
0,556,655,163,236,419,
0,579,645,161,233,415,
0,571,636,159,231,410,
0,563,627,159,230,406,
0,557,620,184,227,467,
0,550,611,182,225,462,
0,543,604,179,224,455,
0,537,593,178,222,451,
0,531,586,177,220,447,
0,525,630,176,232,442,
0,598,670,174,231,437,
0,589,660,172,228,433,
0,579,652,171,227,427,
0,572,642,169,224,435,
0,566,633,188,223,460,
0,559,625,185,220,454,
0,551,617,184,219,449,
0,545,608,183,216,444,
0,540,600,180,215,440,
0,534,708,179,241,435,
0,580,696,177,239,430,
0,572,686,176,237,425,
0,563,675,175,235,420,
0,556,667,173,233,473,
0,550,657,188,231,467,
0,543,648,185,229,462,
0,537,639,184,227,457,
0,531,630,183,225,452,
0,525,622,181,223,448,
0,519,687,179,248,443,
0,572,675,178,247,438,
0,565,667,176,244,433,
0,556,657,175,242,428,
0,550,648,200,240,465,
0,543,639,198,238,460,
0,536,632,196,236,454,
0,531,623,195,234,449,
0,524,612,193,231,444,
0,519,605,192,231,440,
0,513,646,190,238,435,
0,565,636,188,236,431,
0,558,627,187,233,426,
0,550,619,184,231,422,
0,543,611,184,230,467,
0,536,603,182,228,462,
0,530,595,180,226,456,
0,524,588,179,224,451,
0,518,579,177,223,447,
0,512,572,176,250,442,
0,550,617,175,249,438,
0,585,609,173,248,433,
0,577,601,172,245,429,
0,568,593,170,243,423,
0,562,585,184,241,456,
0,555,578,182,239,451,
0,548,571,180,237,447,
0,542,564,179,235,441,
0,536,556,177,232,438,
0,530,591,176,237,432,
0,591,616,175,235,428,
0,583,608,173,232,423,
0,574,600,172,231,419,
0,567,591,170,229,419,
0,560,583,199,227,432,
0,553,577,198,225,427,
0,547,569,196,224,423,
0,540,563,195,222,418,
0,534,555,193,220,414,
0,527,633,192,239,410,
0,592,624,190,236,406,
0,584,615,188,234,402,
0,575,608,187,231,399,
0,568,599,184,231,463,
0,561,591,184,228,456,
0,555,583,183,227,451,
0,548,576,181,225,447,
0,542,569,179,223,442,
0,536,560,178,220,438,
0,530,655,177,222,433,
0,583,644,175,220,428,
0,575,636,174,219,423,
0,567,627,172,217,419,
0,560,618,172,216,462,
0,553,610,170,214,455,
0,547,603,169,211,451,
0,540,595,167,211,446,
0,534,587,166,209,441,
0,527,578,165,211,437,
0,523,576,164,227,432,
0,600,569,163,224,428,
0,591,562,161,223,423,
0,583,556,159,221,419,
0,575,550,188,219,469,
0,568,543,187,217,463,
0,561,536,185,216,459,
0,555,531,184,214,454,
0,548,525,182,211,448,
0,542,518,180,233,444,
0,560,579,179,233,440,
0,580,572,177,231,435,
0,573,564,176,229,431,
0,563,557,174,227,427,
0,558,550,209,225,459,
0,551,543,207,224,453,
0,543,536,205,222,448,
0,537,530,204,220,444,
0,531,523,201,218,439,
0,526,573,199,224,435,
0,599,632,198,222,430,
0,590,623,196,220,425,
0,582,614,195,218,421,
0,573,606,193,216,417,
0,566,598,192,215,473,
0,560,590,190,213,467,
0,552,583,188,211,463,
0,546,575,187,209,457,
0,540,567,185,207,452,
0,534,647,184,240,448,
0,575,636,183,237,443,
0,568,627,182,235,439,
0,560,619,180,233,433,
0,551,611,179,231,436,
0,545,603,181,229,470,
0,539,595,179,227,464,
0,532,588,178,225,459,
0,527,580,177,224,454,
0,520,572,175,222,449,
0,515,630,174,221,445,
0,578,620,172,219,440,
0,571,611,171,217,435,
0,563,604,170,216,431,StartUp!
121,547,656,151,236,412,
0,542,650,150,235,409,
0,537,643,150,233,407,
0,532,636,148,231,403,
0,527,631,147,231,400,
0,523,624,150,228,397,
0,519,617,148,227,395,
0,514,611,147,227,391,
0,510,606,147,224,390,
0,505,600,146,224,387,
0,502,592,145,222,383,
0,497,697,143,220,380,
0,562,685,143,219,376,
0,555,675,141,217,371,
0,548,665,140,216,368,
0,542,655,139,214,380,
0,536,647,140,212,376,
0,529,636,138,210,372,
0,523,628,137,209,369,
0,517,620,135,207,365,
0,511,612,135,206,361,
0,505,652,135,207,359,
0,550,642,133,206,355,
0,543,633,132,204,352,
0,536,624,131,203,348,
0,530,615,135,201,399,
0,524,608,135,199,396,
0,518,599,134,198,391,
0,512,591,132,196,387,
0,506,583,131,195,384,
0,500,579,131,195,382,
0,498,660,130,224,378,
0,582,650,129,222,374,
0,574,641,127,220,370,
0,568,632,127,219,367,
0,560,624,158,216,416,
0,553,615,156,215,412,
0,547,606,154,212,408,
0,540,598,153,211,403,
0,534,590,152,209,399,
0,527,583,151,240,396,
0,568,671,149,243,391,
0,600,662,147,240,386,
0,591,653,147,239,384,
0,584,643,146,236,380,
0,577,636,167,235,432,
0,571,627,166,231,428,
1,563,616,163,230,423,
1,557,608,163,228,418,
1,551,600,161,226,414,
2,543,643,159,281,410,
3,622,690,159,278,406,
3,610,679,157,275,401,
3,603,670,185,272,396,
3,595,661,184,270,405,
4,588,652,185,268,432,
4,580,643,184,265,428,
4,574,632,182,263,423,
4,567,624,180,261,419,
5,560,615,179,259,415,
4,553,707,177,268,411,
5,615,696,176,265,407,
5,606,686,175,263,401,
5,598,675,207,262,398,
6,590,666,206,259,451,
5,583,657,204,257,444,
6,575,648,203,255,440,
6,569,638,201,252,435,
6,563,630,199,251,430,
6,556,622,198,248,425,
6,551,711,196,263,422,
6,607,699,195,262,417,
6,596,689,192,259,412,
6,589,679,191,257,408,
6,582,670,211,255,460,
6,575,660,218,252,454,
6,568,652,216,251,448,
6,561,639,215,248,444,
6,555,632,212,246,439,
6,548,624,211,245,435,
6,543,704,209,268,430,
6,617,692,207,265,425,
6,609,683,205,263,420,
6,601,673,204,261,415,
6,594,664,202,259,416,
6,587,655,200,257,412,
6,579,646,199,255,408,
6,572,636,198,252,404,
6,566,627,195,249,400,
6,559,619,195,283,397,
5,565,708,193,281,393,
5,576,697,192,279,390,
5,569,688,190,276,385,
5,563,678,188,274,381,
5,556,669,191,271,422,
5,549,659,189,270,417,
4,543,651,188,267,412,
4,537,639,186,263,408,
4,531,632,184,263,404,
4,526,668,184,262,401,
4,603,701,182,259,396,
4,591,691,180,257,393,
4,585,681,179,255,388,
4,577,671,177,253,407,
4,571,663,183,251,446,
4,563,654,181,249,440,
4,557,644,179,248,435,
4,551,634,178,244,431,
4,543,625,177,243,427,
4,538,710,176,263,423,
3,627,699,174,262,418,
3,615,688,172,259,414,
3,608,679,171,257,408,
4,600,668,169,255,460,
4,592,659,181,253,454,
3,585,651,179,251,448,
3,578,642,177,248,444,
3,572,632,176,247,440,
3,565,624,175,244,435,
3,559,675,174,268,430,
3,617,664,172,265,425,
3,607,655,171,263,422,
3,600,647,178,260,416,
3,591,638,179,259,458,
3,585,629,180,255,452,
3,577,621,178,254,448,
3,571,611,177,252,443,
3,564,604,175,249,438,
3,558,596,174,249,434,
3,551,683,172,267,429,
3,617,671,171,263,424,
3,608,663,169,262,420,
3,600,654,196,260,415,
3,591,644,203,258,473,
3,584,636,199,255,468,
3,577,627,199,254,463,
3,571,617,197,251,457,
3,564,609,195,248,453,
3,558,602,193,263,448,
3,577,716,192,268,444,
3,603,705,190,265,439,
3,593,696,189,263,435,
3,585,686,187,262,429,
3,579,676,190,259,476,
3,571,667,188,256,471,
3,564,657,187,255,465,
3,558,647,185,252,460,
3,551,639,184,249,455,
3,545,665,183,259,451,
3,603,687,181,257,446,
3,593,677,179,255,440,
3,583,668,178,252,436,
3,577,658,176,249,435,
2,570,649,176,248,470,
3,563,639,176,246,463,
2,556,632,174,243,459,
3,550,622,173,241,454,
2,543,615,172,240,449,
2,537,700,169,258,444,
2,603,688,168,255,440,
2,594,678,167,253,435,
2,585,668,167,251,431,
2,577,659,166,248,479,
2,571,650,167,247,472,
1,564,641,166,244,467,
1,558,633,165,243,462,
2,551,623,163,240,456,
1,543,615,163,239,452,
1,539,715,161,260,448,
1,585,704,159,258,443,
1,577,693,159,255,438,
1,568,684,158,254,433,
1,561,673,174,252,488,
1,555,664,175,249,483,
1,548,655,174,248,477,
1,542,647,172,246,472,
1,536,636,171,243,467,
1,529,628,169,241,462,
1,526,731,167,263,456,
1,602,719,167,260,451,
0,594,708,165,258,448,
1,585,698,163,255,443,
1,578,688,166,254,492,
1,571,679,164,252,486,
0,564,669,163,249,480,
1,558,660,161,248,475,
1,551,649,160,246,470,
0,544,641,159,248,464,
1,566,697,158,248,460,
1,601,688,157,246,455,
0,594,678,156,243,450,
0,584,668,154,241,446,
0,577,659,161,239,446,
1,571,650,160,238,441,
0,563,641,159,236,436,
0,557,633,158,233,432,
0,551,623,156,231,428,
0,543,668,156,246,423,
0,603,729,154,243,419,
0,594,718,152,240,415,
0,587,707,175,239,412,
0,577,697,173,236,408,
0,571,688,172,235,440,
0,563,679,171,232,435,
0,557,669,169,231,431,
0,551,660,167,229,425,
0,543,649,166,227,422,
0,537,690,165,258,417,
0,594,679,163,255,413,
0,586,669,162,252,409,
0,579,659,161,251,405,
0,570,651,159,248,401,
0,563,642,161,247,432,
0,556,634,159,244,428,
0,550,625,158,242,423,
0,543,617,157,240,419,
0,536,608,156,238,415,
0,531,630,155,248,410,
0,606,620,153,245,406,
0,598,611,152,243,402,
0,591,604,152,241,398,
0,582,596,153,239,439,
0,575,590,152,237,433,
0,568,583,151,236,428,
0,561,575,150,233,423,
0,554,569,148,231,419,
0,547,560,147,230,415,
0,542,641,147,249,412,
0,585,632,145,247,408,
0,578,623,144,244,403,
0,571,615,144,242,399,
0,562,607,156,240,403,
0,556,600,154,238,399,
0,550,591,152,236,395,
0,543,583,152,235,391,
0,536,576,150,231,387,
0,531,568,149,245,385,
0,563,671,147,252,382,
0,601,662,146,250,377,
0,593,652,145,248,375,
0,585,643,144,246,371,
0,577,636,156,243,415,
0,570,627,154,241,412,
0,563,619,152,240,408,
0,556,611,152,238,403,
0,550,603,151,236,399,
0,543,620,149,259,395,
0,588,639,147,256,391,
0,579,630,147,254,387,
0,572,622,145,252,384,
0,565,612,144,249,380,
0,556,605,148,248,414,
0,550,597,147,246,409,
0,543,590,145,243,405,
0,537,583,144,241,400,
0,531,575,143,240,396,
0,526,669,143,241,393,
0,583,658,141,239,389,
0,575,648,140,237,385,
0,569,639,139,235,382,
0,561,632,138,233,378,
0,553,623,142,231,395,
0,547,615,140,230,391,
0,540,607,140,227,387,
0,534,600,138,226,384,
0,527,591,137,224,380,
0,523,675,136,268,376,
0,579,664,135,265,372,
0,571,655,135,263,369,
0,564,646,134,260,366,
0,557,637,133,259,408,
0,548,628,151,255,407,
0,542,620,150,254,403,
0,536,612,148,252,398,
0,529,604,147,249,394,
0,524,596,146,248,391,
0,518,687,144,253,387,
0,595,676,143,251,383,
0,587,667,142,248,379,
0,579,657,141,247,376,
0,571,647,152,244,412,
0,564,639,158,243,406,
0,558,632,156,240,401,
0,551,623,155,239,398,
0,543,615,153,236,393,
0,538,607,152,235,390,
0,557,684,152,247,386,
0,571,674,151,244,382,
0,563,664,149,243,379,
0,557,655,147,240,375,
0,548,647,155,239,423,
0,542,638,153,236,416,
0,536,630,152,235,412,
0,529,622,151,232,408,
0,524,614,149,231,403,
0,518,606,148,231,399,
0,586,675,147,233,396,
0,577,664,145,231,391,
0,571,655,144,229,388,
0,563,647,143,227,384,
0,555,638,148,225,382,
0,548,630,147,224,377,
0,542,622,145,223,374,
0,536,614,144,220,370,
0,529,606,143,219,367,
0,524,627,142,238,364,
0,574,681,141,235,359,
0,566,671,140,232,357,
0,559,663,139,231,354,
0,551,653,137,228,352,
0,543,644,164,227,398,
0,537,636,163,225,393,
0,531,627,161,223,389,
0,525,620,159,222,385,
0,519,611,158,220,382,
0,513,671,157,246,377,
0,590,657,156,242,374,
0,583,648,155,240,371,
0,575,639,153,238,367,
0,568,632,152,236,408,
0,560,623,155,234,412,
0,552,615,152,231,406,
0,546,607,152,230,402,
0,540,599,151,228,398,
0,534,591,150,227,393,
0,527,643,148,243,390,
0,583,633,147,240,387,
0,575,625,145,239,383,
0,568,616,144,236,379,
0,560,608,149,235,419,
0,551,600,160,231,414,
0,545,593,159,231,408,
0,540,585,158,228,404,
0,533,579,156,227,399,
0,527,572,155,225,396,
0,540,647,153,244,391,
0,575,638,152,241,388,
0,568,630,151,239,385,
0,562,621,150,238,381,
0,555,613,157,236,423,
0,546,604,156,233,417,
0,540,596,153,231,412,
0,534,590,152,230,408,
0,527,582,151,227,403,
0,521,575,150,243,399,
0,592,653,148,252,396,
0,583,643,147,248,391,
0,575,635,147,247,388,
0,569,626,145,244,384,
0,563,618,144,242,451,
0,554,609,143,240,445,
0,547,602,142,238,439,
0,541,595,141,236,435,
0,535,587,140,234,430,
0,529,609,139,255,425,
0,596,681,137,252,422,
0,588,671,136,249,417,
0,580,663,135,248,413,
0,573,654,135,245,409,
0,567,644,172,243,454,
0,558,636,170,240,448,
0,551,627,168,239,442,
0,545,620,167,236,438,
0,539,611,166,235,433,
0,533,701,164,252,428,
0,572,688,163,248,423,
0,565,678,161,247,420,
0,558,668,160,243,415,
0,551,659,159,242,455,
0,545,649,172,240,449,
0,536,641,169,238,444,
0,531,632,168,236,439,
0,524,624,167,234,433,
0,519,616,166,231,430,
0,513,694,164,262,425,
0,581,679,163,259,420,
0,574,670,161,255,416,
0,567,661,163,254,412,
0,560,652,180,252,456,
0,552,643,188,249,451,
0,544,635,187,248,446,
0,538,626,184,246,440,
0,532,618,184,243,435,
0,526,610,182,241,432,
0,554,678,180,273,427,
0,580,665,179,271,423,
0,572,655,177,268,418,
0,566,647,176,265,414,
0,559,638,175,263,463,
0,551,630,174,261,457,
0,543,621,172,259,452,
0,537,613,171,257,446,
0,531,605,169,255,441,
0,525,598,167,259,438,
0,593,674,167,259,432,
0,584,662,165,255,428,
0,577,653,163,254,423,
0,570,643,163,252,419,
0,563,635,179,249,444,
0,556,627,177,248,439,
0,548,619,175,246,433,
0,542,611,173,243,428,
0,536,603,172,241,423,
0,530,614,171,255,420,
0,588,659,169,252,415,
0,579,647,167,249,412,
0,572,639,167,248,408,
0,564,630,165,246,403,
0,558,622,169,243,434,
0,551,614,167,241,430,
0,543,606,166,239,425,
0,537,599,165,237,419,
0,531,591,163,236,415,
0,525,660,163,242,411,
0,591,649,161,240,407,
0,583,638,159,237,403,
0,575,630,159,235,399,
0,568,620,158,233,396,
0,561,612,163,231,391,
0,555,604,162,230,388,
0,546,597,160,227,384,
0,540,590,159,226,380,
0,534,582,158,224,377,
0,527,668,157,231,374,
0,572,659,156,230,370,
0,563,647,155,227,368,
0,557,638,177,225,364,
0,551,630,177,224,406,
0,543,621,176,222,401,
0,537,613,175,220,396,
0,529,605,173,219,391,
0,524,598,172,216,387,
0,518,590,170,216,384,
0,548,667,168,247,380,
0,580,656,167,244,376,
0,573,645,182,241,373,
0,566,636,183,239,369,
0,559,627,184,237,419,
0,551,619,182,236,414,
0,545,611,180,233,409,
0,537,603,178,231,403,
0,531,595,177,230,399,
0,526,588,176,251,396,
0,579,663,174,252,391,
0,571,653,172,249,388,
0,563,642,171,247,385,
0,556,633,169,244,381,
0,550,624,174,243,432,
0,543,616,172,240,428,
0,536,608,171,238,423,
0,529,600,168,236,417,
0,523,593,167,234,414,
0,518,606,166,241,409,
0,591,664,164,239,406,
0,583,654,163,237,401,
0,575,643,162,235,398,
0,568,634,161,231,393,
0,561,625,166,231,414,
0,555,617,164,228,409,
0,548,609,163,227,405,
0,540,601,161,225,399,
0,534,593,159,224,396,
0,527,664,159,238,391,
0,585,652,158,236,388,
0,578,643,156,233,384,
0,571,632,159,231,381,
0,563,624,158,230,428,
0,556,615,167,227,423,
0,550,608,166,225,419,
0,543,600,164,224,415,
0,536,591,163,222,409,
0,529,584,161,220,406,
0,524,664,159,232,401,
0,579,654,159,231,397,
0,571,645,158,229,393,
0,564,633,157,226,390,
0,557,625,159,224,432,
0,550,617,167,223,427,
0,543,609,166,220,422,
0,536,601,164,219,417,
0,529,593,163,217,412,
0,524,586,161,216,408,
0,551,667,160,240,403,
0,590,656,159,237,399,
0,582,647,159,235,396,
0,575,636,157,232,391,
0,568,628,167,231,440,
0,561,619,164,229,435,
0,554,611,163,227,430,
0,545,604,162,225,425,
0,540,595,160,224,420,
0,534,588,159,243,415,
0,605,652,158,248,412,
0,596,643,156,246,408,
0,588,633,156,243,403,
0,582,623,154,240,399,
0,575,615,177,238,459,
0,568,607,176,236,454,
0,560,599,174,235,448,
0,551,591,172,232,444,
0,546,583,171,231,438,
0,540,595,169,259,433,
0,596,632,167,257,429,
0,588,623,167,255,424,
0,581,614,166,252,420,
0,574,604,163,249,416,
0,567,596,172,248,444,
0,560,588,170,246,440,
0,553,581,168,243,435,
0,545,574,167,241,430,
0,539,568,166,240,424,
0,533,645,164,249,420,
0,591,642,163,247,415,
0,583,632,161,244,412,
0,575,624,160,243,408,
0,568,614,159,240,451,
0,562,606,161,238,446,
0,555,598,160,236,440,
0,548,590,159,234,436,
0,540,583,158,231,432,
0,535,575,156,231,427,
0,528,675,155,236,422,
0,591,665,153,233,417,
0,583,655,152,231,414,
0,576,644,152,230,409,
0,569,636,152,227,452,
0,563,627,153,225,448,
0,556,619,152,224,442,
0,550,611,152,222,438,
0,541,603,150,220,432,
0,536,595,148,219,428,
0,557,674,147,244,423,
0,583,664,147,243,419,
0,575,655,176,240,415,
0,569,643,190,238,411,
0,562,635,188,236,444,
0,556,626,186,234,439,
0,548,617,184,231,434,
0,542,609,184,230,430,
0,535,601,182,228,425,
0,528,595,179,242,419,
0,595,705,178,247,415,
0,587,695,177,244,412,
0,579,685,176,243,408,
0,572,671,174,240,403,
0,566,664,175,238,408,
0,559,655,173,236,403,
0,551,646,172,234,399,
0,545,637,171,231,396,
0,537,629,169,231,391,
0,531,647,167,244,387,
0,577,718,166,242,384,
0,569,707,165,240,380,
0,562,697,163,238,377,
0,556,684,162,236,374,
0,548,675,179,233,414,
0,542,665,177,231,410,
0,536,656,176,230,406,
0,529,647,174,227,401,
0,523,639,172,225,397,
0,518,708,171,265,392,
0,581,699,169,262,388,
0,574,688,167,259,385,
0,567,679,167,257,381,
0,560,667,166,255,423,
0,552,658,165,252,420,
0,546,649,163,251,415,
0,540,641,162,248,411,
0,534,632,161,246,408,
0,526,624,159,244,403,
0,519,681,159,278,398,
0,595,671,157,275,393,
0,587,661,156,272,391,
0,579,652,155,270,387,
0,572,641,153,268,433,
0,565,632,152,265,428,
0,558,624,152,263,423,
0,551,615,150,260,419,
0,545,608,149,259,415,
0,537,601,147,255,411,
0,568,688,147,275,406,
0,595,677,145,271,401,
0,587,668,144,270,398,
0,579,658,143,268,393,
0,572,647,145,265,433,
0,566,638,143,263,428,
0,559,630,143,260,423,
0,551,621,142,258,419,
0,545,614,141,255,415,
0,538,606,140,258,411,
0,598,680,139,260,405,
0,590,670,137,257,401,
0,582,660,136,255,397,
0,575,652,135,254,393,
0,568,639,155,251,422,
0,561,632,153,249,417,
0,554,624,152,247,412,
0,547,615,151,244,408,
0,542,608,150,243,404,
0,534,620,147,247,399,
0,606,671,147,243,395,
0,598,663,145,241,391,
0,591,653,144,240,387,
0,583,644,143,238,384,
0,575,633,145,236,422,
0,569,625,143,233,417,
0,562,617,143,231,412,
0,556,609,142,230,408,
0,550,601,140,228,404,
0,542,682,139,255,400,
0,580,671,138,254,395,
0,573,662,137,251,391,
0,567,653,183,249,387,
0,559,643,180,248,384,
0,552,633,179,244,380,
0,545,625,177,242,376,
0,539,616,176,240,373,
0,533,608,175,239,369,
0,527,601,173,236,367,
0,519,678,171,255,364,
0,590,668,169,254,359,
0,583,658,167,252,356,
0,575,649,167,249,353,
0,568,639,166,248,368,
0,561,630,166,244,364,
0,555,621,164,242,359,
0,547,613,163,240,356,
0,541,605,161,238,353,
0,535,598,160,236,350,
0,561,675,159,247,346,
0,590,665,158,244,344,
0,582,655,156,242,340,
0,575,647,155,240,337,
0,568,638,155,238,382,
0,560,627,153,236,377,
0,553,619,152,233,374,
0,547,611,151,231,369,
0,541,603,150,230,366,
0,535,595,148,240,363,
0,615,671,147,251,359,
0,606,662,146,248,355,
0,599,653,145,247,352,
0,591,644,143,244,348,
0,583,636,149,242,350,
0,575,625,147,240,347,
0,569,616,147,238,344,
0,563,608,145,236,340,
0,556,600,144,233,337,
0,550,607,143,240,335,
0,587,659,142,238,331,
0,579,649,140,236,327,
0,572,639,140,234,326,
0,564,632,139,231,332,
0,558,624,137,230,387,
0,551,612,136,227,384,
0,544,605,135,226,380,
0,538,597,135,224,376,
0,532,590,134,223,372,
0,526,664,133,239,369,
0,563,664,131,236,364,
0,556,654,131,235,360,
0,550,646,129,232,358,
0,542,636,129,231,381,
0,536,628,140,228,378,
0,529,617,139,226,375,
0,524,610,137,224,371,
0,518,601,136,223,367,
0,512,594,135,221,364,
0,507,679,135,250,359,
0,585,668,133,248,355,
0,577,658,132,246,352,
0,571,649,131,243,349,
0,563,639,131,241,391,
0,556,632,135,239,386,
0,550,622,135,237,383,
0,543,614,134,235,378,
0,537,606,132,233,375,
0,531,598,131,231,371,
0,551,694,131,257,367,
0,575,683,129,255,363,
0,568,673,128,252,359,
0,561,664,127,251,356,
0,555,654,172,248,412,
0,548,646,169,246,407,
0,542,635,167,243,403,
0,536,626,167,241,398,
0,529,617,166,240,394,
0,523,610,163,239,391,
0,572,705,163,243,387,
0,564,696,161,240,382,
0,558,685,159,238,378,
0,551,675,159,236,375,
0,543,667,157,235,374,
0,537,657,156,232,371,
0,531,646,155,230,367,
0,525,638,153,228,364,
0,519,630,152,227,359,
0,513,639,152,278,358,
0,588,694,150,274,354,
0,580,684,148,271,350,
0,572,674,147,269,347,
0,566,664,146,267,344,
0,559,655,159,264,341,
0,551,647,158,263,338,
0,545,636,157,259,335,
0,539,628,156,257,332,
0,533,620,154,255,329,
0,527,685,153,268,327,
0,588,674,152,265,324,
0,580,664,150,263,321,
0,574,655,149,261,319,
0,567,647,148,259,364,
0,560,638,151,256,371,
0,552,630,149,255,368,
0,546,619,148,252,364,
0,540,611,147,249,359,
0,534,604,145,248,356,
0,527,689,144,269,353,
0,583,679,143,267,350,
0,575,668,142,263,346,
0,569,659,141,262,343,
0,562,651,143,260,399,
0,556,641,155,257,395,
0,548,632,153,255,391,
0,542,623,152,252,387,
0,536,615,151,251,384,
0,529,607,150,248,380,
0,524,662,148,263,376,
0,571,651,147,260,372,
0,563,643,145,258,368,
0,556,633,144,255,364,
0,550,625,159,254,400,
0,543,616,158,252,396,
0,537,607,156,249,391,
0,531,599,155,248,387,
0,524,591,153,245,384,
0,519,584,152,246,380,
0,539,670,151,256,376,
0,575,660,150,254,373,
0,568,651,148,252,368,
0,561,641,147,249,365,
0,555,633,146,248,399,
0,548,625,145,246,396,
0,542,615,143,243,391,
0,536,607,143,241,387,
0,529,599,141,239,384,
0,523,598,140,249,380,
0,600,647,139,247,376,
0,591,639,138,244,372,
0,583,630,140,243,368,
0,575,622,139,240,364,
0,568,613,149,239,403,
0,562,605,147,236,398,
0,556,595,146,235,394,
0,548,588,145,232,390,
0,543,580,143,231,386,
0,536,620,143,258,383,
0,589,610,142,255,379,
0,579,601,140,253,375,
0,572,593,139,251,371,
0,564,586,138,248,410,
0,558,579,157,247,415,
0,551,572,156,244,411,
0,545,563,155,242,407,
0,539,556,153,240,402,
0,532,551,152,238,399,
0,527,654,151,247,394,
0,593,644,149,244,391,
0,583,635,147,243,387,
0,575,626,147,240,382,
0,568,617,147,238,412,
0,562,609,150,236,408,
0,556,601,148,235,403,
0,548,591,147,232,399,
0,542,584,146,231,395,
0,536,577,145,228,391,
0,530,612,143,241,387,
0,587,604,143,239,384,
0,577,595,159,238,380,
0,569,588,177,235,376,
0,563,580,177,233,423,
0,556,573,175,231,419,
0,550,566,174,230,414,
0,543,558,172,227,409,
0,536,551,171,225,406,
0,531,545,169,246,402,
0,531,641,167,254,398,
0,582,632,167,252,393,
0,572,624,165,249,390,
0,565,615,163,248,385,
0,558,607,163,246,428,
0,551,600,163,243,423,
0,545,591,161,241,419,
0,539,582,159,239,415,
0,532,575,159,237,410,
0,526,593,158,260,406,
0,584,652,156,258,402,
0,579,643,155,255,398,
0,569,634,153,254,394,
0,563,625,152,252,390,
0,556,617,155,249,430,
0,550,609,153,247,425,
0,543,601,152,245,421,
0,536,591,151,243,416,
0,530,584,150,240,412,
0,524,659,148,243,408,
0,591,654,147,241,404,
0,583,644,146,239,399,
0,574,636,152,237,396,
0,567,627,150,235,422,
0,560,619,152,233,419,
0,553,611,152,231,414,
0,547,603,151,230,409,
0,540,593,148,227,406,
0,534,585,147,225,401,
0,528,676,147,297,398,
0,600,665,145,294,393,
0,591,655,144,291,390,
0,583,647,143,288,386,
0,575,638,142,286,419,
0,568,630,142,283,415,
0,561,621,140,280,411,
0,555,613,140,279,407,
0,548,604,138,275,402,
0,542,595,137,273,399,
0,536,688,135,271,394,
0,579,677,135,269,391,
0,572,668,134,267,387,
0,563,658,134,264,382,
0,557,649,143,263,422,
0,550,639,142,261,417,
0,543,632,140,259,412,
0,537,624,140,256,408,
0,531,614,138,254,404,
0,525,606,137,259,400,
0,540,639,135,262,396,
0,588,630,135,259,391,
0,580,621,134,257,388,
0,572,612,132,255,384,
0,566,605,155,253,422,
0,558,597,153,251,417,
0,551,590,152,248,412,
0,545,583,151,247,408,
0,539,574,150,244,403,
0,532,591,148,255,399,
0,590,662,147,253,396,
0,588,652,145,251,391,
0,580,643,144,248,388,
0,572,634,143,247,384,
0,564,626,156,244,381,
0,558,617,155,243,377,
0,551,609,153,241,374,
0,543,602,152,239,371,
0,538,592,151,237,368,
0,532,633,150,258,364,
0,604,624,148,255,359,
0,595,615,147,252,358,
0,588,607,146,251,355,
0,579,599,144,248,391,
0,572,591,147,247,399,
0,565,583,145,244,394,
0,559,575,144,242,390,
0,551,569,143,240,387,
0,545,561,142,238,383,
0,540,664,141,259,379,
0,608,653,140,255,376,
0,600,643,139,254,371,
0,592,636,137,252,368,
0,583,627,137,249,364,
0,575,619,144,248,359,
0,569,610,143,246,358,
0,563,603,142,243,354,
0,556,595,141,241,351,
0,550,585,140,239,348,
0,543,679,139,248,344,
0,595,668,137,246,342,
0,587,659,135,243,339,
0,577,650,135,241,335,
0,571,641,163,240,361,
0,563,632,159,238,358,
0,557,624,159,236,354,
0,551,615,158,234,351,
0,543,608,156,231,348,
0,537,599,155,251,344,
0,560,656,153,265,340,
0,604,647,152,263,337,
0,596,638,152,262,335,
0,587,630,150,259,332,
0,580,621,148,257,379,
0,573,612,147,255,375,
0,566,604,146,252,371,
0,560,597,145,250,367,
0,552,590,143,248,364,
0,547,608,143,272,359,
0,588,683,142,270,356,
0,582,672,140,268,353,
0,574,664,140,265,350,
0,565,654,138,263,347,
0,559,646,149,260,387,
0,551,636,147,259,382,
0,545,628,147,255,378,
0,539,620,145,254,375,
0,532,612,143,252,371,
0,527,689,143,259,368,
0,585,702,142,256,364,
0,577,691,140,255,359,
0,570,682,140,252,357,
0,561,672,138,251,353,
0,555,664,154,248,402,
0,547,655,152,246,398,
0,542,646,152,244,393,
0,536,637,150,242,390,
0,529,628,148,240,386,
0,524,686,147,275,382,
0,600,675,146,271,379,
0,592,665,145,270,375,
0,585,655,144,267,371,
0,575,647,143,265,396,
0,569,638,143,263,408,
0,562,630,141,260,404,
0,556,622,140,258,400,
0,549,614,139,255,396,
0,543,604,137,254,391,
0,536,704,137,277,388,
0,591,694,135,275,384,
0,583,684,135,271,381,
0,575,673,135,270,377,
0,567,664,135,268,428,
0,560,655,133,265,422,
0,553,647,131,263,417,
0,547,638,131,261,413,
0,540,630,130,259,408,
0,535,620,129,255,405,
0,551,693,127,275,400,
0,600,683,127,273,396,
0,593,672,129,271,392,
0,585,664,131,268,389,
0,577,655,169,266,432,
0,569,646,175,263,427,
0,563,637,173,262,422,
0,556,628,172,259,417,
0,550,620,170,257,413,
0,543,631,169,263,409,
0,592,691,167,277,404,
0,589,681,166,275,401,
0,582,671,164,272,397,
0,574,662,163,270,393,
0,566,653,167,268,439,
0,559,644,167,265,432,
0,551,636,165,263,428,
0,545,627,163,261,423,
0,539,619,163,259,419,
0,534,664,161,259,415,
0,614,654,159,257,411,
0,605,644,159,255,407,
0,598,636,161,253,403,
0,590,627,159,251,399,
0,581,619,161,249,433,
0,574,611,159,247,428,
0,567,603,158,244,423,
0,560,595,157,243,418,
0,553,588,156,241,414,
0,547,688,155,286,410,
0,601,676,153,282,406,
0,593,667,152,280,401,
0,587,657,152,277,398,
0,579,647,150,275,419,
0,570,639,166,272,417,
0,563,632,164,270,412,
0,556,623,163,268,408,
0,551,615,161,265,403,
0,543,607,160,263,399,
0,537,678,159,279,395,
0,603,667,158,275,391,
0,594,657,156,272,387,
0,587,649,161,271,384,
0,579,639,160,268,423,
0,571,632,159,265,419,
0,564,623,158,263,413,
0,558,615,156,262,408,
0,551,607,155,259,404,
0,544,600,153,257,400,
0,556,684,152,266,396,
0,604,673,152,263,391,
0,596,664,151,261,389,
0,590,655,150,259,385,
0,582,647,153,256,427,
0,573,638,151,255,423,
0,566,629,150,252,416,
0,560,620,148,251,412,
0,553,613,147,248,408,
0,547,605,147,248,403,
0,604,679,145,250,399,
0,598,669,143,248,396,
0,590,659,144,246,391,
0,582,651,143,244,388,
0,575,641,152,242,441,
0,567,633,150,240,436,
0,560,625,148,239,431,
0,553,617,147,236,426,
0,547,609,145,235,422,
0,540,606,145,272,417,
0,595,688,143,270,414,
0,588,678,143,268,409,
0,580,668,142,265,406,
0,573,659,140,263,401,
0,566,651,149,260,398,
0,558,641,147,258,393,
0,551,633,146,255,389,
0,543,625,145,254,385,
0,538,616,143,252,382,
0,532,668,143,263,379,
0,604,671,142,260,375,
0,596,661,140,259,371,
0,588,652,140,255,368,
0,581,643,138,254,402,
0,574,635,137,252,412,
0,566,626,135,249,408,
0,559,617,135,248,403,
0,551,609,134,246,398,
0,545,601,133,243,395,
0,540,691,132,272,391,
0,591,678,131,268,387,
0,583,668,130,267,384,
0,575,659,132,263,380,
0,568,649,131,262,428,
0,561,641,150,259,423,
0,553,632,148,257,417,
0,547,624,147,255,414,
0,540,615,145,254,409,
0,535,608,144,252,405,
0,548,699,143,271,401,
0,590,685,142,268,396,
0,582,675,142,265,393,
0,575,666,143,263,390,
0,568,657,167,260,403,
0,561,647,166,259,399,
0,552,639,163,255,393,
0,545,632,162,254,390,
0,540,623,160,252,386,
0,534,615,159,263,383,
0,608,692,158,287,379,
0,604,679,157,284,376,
0,596,670,156,281,371,
0,589,660,154,279,368,
0,583,652,175,276,412,
0,575,643,173,274,408,
0,566,634,171,271,402,
0,560,626,169,270,398,
0,552,617,168,268,394,
0,547,610,167,265,391,
0,627,656,166,263,387,
0,619,644,164,261,384,
0,611,636,163,259,379,
0,603,627,161,257,376,
0,595,619,167,255,380,
0,588,611,166,252,376,
0,579,603,164,251,371,
0,572,595,163,248,368,
0,566,588,161,247,365,
0,560,647,159,267,362,
0,619,668,159,263,359,
0,610,655,158,260,355,
0,603,647,157,259,352,
0,595,638,156,255,355,
0,588,630,155,254,367,
0,580,621,153,252,364,
0,572,613,152,249,359,
0,565,605,151,248,355,
0,558,598,150,246,352,
0,551,675,148,264,349,
0,619,664,147,262,345,
0,610,652,146,259,344,
0,603,643,145,257,340,
0,595,635,143,255,396,
0,588,626,157,252,391,
0,579,617,156,251,387,
0,572,609,153,248,382,
0,564,602,152,246,379,
0,559,595,152,244,376,
0,566,673,150,257,371,
0,615,663,149,255,368,
0,608,651,147,252,364,
0,600,642,147,249,359,
0,592,633,153,248,408,
0,585,625,152,246,403,
0,575,616,151,243,399,
0,569,608,148,241,393,
0,563,600,147,240,390,
0,556,593,147,248,386,
0,615,669,145,268,382,
0,615,659,144,265,378,
0,607,647,143,262,375,
0,599,639,142,259,371,
0,591,630,166,257,427,
0,583,622,164,255,422,
0,575,614,163,253,417,
0,569,606,161,251,412,
0,562,598,159,249,408,
0,556,595,159,273,404,
0,608,686,157,276,399,
0,600,672,156,274,396,
0,592,664,155,271,391,
0,585,654,153,268,388,
0,578,646,159,267,385,
0,571,636,158,263,382,
0,563,628,156,262,378,
0,556,620,155,259,374,
0,549,612,153,258,371,
0,543,665,152,295,367,
0,631,686,151,292,364,
0,622,675,150,290,359,
0,614,664,148,287,358,
0,606,655,147,284,384,
0,598,646,156,281,403,
0,591,637,154,280,399,
0,582,628,153,277,395,
0,575,620,152,275,390,
0,568,612,151,272,387,
0,561,695,149,279,382,
0,626,684,147,275,379,
0,618,671,147,273,376,
0,610,662,146,271,371,
0,602,653,145,268,422,
0,595,643,149,266,415,
0,588,636,147,263,412,
0,579,627,147,262,408,
0,572,619,145,259,402,
0,565,611,143,258,398,
0,563,689,143,276,393,
0,600,679,142,274,390,
0,591,667,140,271,387,
0,584,657,140,269,384,
0,577,648,154,267,432,
0,570,639,152,263,427,
0,563,632,151,262,422,
0,555,623,150,260,417,
0,548,615,147,258,412,
0,543,607,147,262,408,
0,607,711,145,286,403,
0,607,700,144,284,399,
0,600,688,150,280,396,
0,591,678,148,278,391,
0,583,669,153,275,425,
0,577,659,152,273,421,
0,570,651,152,271,416,
0,562,642,150,268,412,
0,555,633,148,267,407,
0,548,625,147,284,403,
0,611,685,146,281,399,
0,603,675,145,279,395,
0,595,664,209,276,391,
0,588,654,206,273,387,
0,580,645,204,271,403,
0,573,636,202,268,399,
0,567,628,199,267,396,
0,558,620,198,264,391,
0,551,612,196,262,387,
0,545,662,195,288,384,
0,609,671,193,285,380,
0,601,662,192,283,376,
0,593,651,190,280,372,
0,586,642,188,277,386,
0,579,633,187,275,403,
0,572,625,185,272,399,
0,566,616,184,270,396,
0,557,608,182,268,391,
0,551,601,181,265,387,
0,543,688,179,271,383,
0,608,676,178,270,379,
0,600,667,177,268,376,
0,591,655,176,265,372,
0,584,647,174,263,387,
0,577,638,172,260,384,
0,570,629,172,258,379,
0,563,621,170,255,376,
0,556,613,168,254,371,
0,549,605,167,252,368,
0,548,689,166,275,364,
0,586,679,165,271,360,
0,579,669,163,270,358,
0,572,657,163,267,355,
0,564,648,168,263,352,
0,558,639,167,262,348,
0,551,632,166,259,345,
0,544,623,164,257,343,
0,536,615,163,255,339,
0,531,607,161,255,336,
0,596,675,159,263,334,
0,593,665,159,260,331,
0,585,655,158,258,327,
0,578,645,156,255,326,
0,571,636,156,254,326,
0,564,627,155,252,323,
0,558,620,153,249,319,
0,551,611,152,248,318,
0,543,604,151,246,315,
0,537,596,150,280,312,
0,615,642,148,281,310,
0,608,633,147,279,307,
0,600,624,147,275,305,
0,591,614,145,273,304,
0,585,606,152,271,350,
0,577,598,151,268,345,
0,571,591,150,266,343,
0,564,583,148,263,339,
0,556,576,147,262,335,
0,550,647,146,273,332,
0,615,691,144,271,328,
0,606,679,143,268,326,
0,600,671,143,265,323,
0,591,659,142,263,344,
0,583,650,158,261,362,
0,576,641,156,259,358,
0,569,633,155,255,355,
0,563,624,153,255,352,
0,555,616,152,252,348,
0,548,697,151,280,344,
0,596,686,149,276,341,
0,588,675,147,274,338,
0,581,666,147,271,334,
0,574,655,146,269,332,
0,567,646,151,267,327,
0,560,637,150,264,326,
0,553,628,148,262,323,
0,547,620,147,260,319,
0,539,612,146,258,316,
0,544,691,144,288,313,
0,598,680,143,286,312,
0,591,671,143,283,308,
0,583,662,143,280,306,
0,575,651,174,278,352,
0,568,641,172,275,349,
0,561,632,170,273,345,
0,556,624,168,271,342,
0,548,616,167,268,339,
0,541,608,166,267,335,
0,593,679,164,264,332,
0,593,670,163,263,328,
0,585,660,161,260,326,
0,578,652,159,259,323,
0,571,639,159,255,361,
0,564,632,158,254,357,
0,558,624,157,252,353,
0,551,615,156,249,350,
0,544,608,155,248,347,
0,536,601,153,257,343,
0,591,688,152,255,339,
0,583,678,151,253,336,
0,576,668,150,251,333,
0,569,659,148,248,331,
0,563,647,165,247,377,
0,556,639,163,244,374,
0,550,630,161,243,370,
0,543,622,160,240,366,
0,536,614,159,239,363,
0,529,664,158,271,359,
0,579,679,156,269,355,
0,572,669,155,267,352,
0,565,659,153,263,348,
0,558,651,152,262,348,
0,551,639,171,259,350,
0,544,631,169,257,347,
0,538,623,167,255,344,
0,532,615,167,252,340,
0,526,607,166,251,337,
0,519,704,163,271,334,
0,588,691,163,268,331,
0,582,681,161,265,327,
0,574,671,159,263,325,
0,567,663,159,262,337,
0,560,651,159,259,335,
0,553,643,159,255,331,
0,547,634,158,255,327,
0,540,625,156,252,325,
0,532,617,155,250,322,
0,534,711,153,268,319,
0,593,700,152,265,316,
0,586,689,151,263,313,
0,579,679,150,260,311,
0,572,670,152,259,364,
0,564,659,151,255,359,
0,558,649,150,254,356,
0,551,641,147,252,352,
0,545,632,147,249,349,
0,537,624,145,248,346,
0,587,699,144,246,342,
0,580,688,143,243,339,
0,574,679,142,241,335,
0,567,669,141,240,332,
0,560,660,145,238,377,
0,552,648,143,236,374,
0,546,639,143,233,369,
0,540,632,142,231,366,
0,534,624,140,231,363,
0,526,618,140,255,359,
0,604,697,138,254,355,
0,595,687,137,251,352,
0,588,677,135,248,348,
0,580,668,135,247,345,
0,574,659,140,244,372,
0,567,647,139,242,368,
0,560,639,137,240,364,
0,553,631,136,238,361,
0,547,623,135,236,358,
0,539,670,135,243,355,
0,588,679,134,241,350,
0,580,670,132,239,347,
0,573,660,132,237,344,
0,566,652,131,236,368,
0,559,643,151,233,389,
0,551,632,150,231,385,
0,545,624,148,230,381,
0,540,615,147,227,377,
0,533,608,146,226,374,
0,526,668,144,259,370,
0,587,657,143,255,366,
0,579,647,142,254,363,
0,572,639,141,252,359,
0,565,631,140,250,406,
0,558,620,161,248,400,
0,551,612,159,245,396,
0,545,604,159,243,392,
0,539,596,157,241,388,
0,532,589,156,239,384,
0,534,664,155,244,381,
0,583,653,153,242,376,
0,575,644,152,240,372,
0,569,635,151,238,369,
0,562,627,150,236,387,
0,555,616,148,235,384,
0,548,608,147,231,380,
0,542,600,146,230,376,
0,536,592,145,228,372,
0,529,585,143,235,369,
0,586,674,143,258,365,
0,585,664,142,255,360,
0,578,655,140,254,358,
0,571,646,139,252,354,
0,564,637,146,249,384,
0,557,626,145,247,380,
0,551,618,143,244,376,
0,543,610,142,242,372,
0,537,603,141,240,369,
0,531,595,140,265,366,
0,591,679,139,263,362,
0,583,670,137,262,358,
0,575,661,137,259,355,
0,568,652,135,257,352,
0,563,643,156,255,391,
0,555,632,155,253,387,
0,548,624,153,251,383,
0,542,615,152,248,379,
0,536,608,151,247,375,
0,529,660,150,267,371,
0,583,667,147,263,368,
0,575,657,147,262,364,
0,568,647,145,259,359,
0,561,639,144,257,385,
0,555,631,154,255,395,
0,547,620,152,252,391,
0,541,612,152,249,387,
0,536,604,150,248,384,
0,529,596,149,246,380,
0,524,678,147,260,376,
0,582,667,146,258,371,
0,574,657,145,255,368,
0,567,647,143,254,364,
0,560,639,143,252,360,
0,553,631,166,249,358,
0,547,620,164,248,354,
0,540,612,163,244,351,
0,534,604,161,243,348,
0,527,596,159,240,344,
0,521,656,159,253,342,
0,593,647,157,251,339,
0,584,638,156,249,335,
0,577,629,155,247,332,
0,571,620,161,244,364,
0,563,612,159,243,360,
0,557,603,158,240,357,
0,551,595,156,238,353,
0,543,588,156,236,350,
0,537,580,154,236,348,
0,532,664,153,243,344,
0,583,654,152,241,340,
0,577,644,150,239,336,
0,569,636,148,236,334,
0,563,627,166,235,391,
0,556,619,163,232,387,
0,550,608,163,231,384,
0,543,601,161,229,380,
0,536,593,159,227,376,
0,531,591,159,266,373,
0,586,666,157,267,369,
0,593,655,156,263,366,
0,585,647,154,262,361,
0,579,639,153,259,358,
0,572,630,152,257,406,
0,564,622,152,255,401,
0,558,611,150,252,396,
0,551,604,149,251,393,
0,545,595,147,248,389,
0,539,651,147,259,385,
0,591,668,145,255,382,
0,582,659,143,255,377,
0,574,649,143,252,374,
0,568,639,142,250,396,
0,560,632,152,248,415,
0,553,624,151,246,411,
0,547,614,150,243,406,
0,540,606,148,241,402,
0,534,598,147,240,398,
0,528,684,146,273,394,
0,583,673,144,270,390,
0,574,664,143,268,387,
0,567,654,142,265,382,
0,560,645,141,263,379,
0,552,636,145,260,375,
0,546,627,143,259,371,
0,540,617,143,255,368,
0,534,610,142,254,365,
0,527,602,140,252,361,
0,521,655,140,263,358,
0,573,646,138,260,355,
0,563,636,137,259,351,
0,557,627,135,255,348,
0,551,620,163,254,399,
0,543,611,160,252,395,
0,537,604,159,249,391,
0,531,593,158,248,387,
0,525,587,156,245,384,
0,519,579,155,244,380,
0,514,672,153,259,376,
0,577,663,152,255,371,
0,568,653,151,255,368,
0,561,644,150,252,364,
0,555,636,153,250,399,
0,547,627,152,248,396,
0,542,619,151,246,391,
0,535,609,149,243,387,
0,528,601,147,241,384,
0,523,595,147,245,380,
0,543,671,145,243,376,
0,561,663,144,241,372,
0,552,653,143,239,368,
0,545,644,142,237,365,
0,540,636,184,235,403,
0,533,627,183,233,399,
0,527,619,180,231,396,
0,520,608,179,229,391,
0,515,601,177,227,387,
0,510,663,176,241,384,
0,588,692,175,239,380,
0,579,681,173,236,376,
0,571,671,172,235,371,
0,563,663,170,231,368,
0,556,654,170,231,365,
0,550,644,168,228,361,
0,543,636,167,227,359,
0,537,625,167,225,355,
0,531,617,164,223,352,
0,525,695,163,251,349,
0,579,683,162,248,345,
0,572,673,161,246,343,
0,563,664,159,243,339,
0,556,655,159,241,380,
0,549,646,159,240,376,
0,543,638,159,238,371,
0,536,628,158,236,368,
0,530,619,156,233,364,
0,524,611,155,231,361,
0,519,687,154,251,358,
0,575,676,152,248,354,
0,566,667,152,247,351,
0,559,657,150,244,347,
0,551,648,172,243,391,
0,545,639,170,240,388,
0,539,631,168,238,384,
0,532,623,167,236,380,
0,526,612,166,233,376,
0,519,605,164,237,374,
0,527,665,163,247,369,
0,605,655,161,244,366,
0,595,646,160,243,363,
0,588,637,159,240,358,
0,580,628,159,238,380,
0,573,620,159,236,376,
0,566,612,157,235,372,
0,560,604,156,232,369,
0,553,595,155,230,365,
0,547,588,153,278,362,
0,571,647,152,277,359,
0,574,637,152,274,355,
0,564,628,150,271,352,
0,558,620,148,270,348,
0,551,612,182,268,393,
0,544,604,179,265,390,
0,538,596,178,263,385,
0,532,588,176,261,382,
0,526,579,175,258,377,
0,519,630,174,271,375,
0,593,646,172,269,371,
0,584,636,171,267,367,
0,575,627,169,264,364,
0,568,619,167,263,379,
0,561,611,167,260,396,
0,555,603,166,258,391,
0,547,595,164,255,388,
0,542,588,163,254,384,
0,536,579,162,252,380,
0,529,671,161,252,376,
0,585,660,159,251,373,
0,578,651,158,248,369,
0,569,643,157,247,366,
0,562,633,156,244,415,
0,556,625,160,242,411,
0,548,616,159,240,406,
0,542,609,158,239,401,
0,536,600,156,237,398,
0,529,591,155,235,393,
0,524,675,153,243,390,
0,568,664,152,241,386,
0,561,655,152,239,383,
0,553,647,151,237,379,
0,546,638,167,235,440,
0,540,630,164,233,435,
0,534,620,163,231,431,
0,527,612,161,230,425,
0,521,603,159,227,422,
0,515,595,159,236,417,
0,515,678,158,248,413,
0,585,668,156,246,408,
0,577,658,155,243,405,
0,568,649,153,241,401,
0,561,639,152,239,418,
0,555,632,152,238,414,
0,548,623,150,235,409,
0,542,615,149,233,405,
0,536,606,147,231,401,
0,529,598,147,243,397,
0,560,668,145,243,393,
0,572,659,145,241,390,
0,564,649,143,240,386,
0,556,641,153,238,382,
0,549,632,152,236,393,
0,542,624,152,233,390,
0,536,615,150,231,386,
0,529,608,148,230,382,
0,524,598,147,227,379,
0,518,655,147,252,376,
0,585,679,145,249,371,
0,577,670,144,248,368,
0,569,661,147,246,365,
0,561,652,147,243,361,
0,555,643,147,241,408,
0,547,634,146,240,403,
0,541,626,144,238,399,
0,535,617,143,236,395,
0,528,608,143,233,391,
0,523,682,142,255,387,
0,579,671,140,252,384,
0,571,662,139,251,380,
0,564,652,151,248,376,
0,556,643,149,246,380,
0,548,635,157,243,398,
0,542,627,156,242,394,
0,536,619,154,240,390,
0,529,610,153,238,386,
0,524,600,152,236,383,
0,519,682,151,257,379,
0,571,671,149,255,376,
0,563,662,148,252,371,
0,556,653,147,250,368,
0,548,644,167,248,422,
0,542,636,165,246,415,
0,536,627,163,243,411,
0,529,619,163,241,407,
0,523,611,161,240,402,
0,517,601,159,238,399,
0,513,610,159,263,394,
0,575,602,157,261,391,
0,568,594,156,259,387,
0,561,587,155,255,384,
0,552,580,156,255,397,
0,546,572,155,252,391,
0,540,566,153,250,387,
0,533,560,152,248,384,
0,527,553,151,246,380,
0,521,547,150,244,376,
0,540,635,148,243,372,
0,558,625,147,241,369,
0,551,617,146,239,366,
0,543,609,145,237,363,
0,536,601,144,235,403,
0,529,593,143,233,397,
0,523,585,142,231,393,
0,518,579,141,230,390,
0,512,572,140,227,385,
0,506,632,139,243,382,
0,583,658,137,241,377,
0,575,648,136,239,374,
0,568,639,135,236,371,
0,561,632,135,235,367,
0,552,623,141,232,408,
0,545,615,140,231,403,
0,540,606,139,228,399,
0,533,599,137,227,395,
0,527,591,136,225,391,
0,521,668,135,254,387,
0,583,657,135,251,384,
0,575,647,133,249,380,
0,568,639,146,247,376,
0,561,631,144,244,383,
0,553,622,147,243,414,
0,547,614,145,240,410,
0,540,606,144,238,406,
0,534,598,143,236,401,
0,527,591,142,235,398,
0,523,676,140,267,393,
0,578,665,139,263,390,
0,571,655,138,263,386,
0,563,647,137,259,382,
0,556,638,135,257,417,
0,548,630,147,255,411,
0,542,622,145,253,407,
0,536,613,144,252,402,
0,529,605,143,249,398,
0,524,598,142,247,395,
0,520,675,141,249,390,
0,579,665,140,248,387,
0,572,656,139,245,383,
0,564,647,137,243,379,
0,558,639,151,241,419,
0,550,630,150,240,414,
0,543,622,148,237,409,
0,536,614,147,236,405,
0,531,606,146,233,401,
0,524,598,145,231,397,
0,560,671,143,250,393,
0,577,663,142,248,389,
0,569,653,142,246,385,
0,563,644,140,243,382,
0,556,636,147,241,423,
0,547,627,146,240,417,
0,540,619,144,238,412,
0,535,611,143,236,408,
0,528,603,142,233,403,
0,523,595,141,235,399,
0,591,672,140,234,396,
0,583,663,139,231,391,
0,575,654,137,231,388,
0,569,644,136,228,384,
0,563,636,135,227,440,
0,553,627,135,225,433,
0,547,620,134,223,429,
0,541,611,132,222,424,
0,535,604,131,220,420,
0,529,630,131,243,415,
0,579,656,130,240,412,
0,572,647,129,238,408,
0,565,639,127,236,403,
0,558,630,127,234,399,
0,551,621,131,231,396,
0,543,613,129,230,391,
0,536,605,127,228,387,
0,531,598,127,227,384,
0,524,590,126,225,380,
0,519,643,126,239,376,
0,569,631,124,236,374,
0,561,622,124,235,370,
0,555,614,123,232,367,
0,547,606,122,231,408,
0,540,598,131,228,403,
0,534,590,130,227,399,
0,527,583,129,225,395,
0,521,575,127,223,391,
0,515,568,127,222,387,
0,513,668,126,254,383,
0,582,655,125,251,379,
0,575,646,124,248,376,
0,568,637,123,247,371,
0,560,628,143,244,368,
0,551,620,149,243,365,
0,545,611,147,240,361,
0,539,604,146,238,358,
0,532,596,145,236,355,
0,527,588,143,235,352,
0,568,678,143,245,348,
0,588,664,141,242,345,
0,580,655,140,240,343,
0,574,647,139,238,339,
0,567,638,147,236,390,
0,558,630,145,234,385,
0,551,621,143,231,380,
0,545,613,142,230,377,
0,539,605,141,228,373,
0,532,598,140,262,369,
0,591,668,139,266,366,
0,583,655,137,263,363,
0,575,646,137,260,359,
0,569,638,135,259,356,
0,563,628,148,255,403,
0,553,620,147,254,399,
0,547,612,145,252,393,
0,540,604,144,249,390,
0,535,596,143,248,386,
0,528,627,142,271,382,
0,599,670,141,268,379,
0,590,657,140,264,375,
0,583,647,140,263,371,
0,575,639,139,260,368,
0,568,631,170,257,366,
0,560,623,167,255,363,
0,553,615,166,254,359,
0,547,606,165,252,355,
0,540,599,163,249,352,
0,535,684,162,255,349,
0,598,670,161,253,345,
0,589,660,159,250,344,
0,583,652,158,248,340,
0,575,643,157,246,384,
0,568,633,159,243,378,
0,559,625,159,241,374,
0,551,617,157,240,369,
0,546,609,156,238,366,
0,540,601,155,236,363,
0,534,711,153,240,359,
0,577,696,152,239,355,
0,571,686,152,236,352,
0,563,676,150,234,349,
0,556,668,162,232,375,
0,550,657,161,231,371,
0,542,648,160,229,367,
0,536,639,159,227,363,
0,529,632,157,225,359,
0,524,624,156,233,355,
0,568,679,155,271,352,
0,574,667,153,270,349,
0,567,657,152,267,345,
0,560,647,151,263,343,
0,552,639,152,262,399,
0,546,631,152,259,395,
0,538,623,150,257,391,
0,531,615,148,255,386,
0,526,607,147,253,382,
0,519,600,146,255,379,
0,578,691,145,255,375,
0,569,678,143,252,371,
0,563,668,143,250,368,
0,556,659,142,248,364,
0,550,650,147,246,410,
0,543,641,147,244,406,
0,535,633,145,242,401,
0,528,624,143,240,396,
0,523,616,143,239,391,
0,517,652,142,248,388,
0,586,679,140,246,384,
0,578,668,139,243,381,
0,571,659,139,241,377,
0,564,649,137,239,375,
0,557,639,145,238,396,
0,551,632,144,236,391,
0,543,624,143,233,387,
0,536,615,142,231,384,
0,529,608,140,230,380,
0,524,688,140,260,376,
0,591,676,138,257,372,
0,583,664,137,255,368,
0,575,655,135,252,365,
0,568,647,135,250,403,
0,562,638,151,248,398,
0,555,630,150,246,394,
0,547,621,147,243,391,
0,540,613,147,242,385,
0,535,605,145,240,382,
0,529,686,144,242,377,
0,592,675,143,240,375,
0,584,663,142,238,371,
0,577,654,140,236,367,
0,570,645,142,233,399,
0,563,636,142,231,395,
0,556,627,140,230,391,
0,548,620,139,228,387,
0,542,611,137,227,382,
0,536,604,136,225,379,
0,582,671,135,258,375,
0,591,660,135,255,371,
0,583,649,134,252,368,
0,575,639,132,251,364,
0,569,632,145,248,406,
0,562,623,143,246,401,
0,556,615,142,244,396,
0,547,607,140,242,392,
0,540,600,140,240,387,
0,535,591,139,242,384,
0,583,680,137,240,380,
0,575,671,135,238,376,
0,568,659,135,236,373,
0,561,649,134,234,369,
0,555,639,147,231,412,
0,548,632,145,231,407,
0,542,624,143,228,403,
0,534,615,143,227,399,
0,527,608,141,225,393,
0,522,646,140,255,390,
0,577,679,139,252,386,
0,570,668,137,251,382,
0,563,657,136,248,378,
0,556,647,135,246,386,
0,550,639,158,243,418,
0,543,632,156,241,414,
0,536,623,155,239,409,
0,528,615,153,238,405,
0,523,607,152,236,399,
0,518,688,151,255,396,
0,573,677,150,254,391,
0,566,668,148,252,388,
0,559,655,147,248,385,
0,551,647,146,247,382,
0,545,638,159,244,377,
0,539,630,158,243,374,
0,532,621,157,240,371,
0,524,613,156,239,367,
0,519,606,153,236,364,
0,513,659,152,248,359,
0,570,649,152,246,356,
0,563,639,150,243,353,
0,556,630,150,241,351,
0,549,622,156,239,348,
0,543,612,154,237,344,
0,536,605,152,236,342,
0,530,597,152,233,339,
0,522,590,150,231,335,
0,516,583,149,235,332,
0,561,662,147,267,329,
0,574,652,146,263,327,
0,567,643,145,262,324,
0,560,632,143,259,321,
0,553,624,159,257,369,
0,546,615,158,255,366,
0,540,608,156,253,362,
0,534,600,155,251,359,
0,526,591,153,248,354,
0,519,584,152,263,351,
0,576,676,151,262,348,
0,569,667,150,259,344,
0,561,657,152,257,341,
0,555,646,151,254,338,
0,548,637,164,252,384,
0,542,628,163,249,380,
0,536,620,162,248,376,
0,529,612,160,246,372,
0,521,604,159,243,368,
0,515,645,158,260,364,
0,583,677,156,257,361,
0,575,667,155,255,358,
0,568,657,153,253,355,
0,560,647,152,251,384,
0,553,638,167,248,409,
0,547,630,165,246,406,
0,541,621,163,244,401,
0,535,613,162,242,396,
0,527,605,160,240,391,
0,521,681,159,263,388,
0,590,671,158,259,384,
0,582,662,157,257,381,
0,575,652,156,255,377,
0,568,641,155,252,417,
0,561,632,177,251,412,
0,555,624,175,248,408,
0,547,615,174,246,403,
0,540,608,172,244,399,
0,534,600,171,242,395,
0,527,679,169,249,391,
0,585,669,167,248,387,
0,578,659,166,246,384,
0,571,651,165,243,380,
0,563,639,164,240,415,
0,557,631,163,239,409,
0,551,623,161,236,406,
0,543,615,160,235,401,
0,536,607,159,233,397,
0,529,599,158,235,391,
0,581,623,156,259,388,
0,598,614,155,257,384,
0,590,606,155,255,382,
0,583,598,153,252,377,
0,575,588,159,249,412,
0,568,580,157,248,407,
0,561,574,156,246,403,
0,555,568,154,243,399,
0,547,560,153,241,395,
0,540,555,152,247,390,
0,590,625,150,248,386,
0,582,616,149,246,382,
0,574,608,148,243,378,
0,568,600,147,241,375,
0,560,590,163,239,408,
0,553,583,162,236,403,
0,547,575,160,235,399,
0,540,568,159,232,395,
0,532,561,158,231,391,
0,527,600,156,235,386,
0,588,639,155,231,382,
0,580,631,153,231,379,
0,574,622,155,228,375,
0,567,614,153,227,384,
0,560,604,171,225,404,
0,552,595,168,223,400,
0,546,588,167,221,396,
0,540,580,166,220,391,
0,531,574,164,217,388,
0,527,666,163,238,384,
0,595,655,161,236,380,
0,587,646,159,233,376,
0,580,637,159,231,372,
0,572,626,158,230,413,
0,566,617,166,227,408,
0,559,609,164,225,403,
0,552,601,163,224,399,
0,545,594,161,222,396,
0,538,587,160,220,391,
0,536,664,159,248,387,
0,584,654,157,246,384,
0,577,644,156,243,380,
0,570,636,156,241,376,
0,563,625,159,240,423,
0,556,616,158,237,419,
0,550,609,157,235,415,
0,543,601,156,232,411,
0,536,593,155,231,407,
0,529,585,153,231,403,
0,564,675,152,255,398,
0,579,664,151,254,393,
0,572,655,150,252,390,
0,565,646,148,249,386,
0,559,635,155,248,422,
0,551,627,153,244,417,
0,545,618,152,243,412,
0,539,610,151,241,408,
0,532,602,150,239,404,
0,525,595,148,270,400,
0,586,685,147,273,395,
0,578,675,146,271,391,
0,571,665,145,269,387,
0,563,655,143,267,384,
0,557,645,160,263,387,
0,550,636,159,262,384,
0,543,628,157,259,380,
0,537,620,156,257,376,
0,531,611,155,255,372,
0,524,642,153,265,369,
0,584,664,152,263,364,
0,577,655,151,260,361,
0,570,647,150,259,358,
0,563,637,148,255,371,
0,556,627,159,254,393,
0,550,619,158,252,390,
0,543,611,157,249,385,
0,536,603,156,248,382,
0,531,595,155,246,377,
0,524,671,152,265,375,
0,587,660,152,263,369,
0,579,652,151,261,366,
0,572,643,152,259,363,
0,565,633,151,256,384,
0,558,623,162,255,380,
0,551,615,161,252,376,
0,545,607,159,249,372,
0,539,600,158,248,368,
0,532,591,157,246,365,
0,527,668,156,264,361,
0,587,657,154,262,358,
0,579,647,153,259,354,
0,572,639,161,257,352,
0,564,631,159,255,400,
0,558,620,159,253,396,
0,551,612,157,251,391,
0,544,604,156,248,387,
0,539,596,155,247,384,
0,532,589,153,244,380,
0,615,583,152,246,376,
0,635,575,151,244,371,
0,627,568,163,242,368,
0,619,561,162,240,364,
0,611,555,175,238,408,
0,603,547,173,236,404,
0,595,541,172,234,399,
0,588,535,170,231,396,
0,582,529,168,231,391,
0,575,524,167,231,388,
0,652,581,166,231,384,
0,643,574,164,230,380,
0,634,566,163,227,376,
0,626,559,161,225,372,
0,618,551,184,224,406,
0,610,543,183,222,401,
0,603,537,181,220,397,
0,595,531,179,219,393,
0,588,524,178,217,390,
0,582,587,177,248,385,
0,604,625,175,245,382,
0,595,615,174,243,377,
0,588,608,172,240,374,
0,580,600,171,239,390,
0,574,591,183,237,408,
0,568,583,181,234,403,
0,560,575,179,231,399,
0,554,568,178,231,395,
0,547,561,176,228,391,
0,542,631,175,262,387,
0,607,621,173,259,383,
0,599,612,172,257,379,
0,591,604,170,255,376,
0,583,596,169,252,376,
0,577,588,174,251,371,
0,569,579,172,248,368,
0,563,572,171,246,365,
0,556,566,169,243,361,
0,550,558,167,241,359,
0,543,634,167,240,355,
0,605,625,165,239,351,
0,597,615,163,237,348,
0,590,608,163,235,344,
0,582,600,163,233,391,
0,575,592,163,231,387,
0,568,583,161,229,384,
0,561,575,159,227,380,
0,555,568,159,225,376,
0,548,561,157,227,372,
0,542,622,156,254,368,
0,613,612,155,252,364,
0,605,604,153,249,360,
0,598,596,152,247,358,
0,591,589,160,245,403,
0,583,581,159,243,399,
0,575,572,158,240,396,
0,569,566,156,239,391,
0,563,559,155,236,387,
0,556,572,153,258,384,
0,591,667,152,257,380,
0,611,657,151,255,375,
0,604,647,150,252,371,
0,596,639,148,251,368,
0,589,631,156,248,408,
0,582,622,156,246,404,
0,575,611,154,243,399,
0,568,604,152,241,396,
0,561,596,152,240,391,
0,555,641,151,263,388,
0,614,643,149,260,384,
0,603,634,147,258,380,
0,595,626,147,255,376,
0,588,617,145,254,387,
0,580,609,161,252,423,
0,574,601,159,249,418,
0,567,591,158,247,414,
0,560,584,157,244,409,
0,553,577,156,243,406,
0,547,648,154,249,401,
0,622,639,152,248,397,
0,611,630,152,245,391,
0,604,622,150,243,388,
0,595,613,149,241,385,
0,588,605,155,239,382,
0,581,597,153,237,377,
0,574,588,152,235,374,
0,568,580,151,233,371,
0,560,573,150,231,368,
0,555,643,148,263,364,
0,616,632,147,259,359,
0,608,624,146,257,356,
0,600,615,145,255,353,
0,593,607,166,254,409,
0,585,600,188,251,404,
0,579,591,185,248,400,
0,572,583,184,246,396,
0,565,575,183,244,391,
0,559,568,181,243,388,
0,551,701,179,243,384,
0,612,690,177,242,381,
0,604,679,176,240,376,
0,597,671,175,238,372,
0,590,662,173,236,415,
0,582,652,172,233,411,
0,575,643,171,231,407,
0,568,633,169,230,402,
0,561,625,167,228,398,
0,555,617,167,235,395,
0,595,659,166,233,391,
0,620,649,163,231,387,
0,612,641,163,230,382,
0,604,632,161,227,379,
0,598,624,161,226,430,
0,590,615,159,224,425,
0,583,608,159,222,420,
0,575,598,158,220,415,
0,568,591,156,218,412,
0,562,633,156,240,408,
0,612,647,154,238,403,
0,601,637,152,236,399,
0,595,628,152,233,395,
0,587,620,150,231,407,
0,579,611,158,230,439,
0,572,604,156,227,434,
0,566,596,155,226,430,
0,559,587,153,224,425,
0,552,579,152,222,420,
0,547,639,152,238,416,
0,622,631,150,235,412,
0,611,622,149,233,408,
0,604,614,147,231,403,
0,596,605,147,230,436,
0,588,598,160,227,431,
0,582,590,159,225,426,
0,575,580,158,224,422,
0,568,573,156,221,417,
0,561,567,155,220,414,
0,555,646,154,238,409,
0,627,636,152,236,405,
0,615,627,152,233,401,
0,608,619,150,231,396,
0,600,610,156,230,451,
0,593,602,155,227,445,
0,585,595,154,225,440,
0,579,585,152,224,435,
0,572,577,152,222,431,
0,565,571,150,220,427,
0,559,623,149,224,423,
0,627,614,147,222,418,
0,617,606,147,220,414,
0,609,597,145,217,409,
0,601,590,159,216,467,
0,594,582,158,215,461,
0,587,575,156,213,455,
0,579,566,155,211,451,
0,573,560,153,209,447,
0,567,557,152,249,441,
0,594,622,151,247,438,
0,604,612,150,244,432,
0,595,604,148,242,428,
0,588,596,147,240,423,
0,580,589,158,238,429,
0,573,582,156,236,424,
0,566,574,155,234,420,
0,560,565,153,231,416,
0,553,559,152,230,412,
0,547,594,152,252,408,
0,627,593,150,249,404,
0,617,585,149,248,400,
0,608,578,169,246,397,
0,600,571,167,243,408,
0,592,563,167,241,436,
0,585,556,166,240,432,
0,578,550,164,237,427,
0,572,542,163,236,423,
0,564,536,161,233,418,
0,559,635,159,246,414,
0,629,625,159,243,409,
0,620,615,158,241,406,
0,610,608,156,240,401,
0,603,600,155,237,435,
0,595,591,159,236,430,
0,588,584,157,233,424,
0,580,577,156,231,420,
0,574,568,155,230,415,
0,567,561,153,227,412,
0,560,639,152,240,408,
0,622,631,151,238,403,
0,614,622,150,236,399,
0,604,614,148,235,396,
0,596,606,156,232,432,
0,589,598,155,231,427,
0,582,590,153,228,422,
0,575,583,152,227,417,
0,568,574,151,225,414,
0,561,567,150,224,409,
0,555,632,148,238,405,
0,614,623,147,236,401,
0,606,615,145,234,397,
0,595,607,144,231,393,
0,588,600,167,231,444,
0,582,591,166,228,440,
0,574,583,163,227,435,
0,568,575,162,225,430,
0,561,568,161,222,425,
0,555,586,159,239,422,
0,600,675,159,238,417,
0,627,665,157,236,413,
0,619,655,156,233,408,
0,608,647,154,231,404,
0,601,639,153,230,412,
0,593,630,152,227,408,
0,587,622,151,226,403,
0,579,614,150,224,399,
0,572,604,148,222,396,
0,566,649,147,240,391,
0,610,656,145,237,388,
0,601,647,145,235,385,
0,593,639,143,233,382,
0,584,630,142,231,377,
0,577,622,164,229,417,
0,570,613,163,227,412,
0,563,606,161,225,408,
0,557,598,159,224,403,
0,551,588,159,221,399,
0,544,657,157,238,396,
0,617,647,156,235,391,
0,609,638,155,233,388,
0,601,630,153,231,384,
0,591,622,152,230,399,
0,584,613,193,227,396,
0,577,605,191,225,391,
0,571,597,189,224,387,
0,564,590,188,222,384,
0,557,580,185,220,380,
0,551,655,184,238,376,
0,594,646,183,236,373,
0,587,636,182,234,369,
0,579,627,180,231,366,
0,570,620,179,230,417,
0,563,611,177,228,412,
0,556,604,176,227,408,
0,550,595,175,224,404,
0,543,588,173,223,399,
0,537,579,172,221,396,
0,534,608,170,240,391,
0,611,599,169,238,388,
0,604,591,167,236,384,
0,595,583,166,234,381,
0,587,575,170,231,412,
0,579,568,168,231,407,
0,572,562,167,228,403,
0,566,556,166,227,399,
0,559,550,164,224,395,
0,552,543,163,237,391,
0,595,614,162,236,387,
0,611,606,161,233,384,
0,603,598,159,231,380,
0,595,590,158,230,376,
0,586,583,162,227,423,
0,579,575,161,225,419,
0,572,568,159,224,415,
0,564,560,158,222,411,
0,558,553,157,220,407,
0,551,608,156,242,403,
0,610,620,155,240,399,
0,601,611,153,238,395,
0,594,604,152,236,391,
0,587,595,152,233,387,
0,577,588,167,231,435,
0,571,580,167,230,432,
0,563,573,166,227,427,
0,557,566,164,225,423,
0,551,559,163,224,418,
0,544,647,161,251,414,
0,604,638,159,248,409,
0,596,629,159,246,406,
0,588,620,158,243,401,
0,581,612,156,241,399,
0,572,604,155,240,440,
0,566,596,153,238,435,
0,559,588,152,236,431,
0,551,582,152,233,427,
0,545,574,150,231,423,
0,540,665,149,239,418,
0,593,655,148,237,414,
0,585,646,147,235,409,
0,578,638,145,233,406,
0,569,628,144,231,448,
0,562,620,157,229,440,
0,556,612,156,227,436,
0,549,604,154,225,432,
0,543,596,153,224,427,
0,536,589,152,222,423,
0,531,649,151,250,418,
0,607,639,150,248,414,
0,599,632,148,246,410,
0,591,623,147,243,406,
0,582,615,153,241,445,
0,575,606,152,240,438,
0,568,599,152,238,433,
0,561,591,151,236,429,
0,555,583,149,233,424,
0,548,575,147,231,420,
0,575,615,147,248,415,
0,600,607,145,246,412,
0,591,598,144,244,408,
0,584,591,143,242,403,
0,575,583,151,240,431,
0,568,575,149,238,425,
0,562,568,147,236,420,
0,556,561,147,233,415,
0,548,555,145,231,412,
0,543,557,144,248,408,
0,606,647,143,248,403,
0,596,638,142,247,399,
0,590,630,141,243,396,
0,582,621,140,241,391,
0,573,612,155,240,440,
0,566,605,153,238,433,
0,560,597,152,236,429,
0,552,590,151,233,423,
0,546,582,150,231,420,
0,540,627,148,273,415,
0,620,654,147,270,412,
0,611,645,145,267,408,
0,604,636,162,265,403,
0,596,627,160,263,419,
0,587,620,161,260,467,
0,580,611,159,258,460,
0,573,603,158,255,455,
0,567,595,156,254,451,
0,560,588,155,252,446,
0,553,652,154,252,441,
0,598,643,152,249,437,
0,590,633,152,248,432,
0,582,625,151,245,428,
0,575,616,149,243,425,
0,567,608,184,241,422,
0,560,600,181,239,415,
0,553,593,179,238,412,
0,547,585,178,236,408,
0,540,578,176,233,404,
0,536,662,175,248,400,
0,607,652,174,244,397,
0,600,643,172,242,393,
0,591,633,171,240,390,
0,583,625,174,238,390,
0,575,616,172,236,385,
0,568,608,171,234,381,
0,561,600,169,231,377,
0,555,593,167,231,375,
0,548,585,167,229,371,
0,582,644,165,249,368,
0,612,635,163,247,364,
0,604,626,163,244,361,
0,597,617,161,242,358,
0,590,609,159,240,408,
0,580,601,159,238,403,
0,574,593,157,236,398,
0,567,586,156,234,393,
0,560,579,155,231,390,
0,553,572,153,243,387,
0,620,655,152,246,383,
0,611,647,152,243,379,
0,603,638,150,240,376,
0,595,630,149,239,371,
0,588,621,152,236,415,
0,579,613,151,235,411,
0,572,605,150,233,405,
0,566,598,148,231,401,
0,559,590,147,229,397,
0,553,624,146,263,393,
0,606,637,145,259,389,
0,598,628,143,255,385,
0,590,620,143,255,382,
0,583,611,141,252,379,
0,575,604,151,249,380,
0,567,595,149,248,376,
0,560,588,147,246,371,
0,553,581,147,243,368,
0,547,574,145,241,364,
0,541,655,143,248,361,
0,607,643,143,245,358,
0,599,634,142,242,355,
0,591,626,147,240,352,
0,583,617,145,238,394,
0,575,609,156,236,391,
0,568,601,155,235,387,
0,561,594,153,232,382,
0,555,587,152,231,378,
0,547,579,151,229,375,
0,543,671,150,265,371,
0,615,658,148,262,368,
0,606,649,147,259,364,
0,599,639,146,257,359,
0,591,632,159,255,409,
0,583,623,162,252,406,
0,575,615,160,251,401,
0,568,607,159,248,396,
0,561,599,158,246,391,
0,555,591,156,246,388,
0,588,657,155,270,384,
0,606,646,153,267,380,
0,598,636,152,263,376,
0,591,627,152,262,373,
0,583,620,158,259,423,
0,575,611,156,257,418,
0,568,604,155,255,414,
0,561,595,153,253,408,
0,554,588,152,251,404,
0,547,581,152,251,400,
0,609,652,150,251,396,
0,600,639,148,248,391,
0,593,632,147,247,388,
0,585,623,146,244,385,
0,579,615,167,242,425,
0,571,607,166,240,420,
0,563,599,163,239,415,
0,556,591,162,236,411,
0,549,583,161,235,407,
0,543,611,159,248,403,
0,609,624,158,245,398,
0,601,614,157,243,395,
0,593,605,156,240,391,
0,585,598,155,239,387,
0,579,590,164,236,416,
0,572,582,163,235,412,
0,563,575,160,232,407,
0,556,568,159,231,403,
0,550,561,158,229,399,
0,543,657,157,233,394,
0,585,647,155,231,391,
0,578,636,154,230,387,
0,571,627,152,227,384,
0,563,619,152,226,432,
0,557,611,165,224,427,
0,551,603,163,222,422,
0,542,595,161,220,415,
0,536,588,160,219,412,
0,530,580,159,217,408,
0,527,638,158,244,403,
0,614,628,156,241,399,
0,606,617,155,239,396,
0,598,609,153,237,391,
0,590,601,156,235,440,
0,583,593,155,233,435,
0,575,585,154,231,430,
0,568,579,152,230,423,
0,560,572,151,227,419,
0,554,564,150,225,415,
0,569,624,148,225,412,
0,590,615,147,224,408,
0,583,605,147,222,403,
0,575,596,150,220,399,
0,568,589,149,218,399,
0,561,581,147,216,396,
0,555,574,147,215,391,
0,547,567,145,213,387,
0,540,560,144,211,384,
0,534,553,143,236,380,
0,615,633,142,241,376,
0,606,624,141,239,373,
0,598,614,140,236,370,
0,590,606,139,235,367,
0,583,598,166,231,413,
0,575,590,164,231,408,
0,568,583,163,228,404,
0,560,575,161,227,399,
0,553,568,159,224,395,
0,547,574,158,241,391,
0,605,582,157,239,387,
0,597,574,156,237,384,
0,590,565,154,235,380,
0,582,558,153,231,376,
0,575,551,172,231,409,
0,568,545,170,228,404,
0,561,539,168,227,400,
0,552,532,167,225,396,
0,546,527,166,223,391,
0,540,620,164,248,387,
0,611,611,163,246,384,
0,603,602,161,243,380,
0,595,591,160,241,377,
0,588,584,159,239,419,
0,580,577,182,237,413,
0,574,569,180,235,408,
0,565,563,179,233,404,
0,558,556,176,231,399,
0,551,550,175,230,396,
0,545,615,174,247,391,
0,608,606,172,243,387,
0,600,598,185,241,384,
0,591,588,184,239,380,
0,584,580,182,237,376,
0,577,573,180,235,373,
0,571,566,179,233,369,
0,562,559,177,231,366,
0,556,551,176,230,362,
0,549,545,175,227,359,
0,590,611,173,241,355,
0,611,603,171,240,352,
0,604,594,170,238,350,
0,596,584,168,235,347,
0,588,577,171,233,393,
0,582,569,169,231,389,
0,574,563,167,230,385,
0,566,556,166,227,380,
0,559,549,164,225,376,
0,552,543,163,238,372,
0,621,611,161,239,369,
0,612,602,160,236,365,
0,604,594,159,235,362,
0,596,584,158,231,359,
0,590,577,179,230,408,
0,582,569,177,228,403,
0,575,563,176,227,399,
0,566,556,174,225,395,
0,560,549,172,223,390,
0,553,575,172,242,386,
0,633,576,169,240,382,
0,624,568,168,238,379,
0,616,561,167,236,375,
0,608,553,166,233,385,
0,601,546,164,231,419,
0,593,540,163,229,414,
0,587,533,162,227,409,
0,577,527,161,225,405,
0,571,521,159,224,399,
0,564,590,158,224,396,
0,613,582,157,223,391,
0,605,574,156,220,388,
0,598,565,159,219,384,
0,590,558,158,217,433,
0,583,551,198,215,428,
0,575,543,196,214,423,
0,568,537,195,211,419,
0,560,531,193,210,414,
0,553,524,191,208,409,
0,547,572,189,248,404,
0,579,564,188,244,401,
0,571,557,186,243,397,
0,564,548,184,240,393,
0,557,542,184,238,434,
0,551,535,182,236,428,
0,543,527,180,233,423,
0,538,522,179,231,420,
0,531,516,177,230,415,
0,525,511,176,228,411,
0,584,586,174,242,407,
0,611,577,173,240,402,
0,603,570,172,238,399,
0,595,561,171,236,395,
0,588,554,170,233,432,
0,580,547,169,231,428,
0,574,540,167,230,423,
0,567,534,167,227,419,
0,558,527,165,226,415,
0,551,521,163,236,409,
0,625,586,162,238,405,
0,615,578,161,236,401,
0,608,571,159,233,397,
0,600,561,159,231,393,
0,593,554,161,229,440,
0,585,547,159,227,435,
0,579,540,159,225,430,
0,572,535,158,224,425,
0,563,527,156,222,422,
0,557,583,155,233,415,
0,621,613,153,231,412,
0,612,604,152,228,408,
0,605,596,152,227,415,
0,597,587,150,224,409,
0,590,579,152,223,406,
0,583,572,150,220,401,
0,575,565,149,219,398,
0,568,558,148,217,394,
0,560,551,147,216,391,
0,554,657,146,235,385,
0,609,647,144,231,382,
0,601,638,143,231,379,
0,593,629,143,228,376,
0,586,619,141,226,400,
0,579,610,152,224,396,
0,572,603,152,222,391,
0,566,595,150,220,387,
0,559,588,148,219,384,
0,551,580,147,216,380,
0,544,655,146,231,376,
0,617,647,144,228,372,
0,609,637,143,227,368,
0,601,628,143,225,365,
0,593,619,152,223,413,
0,587,610,157,220,408,
0,579,602,156,219,403,
0,572,595,154,216,399,
0,566,587,153,216,396,
0,557,579,152,215,391,
0,585,678,151,239,387,
0,603,667,148,237,384,
0,595,657,148,235,380,
0,588,648,147,233,376,
0,581,638,163,231,430,
0,574,630,161,228,424,
0,568,621,160,227,420,
0,560,613,159,224,415,
0,553,605,158,223,412,
0,545,598,156,261,408,
0,585,644,155,265,402,
0,578,635,153,263,399,
0,571,627,152,260,395,
0,563,618,151,258,391,
0,558,608,176,255,440,
0,551,600,174,253,434,
0,543,592,172,251,430,
0,537,585,171,248,425,
0,531,578,169,247,420,
0,524,631,167,255,416,
0,608,655,166,253,411,
0,600,646,165,251,407,
0,591,637,163,248,403,
0,584,628,162,246,408,
0,577,617,171,243,439,
0,571,609,169,241,433,
0,563,601,167,240,429,
0,557,594,167,238,423,
0,551,587,166,236,420,
0,543,579,163,249,415,
0,622,572,162,248,411,
0,614,566,161,245,407,
0,605,559,159,243,403,
0,598,551,158,241,441,
0,590,544,161,238,435,
0,583,538,159,236,431,
0,575,532,159,235,426,
0,569,526,157,231,422,
0,563,520,156,231,418,
0,555,622,155,248,412,
0,619,612,153,246,408,
0,610,604,152,243,404,
0,603,596,151,241,400,
0,595,588,163,240,438,
0,588,579,163,236,433,
0,580,572,161,235,428,
0,573,565,159,233,423,
0,567,558,159,231,419,
0,560,551,158,230,415,
0,600,611,156,246,410,
0,611,602,155,243,406,
0,604,594,153,241,402,
0,595,587,152,239,398,
0,588,579,172,237,395,
0,581,570,171,235,391,
0,574,563,169,231,387,
0,567,556,167,231,384,
0,560,550,166,228,380,
0,553,565,164,248,376,
0,620,652,163,252,371,
0,611,642,161,250,368,
0,603,633,160,248,365,
0,595,624,159,246,362,
0,588,616,161,243,396,
0,580,606,159,241,391,
0,574,599,159,239,387,
0,568,591,157,237,384,
0,560,583,156,235,380,
0,553,639,155,248,377,
0,611,671,153,245,372,
0,604,662,152,243,368,
0,595,652,152,241,365,
0,588,643,151,239,371,
0,582,635,154,236,411,
0,574,624,152,234,406,
0,568,615,152,231,401,
0,560,608,151,231,398,
0,554,600,149,228,393,
0,547,660,147,243,390,
0,588,649,147,240,385,
0,580,639,145,238,382,
0,573,632,144,236,377,
0,566,624,143,233,416,
0,559,615,155,231,411,
0,552,605,153,230,407,
0,546,598,152,227,403,
0,540,590,152,226,399,
0,534,583,150,224,395,
0,529,639,148,236,391,
0,614,631,147,233,385,
0,606,622,146,231,382,
0,598,614,145,230,378,
0,591,605,149,227,375,
0,583,598,151,226,371,
0,575,588,150,224,368,
0,569,580,148,222,364,
0,563,574,147,220,361,
0,556,567,146,222,359,
0,567,654,145,267,355,
0,595,643,143,263,351,
0,587,635,142,262,348,
0,579,626,141,259,344,
0,572,617,169,257,396,
0,566,609,167,255,391,
0,559,600,166,252,387,
0,551,591,164,250,384,
0,545,584,163,248,380,
0,539,577,161,246,376,
0,579,611,159,244,372,
0,572,603,158,242,368,
0,564,595,157,240,364,
0,557,588,156,238,361,
0,551,580,164,236,419,
0,543,572,163,235,415,
0,537,564,161,231,411,
0,531,558,160,230,406,
0,526,551,159,228,402,
0,519,619,158,247,398,
0,580,650,156,243,393,
0,572,639,155,241,390,
0,566,632,154,240,385,
0,559,624,152,238,383,
0,551,615,160,236,413,
0,545,607,159,233,408,
0,539,598,158,231,404,
0,532,590,156,230,399,
0,527,582,155,227,396,
0,520,600,153,240,391,
0,601,591,152,237,388,
0,593,583,151,235,384,
0,586,575,151,233,380,
0,579,568,150,231,429,
0,572,561,171,229,423,
0,564,553,168,227,419,
0,558,547,167,225,414,
0,551,541,166,224,409,
0,545,535,164,222,406,
0,539,615,163,238,401,
0,615,607,162,236,398,
0,608,599,159,233,392,
0,600,591,159,231,389,
0,591,583,167,230,407,
0,585,575,167,227,403,
0,577,567,166,225,398,
0,571,560,164,224,394,
0,564,553,163,222,391,
0,558,547,161,222,387,
0,551,609,160,243,384,
0,595,601,159,241,379,
0,587,593,157,239,375,
0,579,585,156,237,371,
0,572,577,174,235,369,
0,566,571,172,233,366,
0,559,561,171,231,363,
0,551,555,169,228,359,
0,545,548,167,227,356,
0,540,553,167,249,353,
0,577,632,166,248,350,
0,605,622,164,246,347,
0,598,614,182,243,344,
0,590,606,180,241,340,
0,583,598,179,240,390,
0,575,590,177,238,386,
0,568,580,176,236,382,
0,561,573,174,233,378,
0,555,566,173,231,375,
0,548,604,172,238,371,
0,614,619,170,236,367,
0,603,610,167,233,364,
0,595,601,167,231,359,
0,588,593,166,229,366,
0,580,586,172,227,401,
0,574,579,171,225,397,
0,567,569,169,224,393,
0,560,563,167,222,390,
0,553,556,167,220,385,
0,547,649,165,248,382,
0,599,639,163,246,377,
0,588,631,162,243,375,
0,580,622,161,241,369,
0,573,613,159,239,402,
0,567,605,161,237,397,
0,560,598,159,235,392,
0,553,588,159,232,388,
0,547,580,157,231,384,
0,540,574,156,228,381,
0,535,639,155,246,377,
0,609,629,153,243,374,
0,599,620,152,241,371,
0,591,612,152,239,366,
0,583,604,154,236,363,
0,576,596,153,235,359,
0,569,588,152,232,355,
0,563,579,151,231,353,
0,556,572,149,228,350,
0,550,566,148,227,347,
0,543,643,147,250,344,
0,600,633,145,248,340,
0,590,624,144,246,337,
0,583,615,143,243,334,
0,575,608,153,241,384,
0,568,600,152,239,380,
0,561,591,151,237,376,
0,555,583,150,235,372,
0,548,575,148,233,368,
0,542,568,147,235,365,
0,566,604,146,233,361,
0,600,596,145,231,358,
0,590,588,143,230,355,
0,583,581,142,228,351,
0,575,574,147,227,408,
0,568,567,145,224,403,
0,561,560,143,223,399,
0,555,551,143,220,395,
0,548,545,142,219,391,
0,542,601,140,235,387,
0,595,628,140,232,384,
0,588,620,139,231,380,
0,578,611,137,228,376,
0,571,604,135,227,372,
0,564,595,135,225,399,
0,557,588,135,223,396,
0,551,580,134,221,391,
0,543,571,133,219,387,
0,537,564,132,217,384,
0,532,662,131,233,380,
0,588,652,130,231,376,
0,579,643,129,230,373,
0,571,633,132,227,368,
0,563,625,131,225,422,
0,557,616,145,224,415,
0,550,608,144,222,412,
0,543,600,143,220,408,
0,537,591,142,218,403,
0,531,583,140,216,399,
0,526,653,140,240,395,
0,589,643,138,238,391,
0,582,634,137,236,387,
0,572,626,135,233,383,
0,565,617,147,231,417,
0,559,609,145,230,412,
0,551,601,144,227,408,
0,545,593,143,226,403,
0,539,583,142,224,399,
0,532,577,141,225,396,
0,527,647,140,253,391,
0,600,638,139,250,388,
0,591,629,137,248,384,
0,583,621,135,246,380,
0,575,613,167,244,439,
0,568,604,164,242,434,
0,561,596,163,240,429,
0,555,589,161,238,423,
0,548,580,160,236,420,
0,542,573,159,252,415,
0,561,642,158,252,412,
0,591,632,156,249,408,
0,583,624,155,248,403,
0,574,615,153,246,399,
0,568,608,184,243,448,
0,560,600,183,241,444,
0,553,591,181,239,439,
0,547,585,179,238,435,
0,540,575,177,235,430,
0,535,625,176,248,425,
0,618,632,175,246,421,
0,608,623,173,243,417,
0,601,615,172,241,413,
0,591,606,171,240,427,
0,583,598,168,238,467,
0,577,591,167,236,462,
0,571,583,166,233,457,
0,563,575,165,231,452,
0,556,567,163,230,448,
0,551,656,163,246,443,
0,620,646,161,243,439,
0,611,637,159,241,434,
0,603,628,159,240,430,
0,593,620,157,238,427,
0,585,611,187,235,422,
0,579,604,185,233,417,
0,572,595,184,231,414,
0,564,588,182,230,409,
0,558,579,180,227,406,
0,551,643,179,241,402,
0,589,635,177,240,398,
0,581,625,176,237,395,
0,572,617,175,236,391,
0,566,609,174,233,423,
0,558,600,172,231,417,
0,551,593,171,230,413,
0,545,585,169,227,409,
0,540,579,167,225,404,
0,533,569,167,224,401,
0,531,610,166,240,396,
0,614,601,164,238,392,
0,606,593,163,236,389,
0,596,585,162,234,385,
0,589,577,160,231,381,
0,582,571,159,231,377,
0,575,563,158,228,375,
0,568,556,156,227,371,
0,561,551,156,224,368,
0,555,543,155,243,364,
0,575,612,153,243,361,
0,591,604,152,240,358,
0,583,595,151,238,355,
0,575,588,150,236,352,
0,568,580,165,235,410,
0,561,573,163,231,406,
0,555,566,162,231,401,
0,548,559,160,228,397,
0,542,551,159,227,393,
0,536,574,158,240,390,
0,603,583,156,237,385,
0,594,575,156,235,382,
0,587,568,154,233,378,
0,577,561,152,231,375,
0,571,555,156,229,423,
0,563,547,155,227,419,
0,556,541,153,225,415,
0,550,535,152,224,411,
0,543,529,151,222,407,
0,537,590,150,242,403,
0,591,582,148,240,399,
0,583,574,147,237,395,
0,576,567,146,236,391,
0,568,559,145,233,387,
0,560,551,153,231,419,
0,554,545,152,230,415,
0,547,539,151,227,411,
0,541,532,150,225,407,
0,535,524,148,224,403,
0,529,626,147,258,399,
0,604,616,147,255,395,
0,595,608,145,253,391,
0,588,600,144,251,387,
0,579,591,143,249,435,
0,572,584,149,247,432,
0,566,577,147,244,427,
0,559,570,147,243,423,
0,551,563,145,240,418,
0,545,555,144,239,414,
0,540,659,143,247,409,
0,611,649,142,244,406,
0,603,639,141,243,401,
0,595,632,140,240,398,
0,585,623,150,239,441,
0,579,615,151,236,435,
0,572,607,149,235,431,
0,565,599,147,232,425,
0,558,591,147,231,422,
0,551,588,146,229,417,
0,595,643,144,255,413,
0,615,634,143,253,409,
0,606,625,143,251,405,
0,599,617,142,248,401,
0,590,609,167,246,428,
0,582,600,167,244,422,
0,575,593,164,242,417,
0,568,585,163,240,413,
0,561,579,161,238,408,
0,555,636,161,239,405,
0,587,655,159,238,401,
0,578,646,158,236,397,
0,571,638,157,233,393,
0,563,628,156,231,390,
0,556,620,198,230,404,
0,549,612,195,228,399,
0,543,604,193,226,395,
0,536,596,192,224,391,
0,531,589,191,223,387,
0,525,629,189,244,384,
0,604,620,188,241,380,
0,596,611,185,239,376,
0,589,603,184,237,373,
0,582,595,183,235,376,
0,572,587,181,233,423,
0,566,580,179,231,417,
0,559,573,178,230,413,
0,551,566,176,227,409,
0,545,560,175,225,404,
0,540,671,175,284,401,
0,561,660,173,280,397,
0,555,651,172,278,393,
0,547,642,169,275,389,
0,541,633,169,273,387,
0,534,625,167,271,384,
0,527,616,166,268,379,
0,521,609,164,266,375,
0,515,601,163,263,371,
0,510,593,162,262,368,
0,505,673,161,272,365,
0,560,664,159,269,361,
0,553,654,159,267,359,
0,547,644,157,264,355,
0,540,636,157,263,414,
0,531,627,156,260,409,
0,526,619,155,259,403,
0,519,611,155,255,399,
0,514,604,153,254,395,
0,508,595,152,252,391,
0,540,684,151,271,387,
0,561,675,150,268,384,
0,555,665,148,266,380,
0,547,655,147,263,376,
0,541,647,152,262,384,
0,533,638,150,259,380,
0,527,630,149,257,375,
0,521,622,147,255,371,
0,515,614,147,253,368,
0,510,606,145,268,364,
0,591,663,144,278,361,
0,583,653,143,275,358,
0,575,644,142,273,355,
0,568,636,141,271,352,
0,561,627,156,268,380,
0,552,619,153,266,376,
0,546,611,152,263,371,
0,540,603,151,262,367,
0,534,595,150,259,364,
0,527,615,148,265,359,
0,562,663,147,262,356,
0,555,653,146,259,353,
0,548,644,145,257,351,
0,541,636,143,255,348,
0,535,627,143,253,394,
0,527,619,142,252,388,
0,521,611,141,249,385,
0,515,603,140,248,381,
0,510,595,139,245,377,
0,504,682,139,270,374,
0,546,675,137,266,369,
0,539,665,135,263,367,
0,532,656,135,262,363,
0,526,647,134,259,412,
0,519,639,147,257,408,
0,512,630,146,255,403,
0,507,622,145,252,398,
0,502,614,143,251,394,
0,496,606,143,249,391,
0,492,696,142,263,387,
0,560,683,140,259,383,
0,552,673,139,257,379,
0,545,664,138,255,376,
0,539,655,142,253,387,
0,532,646,143,252,383,
0,524,637,142,249,377,
0,519,628,140,248,374,
0,513,620,139,245,371,
0,508,612,139,243,367,
0,552,704,137,268,364,
0,579,689,135,265,359,
0,571,679,135,263,357,
0,564,670,134,260,353,
0,557,661,169,259,417,
0,551,652,167,255,412,
0,542,643,165,254,408,
0,536,635,163,252,403,
0,529,627,162,249,399,
0,524,619,161,248,395,
0,532,702,159,248,391,
0,525,688,158,246,387,
0,519,679,158,243,384,
0,513,670,156,241,380,
0,508,660,167,240,421,
0,503,652,166,238,415,
0,496,643,164,236,411,
0,491,634,163,233,407,
0,486,626,161,231,403,
0,481,636,159,262,399,
0,573,668,159,259,395,
0,566,656,157,255,391,
0,558,647,156,254,387,
0,551,639,155,252,384,
0,544,630,158,249,408,
0,538,622,156,248,403,
0,530,614,155,246,399,
0,524,606,153,243,395,
0,519,599,152,241,391,
0,513,681,151,255,387,
0,569,670,150,252,384,
0,563,658,148,249,380,
0,556,649,147,248,376,
0,548,639,147,246,414,
0,542,632,155,243,408,
0,534,624,153,241,404,
0,527,615,152,240,399,
0,521,608,151,238,395,
0,516,600,150,236,391,
0,511,688,148,246,387,
0,576,678,147,243,384,
0,569,666,145,241,380,
0,562,656,144,239,376,
0,555,647,143,237,390,
0,548,639,143,235,385,
0,540,631,142,233,382,
0,534,623,141,231,377,
0,527,615,140,230,374,
0,521,607,139,228,370,
0,559,694,137,271,367,
0,579,683,136,269,363,
0,572,671,135,266,359,
0,566,662,135,263,356,
0,558,653,140,262,396,
0,551,643,138,259,391,
0,543,636,137,257,387,
0,537,627,135,255,383,
0,531,619,135,253,379,
0,525,611,134,263,376,
0,552,689,132,264,371,
0,545,679,131,263,368,
0,539,667,131,259,364,
0,532,657,129,257,360,
0,526,648,142,255,398,
0,519,639,140,253,393,
0,512,632,140,251,390,
0,507,624,138,248,384,
0,502,615,136,247,381,
0,496,641,135,273,377,
0,580,688,135,271,374,
0,572,678,134,268,369,
0,565,665,132,265,366,
0,558,656,131,263,364,
0,551,647,140,260,412,
0,544,639,139,259,408,
0,536,631,138,255,403,
0,531,622,135,254,398,
0,524,614,135,252,394,
0,519,697,134,285,390,
0,585,687,133,281,386,
0,577,674,131,279,383,
0,571,665,131,275,379,
0,563,655,130,273,376,
0,556,647,145,271,371,
0,550,639,143,269,368,
0,542,630,143,267,364,
0,536,622,141,264,360,
0,529,614,140,263,358,
0,524,691,139,269,354,
0,564,680,137,266,352,
0,558,668,136,263,348,
0,551,659,135,262,345,
0,543,651,143,259,399,
0,537,641,145,257,393,
0,531,633,143,255,390,
0,524,624,143,253,386,
0,518,616,141,251,381,
0,512,608,140,249,377,
0,553,664,139,262,374,
0,577,654,137,259,369,
0,569,642,135,257,367,
0,563,633,135,255,363,
0,556,625,162,252,439,
0,550,616,159,251,433,
0,543,608,159,248,428,
0,535,601,158,247,423,
0,528,593,156,244,419,
0,523,587,155,280,415,
0,585,668,153,290,410,
0,577,659,152,287,406,
0,569,647,151,284,402,
0,563,639,150,281,398,
0,556,630,151,279,439,
0,550,622,150,277,433,
0,543,613,148,275,429,
0,536,606,147,271,423,
0,529,598,145,270,419,
0,523,624,144,271,415,
0,582,664,143,270,411,
0,574,655,142,267,407,
0,567,643,143,265,403,
0,560,635,142,263,399,
0,552,626,152,260,417,
0,546,617,151,258,412,
0,540,609,150,255,408,
0,531,601,148,254,404,
0,526,595,147,252,399,
0,519,688,146,269,396,
0,585,678,145,266,391,
0,577,668,143,263,387,
0,571,655,144,262,384,
0,563,647,143,259,409,
0,557,639,155,257,404,
0,550,630,153,255,400,
0,543,622,152,252,396,
0,536,614,150,250,392,
0,529,606,149,248,388,
0,524,692,147,250,384,
0,579,681,147,248,380,
0,571,671,145,246,376,
0,564,660,152,243,373,
0,557,652,167,241,383,
0,550,643,167,240,379,
0,543,634,166,238,375,
0,537,625,164,236,371,
0,529,617,163,234,368,
0,524,610,161,232,364,
0,557,683,160,248,359,
0,585,671,159,245,357,
0,578,663,158,243,354,
0,571,651,156,240,351,
0,564,642,166,239,356,
0,557,633,164,236,353,
0,551,625,163,235,350,
0,543,617,161,232,347,
0,536,609,159,231,344,
0,530,601,158,253,340,
0,571,699,157,258,337,
0,563,688,156,255,335,
0,556,679,154,254,332,
0,550,667,153,251,329,
0,543,657,159,248,371,
0,536,649,158,247,368,
0,531,639,156,244,364,
0,524,632,155,243,359,
0,517,624,153,240,356,
0,512,649,152,245,352,
0,591,688,151,243,349,
0,583,678,150,240,346,
0,577,668,148,239,343,
0,569,656,147,236,339,
0,563,647,152,234,337,
0,556,639,150,231,334,
0,550,631,148,231,332,
0,543,623,147,228,328,
0,535,615,146,227,326,
0,529,686,145,252,323,
0,593,675,143,249,319,
0,585,664,143,248,318,
0,578,655,142,246,315,
0,571,644,140,243,358,
0,563,636,145,241,359,
0,557,627,143,239,355,
0,551,619,143,237,352,
0,543,611,142,235,348,
0,536,604,140,233,344,
0,530,684,139,287,342,
0,591,673,138,285,338,
0,583,664,137,282,335,
0,575,655,135,280,332,
0,568,644,135,277,384,
0,562,635,135,275,380,
0,555,627,134,271,376,
0,548,619,132,270,371,
0,543,611,131,268,368,
0,535,603,131,265,364,
0,560,671,129,267,359,
0,580,662,128,263,356,
0,574,652,127,262,353,
0,567,643,127,259,351,
0,560,632,142,257,348,
0,553,624,141,255,344,
0,547,615,140,253,341,
0,540,608,139,251,338,
0,534,600,137,249,335,
0,526,592,135,265,332,
0,575,679,135,270,327,
0,567,668,134,267,326,
0,560,659,132,264,323,
0,553,650,131,263,319,
0,547,639,135,259,379,
0,540,631,134,257,375,
0,534,623,133,255,371,
0,527,614,131,253,367,
0,521,606,131,251,364,
0,515,631,129,260,359,
0,589,671,128,258,355,
0,581,661,127,255,352,
0,574,652,127,254,349,
0,567,643,126,252,359,
0,560,632,137,249,399,
0,553,624,135,247,396,
0,547,615,135,244,391,
0,540,608,134,243,387,
0,534,600,132,241,384,
0,527,680,131,259,379,
0,584,669,130,255,376,
0,577,659,129,255,371,
0,569,651,128,252,368,
0,563,641,127,250,364,
0,556,631,160,248,361,
0,550,623,159,245,358,
0,543,615,158,243,355,
0,536,607,156,241,352,
0,528,599,155,240,348,
0,523,699,153,253,344,
0,563,688,152,251,342,
0,556,678,151,248,339,
0,550,668,150,246,335,
0,543,659,158,244,386,
0,536,647,163,241,382,
0,529,639,162,240,377,
0,524,632,161,238,374,
0,518,623,159,236,370,
0,511,615,159,234,367,
0,561,688,156,254,362,
0,590,676,156,252,359,
0,583,667,154,249,355,
0,575,658,152,248,352,
0,568,649,157,245,389,
0,561,638,156,243,385,
0,555,630,155,240,381,
0,548,621,153,239,377,
0,542,614,152,236,374,
0,534,606,151,270,369,
0,594,679,149,270,366,
0,586,670,147,267,361,
0,579,660,147,264,359,
0,571,651,145,262,355,
0,564,643,151,260,352,
0,558,632,149,257,348,
0,551,623,147,255,345,
0,544,615,147,253,343,
0,537,607,145,251,339,
0,531,624,144,267,336,
0,579,654,143,263,332,
0,572,644,142,262,329,
0,564,636,140,259,327,
0,558,627,140,257,339,
0,551,619,153,255,376,
0,543,608,152,252,372,
0,537,600,150,250,368,
0,531,593,148,248,365,
0,526,586,147,246,361,
0,519,669,146,263,358,
0,585,658,145,262,353,
0,578,648,143,259,351,
0,571,639,146,257,347,
0,563,631,145,255,404,
0,556,620,164,253,399,
0,551,612,163,250,395,
0,543,604,161,248,391,
0,537,596,159,246,387,
0,531,590,159,243,383,
0,524,674,158,255,379,
0,598,664,156,254,374,
0,590,654,155,252,371,
0,583,646,156,249,367,
0,575,636,157,248,403,
0,568,625,156,246,399,
0,561,617,154,243,395,
0,555,609,153,241,391,
0,548,601,152,239,387,
0,542,595,151,238,384,
0,568,673,150,255,380,
0,591,663,147,253,375,
0,583,654,150,251,371,
0,575,644,148,248,368,
0,568,636,151,246,414,
0,561,625,150,244,408,
0,555,617,148,242,404,
0,548,609,147,240,400,
0,542,601,146,238,396,
0,536,594,145,244,392,
0,609,669,143,249,388,
0,600,659,142,247,384,
0,593,651,160,245,380,
0,585,641,159,243,376,
0,579,633,159,241,428,
0,571,622,158,239,423,
0,564,614,156,236,419,
0,558,606,155,235,415,
0,551,599,153,232,410,
0,545,627,152,259,406,
0,573,667,151,257,402,
0,566,657,150,255,397,
0,559,647,150,252,393,
0,551,639,148,251,396,
0,545,631,152,248,418,
0,539,620,150,246,414,
0,532,612,149,243,409,
0,527,604,147,241,406,
0,521,596,147,240,401,
0,515,703,145,254,397,
0,573,696,143,251,393,
0,566,685,143,248,388,
0,559,675,145,247,385,
0,551,665,143,244,404,
0,545,657,161,242,399,
0,539,646,159,240,396,
0,532,637,158,238,391,
0,526,629,156,236,388,
0,519,620,156,234,384,
0,515,663,154,260,380,
0,583,653,152,258,377,
0,576,643,152,255,372,
0,569,636,152,254,369,
0,563,627,161,252,409,
0,556,618,161,249,404,
0,549,608,160,248,400,
0,543,600,159,244,396,
0,536,593,158,242,391,
0,530,586,156,240,388,
0,524,676,155,259,384,
0,602,665,153,257,380,
0,595,655,156,255,376,
0,587,647,155,252,372,
0,579,639,169,251,369,
0,572,630,167,248,366,
0,566,620,166,246,363,
0,560,611,164,243,359,
0,552,604,163,242,356,
0,546,596,161,287,353,
0,543,692,160,295,350,
0,564,683,158,292,347,
0,558,672,158,290,344,
0,551,664,156,287,340,
0,543,655,159,285,372,
0,537,646,158,283,368,
0,531,635,157,280,365,
0,526,627,156,278,361,
0,519,619,154,275,358,
0,514,652,153,275,355,
0,584,691,152,272,352,
0,574,681,150,270,348,
0,567,671,149,268,344,
0,560,663,148,266,355,
0,553,654,161,263,382,
0,546,644,159,262,378,
0,540,633,158,259,374,
0,534,625,156,257,371,
0,527,617,155,255,367,
0,521,679,154,262,364,
0,593,668,152,259,359,
0,583,659,152,257,355,
0,575,649,150,255,352,
0,568,639,149,253,391,
0,562,632,172,251,386,
0,556,624,171,249,382,
0,549,614,168,247,378,
0,543,606,167,244,375,
0,536,598,166,243,371,
0,531,655,164,255,368,
0,607,645,163,254,364,
0,596,636,162,252,359,
0,589,627,160,249,355,
0,582,619,165,248,353,
0,575,611,165,245,350,
0,568,603,163,243,347,
0,560,593,162,241,344,
0,554,586,161,239,340,
0,547,579,159,238,337,
0,542,671,159,244,334,
0,600,662,157,242,332,
0,591,652,156,240,327,
0,583,643,154,238,326,
0,576,635,162,236,384,
0,569,626,160,234,380,
0,563,618,159,232,376,
0,556,608,158,230,372,
0,550,600,156,228,368,
0,543,593,156,261,365,
0,564,694,153,267,361,
0,604,684,152,264,358,
0,595,674,152,263,354,
0,587,664,150,260,351,
0,580,655,162,258,394,
0,573,647,159,255,390,
0,566,638,159,254,386,
0,559,627,158,251,382,
0,552,620,156,249,379,
0,546,638,155,275,375,
0,611,656,153,271,371,
0,601,647,152,269,368,
0,591,638,152,267,363,
0,584,630,151,263,372,
0,577,621,168,262,398,
0,571,613,167,260,394,
0,563,605,166,257,390,
0,557,595,164,255,385,
0,551,588,163,253,382,
0,544,660,161,255,379,
0,595,650,159,253,375,
0,587,641,159,251,371,
0,577,632,158,248,367,
0,570,624,156,247,396,
0,563,615,176,244,391,
0,556,608,175,243,387,
0,550,600,173,241,384,
0,543,590,172,239,380,
0,537,583,170,236,376,
0,531,686,169,248,372,
0,595,675,167,247,368,
0,585,665,166,244,365,
0,578,655,164,242,361,
0,571,647,167,240,415,
0,564,639,164,238,410,
0,557,630,163,236,406,
0,551,622,162,235,401,
0,544,611,161,231,398,
0,537,604,159,231,393,
0,532,705,158,255,390,
0,589,694,157,252,385,
0,579,684,156,250,382,
0,572,674,154,248,377,
0,565,665,163,246,416,
0,558,655,161,243,412,
0,551,647,159,241,408,
0,545,639,158,240,403,
0,539,628,157,238,399,
0,532,620,156,262,396,
0,560,684,155,263,391,
0,585,674,153,260,387,
0,575,664,155,259,384,
0,569,655,152,255,380,
0,563,647,156,254,419,
0,556,638,154,252,415,
0,548,630,152,249,411,
0,543,621,152,248,407,
0,536,611,150,245,403,
0,530,645,149,249,399,
0,591,679,148,248,395,
0,583,668,147,246,391,
0,574,659,147,243,392,
0,567,651,145,241,387,
0,560,641,153,239,384,
0,553,633,152,237,380,
0,547,624,151,236,376,
0,540,616,150,233,372,
0,534,607,148,231,369,
0,527,670,147,263,366,
0,580,659,146,261,363,
0,572,649,144,259,359,
0,563,639,143,255,356,
0,556,632,142,254,393,
0,550,624,143,252,388,
0,543,615,142,249,384,
0,537,608,140,248,380,
0,531,598,140,246,377,
0,525,591,138,243,373,
0,519,665,137,287,369,
0,590,655,135,284,366,
0,582,646,135,281,363,
0,573,637,135,279,359,
0,566,628,143,276,412,
0,559,620,144,273,408,
0,552,612,143,271,403,
0,546,604,142,269,399,
0,540,595,141,267,395,
0,533,588,140,263,391,
0,527,670,139,269,387,
0,595,659,137,267,384,
0,588,651,135,263,380,
0,579,641,135,262,376,
0,572,632,144,260,412,
0,564,624,143,258,408,
0,558,615,142,255,403,
0,551,608,140,254,399,
0,544,599,139,252,396,
0,539,591,137,252,391,
0,563,683,136,250,387,
0,587,671,135,248,384,
0,579,663,135,246,380,
0,570,654,134,243,376,
0,563,645,141,242,422,
0,556,636,140,240,417,
0,550,627,138,238,412,
0,543,620,137,236,408,
0,536,609,135,234,404,
0,531,641,135,252,399,
0,602,674,134,248,396,
0,593,664,132,247,391,
0,585,655,131,244,388,
0,577,646,131,243,385,
0,569,637,152,240,396,
0,563,628,151,239,391,
0,556,620,150,236,388,
0,550,612,148,235,384,
0,543,603,147,232,380,
0,537,708,146,266,377,
0,588,696,144,263,374,
0,580,686,143,261,370,
0,573,675,143,259,367,
0,564,667,142,255,366,
0,558,657,156,254,399,
0,551,648,156,252,395,
0,543,639,153,249,391,
0,537,632,152,248,387,
0,531,621,152,246,384,
0,526,678,150,253,380,
0,593,667,148,251,376,
0,585,657,147,248,372,
0,577,648,148,246,369,
0,569,639,176,244,414,
0,562,631,185,242,408,
0,556,623,184,240,403,
0,548,615,182,238,399,
0,543,607,180,236,396,
0,536,598,179,235,391,
0,530,679,177,252,387,
0,598,668,176,249,384,
0,590,659,174,248,380,
0,583,649,173,246,376,
0,573,641,173,243,422,
0,567,632,172,241,415,
0,560,624,171,239,411,
0,553,615,169,238,407,
0,547,608,167,236,403,
0,540,599,166,245,399,
0,558,675,165,250,395,
0,585,664,163,248,391,
0,578,655,163,246,387,
0,571,647,161,243,384,
0,563,638,163,241,423,
0,556,629,162,240,417,
0,549,621,161,238,413,
0,543,613,159,236,408,
0,536,605,158,233,404,
0,530,628,157,255,400,
0,592,658,156,253,396,
0,583,648,155,251,391,
0,576,639,153,248,388,
0,569,631,152,247,385,
0,561,623,159,244,419,
0,554,614,157,242,413,
0,547,606,156,240,408,
0,541,599,155,238,405,
0,535,591,153,236,400,
0,529,664,152,260,397,
0,600,654,151,257,392,
0,591,644,150,255,389,
0,583,636,148,253,385,
0,575,627,147,251,382,
0,568,619,149,248,428,
0,560,611,147,247,423,
0,553,603,147,244,419,
0,547,595,145,243,415,
0,541,588,144,240,411,
0,536,660,143,255,407,
0,601,650,142,254,403,
0,593,641,141,252,399,
0,587,632,140,249,395,
0,579,624,139,248,391,
0,570,615,145,246,388,
0,563,608,143,243,385,
0,556,600,142,241,381,
0,550,591,141,239,377,
0,543,584,140,237,375,
0,537,665,139,263,371,
0,599,655,138,259,367,
0,591,647,136,257,364,
0,583,638,135,255,360,
0,575,629,137,253,399,
0,568,620,145,251,393,
0,560,612,143,249,390,
0,553,604,142,247,385,
0,547,597,141,245,382,
0,541,589,140,243,378,
0,564,668,139,250,374,
0,583,658,137,248,370,
0,575,649,135,246,367,
0,568,639,135,243,364,
0,560,632,141,241,408,
0,551,623,140,240,402,
0,545,615,138,238,398,
0,539,608,137,236,393,
0,533,600,135,233,390,
0,527,591,135,248,387,
0,588,660,134,255,382,
0,579,652,133,252,379,
0,572,643,135,251,376,
0,566,633,134,248,371,
0,559,625,142,246,368,
0,550,617,140,243,364,
0,543,608,139,242,359,
0,537,600,137,240,357,
0,531,593,137,238,354,
0,525,618,135,255,351,
0,593,678,135,252,348,
0,584,668,134,251,344,
0,577,659,135,248,342,
0,571,649,134,246,354,
0,563,639,139,243,399,
0,555,632,137,241,393,
0,548,624,136,240,390,
0,542,615,135,238,385,
0,536,608,135,236,382,
0,530,671,134,252,378,
0,587,659,132,249,375,
0,579,649,131,248,371,
0,572,639,131,245,368,
0,564,632,130,243,427,
0,556,624,157,241,428,
0,550,615,155,239,422,
0,543,608,153,237,417,
0,536,600,152,235,413,
0,531,591,151,233,409,
0,525,660,150,236,405,
0,571,647,148,233,401,
0,563,639,147,231,397,
0,556,630,147,230,393,
0,550,622,145,228,390,
0,541,613,145,227,386,
0,535,605,143,225,382,
0,528,598,142,224,377,
0,523,590,141,222,375,
0,517,583,140,220,371,
0,556,651,139,240,368,
0,577,639,137,237,364,
0,569,630,137,235,361,
0,563,622,135,233,358,
0,556,614,152,231,409,
0,547,605,150,230,404,
0,542,598,147,227,399,
0,535,590,147,225,396,
0,528,583,145,224,391,
0,523,575,144,249,387,
0,598,647,143,259,384,
0,589,636,142,255,380,
0,581,627,140,254,376,
0,574,619,140,252,373,
0,568,611,155,249,413,
0,558,603,153,248,408,
0,551,595,152,245,403,
0,545,588,151,243,399,
0,539,580,149,241,395,
0,533,608,148,250,391,
0,578,655,147,248,387,
0,570,644,145,245,384,
0,563,635,144,243,380,
0,556,627,143,240,376,
0,550,618,161,239,417,
0,542,610,159,236,412,
0,536,602,158,235,407,
0,529,595,156,233,403,
0,523,588,156,231,399,
0,518,664,155,262,395,
0,595,651,152,259,391,
0,588,641,152,255,387,
0,580,632,151,254,384,
0,573,624,149,252,433,
0,566,615,153,249,435,
0,558,608,152,248,431,
0,551,600,151,246,425,
0,544,592,149,243,420,
0,538,585,147,241,417,
0,532,664,147,268,412,
0,601,651,145,265,408,
0,593,642,144,263,404,
0,586,633,143,259,399,
0,579,624,144,258,396,
0,572,615,147,255,391,
0,563,608,145,254,388,
0,556,600,143,252,384,
0,550,592,143,249,381,
0,543,585,142,248,377,
0,551,664,141,255,374,
0,575,652,140,253,370,
0,568,643,142,250,367,
0,560,634,141,248,364,
0,553,626,153,246,410,
0,547,617,152,244,406,
0,539,609,151,242,401,
0,532,601,149,240,396,
0,527,593,147,238,391,
0,521,587,147,257,388,
0,583,675,145,262,384,
0,575,663,144,259,380,
0,568,654,143,256,377,
0,561,644,142,255,374,
0,555,636,152,252,370,
0,548,627,150,250,367,
0,540,619,148,248,364,
0,534,611,147,246,359,
0,527,604,145,243,356,
0,522,631,144,268,353,
0,608,677,143,265,350,
0,599,664,142,263,347,
0,591,655,141,260,344,
0,583,647,140,258,342,
0,575,638,142,255,338,
0,569,630,140,254,335,
0,561,621,139,252,332,
0,554,613,138,249,329,
0,547,605,137,248,327,
0,542,670,135,255,323,
0,607,659,135,253,321,
0,599,647,134,251,319,
0,591,639,132,248,316,
0,583,630,131,246,359,
0,575,621,137,243,355,
0,569,614,135,242,352,
0,560,606,135,240,348,
0,554,598,134,238,344,
0,547,590,132,236,341,
0,542,671,131,280,337,
0,603,660,130,276,335,
0,595,649,129,274,332,
0,587,639,127,271,327,
0,579,632,140,268,377,
0,572,623,150,266,373,
0,566,615,148,263,369,
0,557,607,147,262,366,
0,551,599,145,259,360,
0,543,591,144,257,358,
0,578,632,143,260,354,
0,584,624,142,257,351,
0,577,613,140,255,348,
0,571,604,140,254,344,
0,563,597,147,251,391,
0,556,589,145,248,387,
0,550,582,144,247,384,
0,542,575,143,245,379,
0,536,568,142,243,375,
0,530,561,140,249,371,
0,595,657,139,250,367,
0,587,647,138,248,364,
0,579,636,137,246,359,
0,572,627,135,243,357,
0,566,620,146,241,413,
0,558,611,145,240,408,
0,551,603,143,238,404,
0,543,595,142,236,399,
0,537,588,141,233,395,
0,531,607,140,260,391,
0,591,648,139,258,387,
0,583,639,137,255,384,
0,575,628,136,253,380,
0,568,620,135,251,383,
0,561,611,155,248,423,
0,555,604,152,247,419,
0,547,595,152,244,414,
0,540,588,150,242,408,
0,534,581,148,240,404,
0,527,671,147,271,400,
0,591,668,146,268,396,
0,583,659,145,266,392,
0,575,647,143,263,388,
0,568,638,143,261,408,
0,561,630,163,259,403,
0,555,621,162,255,399,
0,547,613,161,255,396,
0,540,605,159,252,391,
0,534,598,158,250,387,
0,527,628,156,262,384,
0,598,620,155,259,380,
0,590,611,153,257,376,
0,582,600,152,254,372,
0,575,593,153,252,401,
0,568,585,156,249,398,
0,561,578,155,248,393,
0,554,571,153,246,389,
0,546,564,152,243,384,
0,540,558,151,241,381,
0,563,643,150,267,377,
0,582,632,148,263,374,
0,574,624,147,262,369,
0,568,614,146,259,367,
0,560,606,162,257,414,
0,553,598,159,255,408,
0,547,590,159,252,404,
0,540,583,157,251,400,
0,532,575,156,248,396,
0,527,568,155,260,391,
0,598,647,153,259,387,
0,589,638,152,257,384,
0,582,630,152,255,380,
0,574,619,150,252,376,
0,568,611,162,250,426,
0,560,603,160,248,422,
0,553,595,159,246,417,
0,547,588,158,243,412,
0,539,579,156,241,408,
0,533,588,155,251,403,
0,597,617,153,248,399,
0,588,609,152,246,396,
0,582,601,151,244,391,
0,574,591,150,241,387,
0,568,583,155,239,384,
0,560,576,153,237,380,
0,553,569,152,235,377,
0,547,563,151,233,374,
0,539,556,148,231,369,
0,533,652,147,262,366,
0,598,651,146,259,363,
0,590,641,145,256,359,
0,582,632,144,255,356,
0,575,622,143,252,404,
0,568,614,158,249,398,
0,561,606,156,248,394,
0,555,598,155,245,390,
0,546,591,153,243,386,
0,540,583,152,241,382,
0,534,662,151,254,377,
0,588,652,150,251,374,
0,579,643,147,248,371,
0,572,634,147,247,367,
0,566,624,151,244,395,
0,559,615,153,242,390,
0,551,607,152,240,386,
0,545,600,151,238,382,
0,537,591,149,236,378,
0,531,583,147,237,374,
0,552,670,147,275,370,
0,563,659,145,272,366,
0,556,650,143,270,363,
0,549,641,143,268,359,
0,543,631,152,265,415,
0,536,622,152,263,411,
0,529,614,150,260,407,
0,524,606,148,258,401,
0,516,598,147,255,398,
0,511,591,146,263,393,
0,550,665,144,265,389,
0,542,655,143,263,385,
0,536,647,143,261,382,
0,529,638,142,259,378,
0,523,627,162,255,417,
0,516,619,160,254,412,
0,511,611,159,252,408,
0,505,603,158,249,403,
0,499,595,156,248,399,
0,494,606,155,255,395,
0,588,635,153,254,391,
0,579,626,152,251,387,
0,572,617,151,249,384,
0,565,609,150,248,380,
0,558,600,151,244,380,
0,551,591,150,243,376,
0,544,583,148,240,372,
0,538,577,147,239,369,
0,531,570,145,236,366,
0,525,663,144,257,361,
0,594,655,143,254,358,
0,587,646,142,252,355,
0,579,637,141,249,352,
0,572,627,140,248,349,
0,564,617,147,245,345,
0,558,610,147,243,343,
0,551,602,145,241,339,
0,545,595,143,239,337,
0,536,587,143,237,334,
0,531,674,142,255,331,
0,594,664,140,254,327,
0,587,654,139,252,326,
0,579,645,138,249,323,
0,572,635,142,248,374,
0,565,625,142,244,369,
0,559,617,140,243,365,
0,551,609,140,240,361,
0,545,601,138,239,358,
0,537,594,137,238,355,
0,566,675,135,260,351,
0,583,664,134,258,348,
0,575,655,134,255,344,
0,569,647,132,254,341,
0,561,636,141,251,384,
0,555,627,140,248,379,
0,548,619,139,247,375,
0,542,611,137,244,371,
0,536,603,135,242,368,
0,527,595,135,252,364,
0,610,659,134,255,359,
0,601,650,132,252,356,
0,593,641,131,251,353,
0,585,632,131,248,350,
0,579,622,143,246,406,
0,572,614,142,243,401,
0,564,605,141,241,397,
0,558,598,140,240,392,
0,551,590,139,237,389,
0,543,620,137,264,385,
0,578,664,135,262,380,
0,571,654,135,259,376,
0,563,646,134,257,373,
0,556,636,132,255,380,
0,550,625,155,253,423,
0,543,617,153,250,419,
0,537,609,152,248,415,
0,531,601,151,246,411,
0,525,594,150,243,407,
0,518,693,148,249,403,
0,591,684,147,247,398,
0,583,674,145,244,393,
0,576,665,145,243,390,
0,569,655,143,240,386,
0,563,644,163,239,383,
0,556,636,161,236,380,
0,550,627,159,235,376,
0,543,620,159,231,371,
0,536,611,157,231,368,
0,529,696,156,280,365,
0,585,685,154,278,361,
0,577,675,153,275,358,
0,571,665,152,272,355,
0,563,656,151,271,359,
0,557,646,150,268,355,
0,551,636,148,265,352,
0,543,628,147,263,349,
0,537,620,146,260,345,
0,531,612,145,259,344,
0,556,676,143,262,340,
0,579,666,142,259,336,
0,572,656,142,256,334,
0,564,647,140,255,331,
0,558,639,147,252,384,
0,551,628,146,250,380,
0,544,620,145,248,376,
0,538,611,143,246,372,
0,531,604,143,244,369,
0,526,596,141,249,366,
0,593,678,140,255,361,
0,585,667,139,252,358,
0,578,658,137,250,354,
0,571,648,136,248,351,
0,563,639,150,246,396,
0,556,630,148,243,391,
0,550,621,147,241,387,
0,543,613,146,239,384,
0,537,605,144,237,380,
0,531,632,143,268,376,
0,584,683,142,264,372,
0,577,671,141,263,368,
0,569,664,140,259,364,
0,563,654,139,257,360,
0,556,645,159,255,395,
0,550,634,157,253,391,
0,543,626,156,251,387,
0,536,617,155,248,384,
0,530,609,153,247,380,
0,524,691,152,263,376,
0,585,679,151,259,371,
0,578,670,149,257,368,
0,571,661,148,255,364,
0,563,652,147,253,371,
0,557,643,146,251,366,
0,551,632,144,248,363,
0,543,624,143,246,359,
0,537,615,143,244,356,
0,531,608,141,242,353,
0,526,691,140,265,350,
0,580,679,139,263,345,
0,572,670,139,261,343,
0,566,660,138,259,339,
0,559,652,153,257,379,
0,551,643,154,255,374,
0,545,632,152,252,370,
0,539,624,152,249,367,
0,532,615,150,248,363,
0,527,608,149,246,359,
0,521,674,147,258,356,
0,585,664,146,255,352,
0,577,655,145,254,349,
0,571,645,143,252,345,
0,563,636,153,249,395,
0,557,628,152,247,391,
0,550,617,150,244,387,
0,543,609,149,242,384,
0,537,601,147,240,379,
0,531,595,147,252,376,
0,556,671,145,253,371,
0,588,662,143,251,367,
0,581,653,143,248,364,
0,574,643,142,247,359,
0,568,636,159,244,399,
0,560,627,158,242,396,
0,553,615,157,240,391,
0,547,608,156,238,387,
0,540,600,154,236,384,
0,534,627,153,254,380,
0,593,659,152,252,376,
0,583,649,150,249,371,
0,575,639,148,248,368,
0,568,632,147,245,364,
0,561,623,147,243,364,
0,555,615,145,241,361,
0,548,605,144,239,358,
0,542,597,143,236,355,
0,536,590,142,235,352,
0,529,678,141,257,348,
0,591,665,140,255,345,
0,581,656,138,253,342,
0,574,647,137,251,338,
0,567,639,135,248,363,
0,560,630,158,247,358,
0,553,622,156,244,354,
0,547,611,155,242,351,
0,540,604,153,240,348,
0,534,596,152,238,344,
0,528,671,152,253,341,
0,585,660,150,251,337,
0,577,651,148,248,334,
0,571,643,147,247,331,
0,563,633,154,244,382,
0,556,625,153,242,377,
0,550,616,152,240,374,
0,543,607,152,238,370,
0,536,600,150,236,367,
0,531,591,148,234,364,
0,525,688,147,264,359,
0,595,676,146,262,356,
0,588,667,148,259,354,
0,580,658,150,257,351,
0,574,649,153,255,385,
0,567,639,152,253,382,
0,560,632,151,251,377,
0,553,621,150,248,374,
0,547,613,148,247,369,
0,540,606,147,252,366,
0,555,688,146,252,363,
0,575,677,144,249,359,
0,569,668,143,248,355,
0,561,659,142,246,352,
0,556,650,224,243,419,
0,548,639,221,241,415,
0,542,632,220,240,411,
0,536,622,217,237,407,
0,529,614,216,235,402,
0,524,643,214,259,399,
0,598,680,211,255,395,
0,587,671,210,254,391,
0,579,662,207,252,386,
0,572,652,206,249,393,
0,565,643,204,247,424,
0,558,635,203,245,420,
0,551,627,201,243,415,
0,545,615,199,240,412,
0,539,608,198,238,408,
0,533,692,196,257,403,
0,598,681,195,255,399,
0,588,671,193,252,395,
0,580,662,192,250,391,
0,573,652,191,248,415,
0,566,644,189,246,409,
0,560,636,188,243,405,
0,552,625,185,242,400,
0,546,616,184,240,397,
0,540,609,184,238,393,
0,534,681,182,250,390,
0,592,671,180,248,385,
0,583,662,179,246,382,
0,575,652,177,243,377,
0,568,643,176,241,407,
0,561,635,175,240,402,
0,555,627,173,237,398,
0,548,615,172,236,394,
0,542,608,171,233,390,
0,536,600,169,239,387,
0,529,664,168,291,383,
0,627,654,167,287,379,
0,616,644,166,285,376,
0,609,636,164,283,371,
0,601,627,169,280,423,
0,593,619,167,278,419,
0,587,611,167,275,415,
0,579,601,166,273,411,
0,572,593,164,270,407,
0,566,587,163,269,403,
0,583,639,161,267,399,
0,596,630,160,264,395,
0,587,622,159,263,391,
0,579,614,158,260,386,
0,573,606,159,259,412,
0,566,597,159,255,408,
0,559,590,158,254,403,
0,552,580,156,252,399,
0,546,574,155,249,396,
0,540,612,154,268,391,
0,607,664,152,263,387,
0,598,655,152,262,384,
0,588,646,150,259,380,
0,581,636,150,257,379,
0,574,628,149,255,412,
0,567,620,147,253,408,
0,560,611,147,251,403,
0,553,601,145,249,399,
0,547,595,144,247,395,
0,541,671,143,263,391,
0,595,660,142,262,387,
0,587,651,142,259,384,
0,577,642,140,257,380,
0,571,632,140,255,419,
0,563,624,152,252,414,
0,556,615,152,251,409,
0,550,608,150,248,406,
0,543,599,148,247,401,
0,537,591,147,244,397,
0,531,673,146,271,393,
0,596,663,145,268,390,
0,588,653,143,265,385,
0,579,644,143,263,382,
0,572,636,149,261,379,
0,564,627,149,259,375,
0,558,619,147,257,371,
0,551,610,146,255,368,
0,545,600,145,252,364,
0,539,593,143,250,361,
0,532,670,143,258,359,
0,572,659,142,255,355,
0,565,651,140,254,352,
0,556,641,139,251,349,
0,550,632,155,249,359,
0,543,624,153,247,356,
0,536,615,152,245,353,
0,530,608,151,243,350,
0,524,599,150,240,346,
0,519,591,148,249,344,
0,551,667,147,255,340,
0,570,657,146,252,337,
0,563,647,144,251,335,
0,555,639,143,248,332,
0,547,631,155,246,379,
0,541,622,153,244,375,
0,535,614,152,242,371,
0,528,606,151,240,368,
0,523,596,149,238,364,
0,516,625,148,252,359,
0,575,653,147,249,357,
0,568,643,145,247,353,
0,560,635,144,244,350,
0,551,626,143,243,347,
0,545,617,159,240,343,
0,539,609,158,238,339,
0,531,601,156,236,337,
0,526,594,155,235,334,
0,519,585,153,231,331,
0,515,679,153,263,327,
0,593,668,152,260,326,
0,584,659,150,257,323,
0,577,650,149,255,319,
0,568,641,147,253,335,
0,561,632,164,251,388,
0,555,624,163,248,384,
0,548,615,161,247,380,
0,542,608,159,244,376,
0,536,598,158,242,373,
0,529,680,157,251,369,
0,586,670,156,248,366,
0,579,660,155,246,363,
0,572,652,153,243,359,
0,563,642,155,241,387,
0,556,633,156,239,383,
0,549,625,155,238,379,
0,543,617,153,236,375,
0,536,609,152,233,371,
0,530,600,152,231,368,
0,524,670,150,257,364,
0,583,660,148,255,359,
0,575,651,147,252,357,
0,569,642,146,250,353,
0,561,633,146,248,384,
0,553,625,145,246,380,
0,547,616,143,244,376,
0,541,609,143,241,372,
0,535,601,141,240,369,
0,528,591,140,255,366,
0,560,666,139,257,361,
0,582,656,138,255,359,
0,574,647,137,252,355,
0,568,639,135,250,352,
0,559,631,152,248,391,
0,551,622,152,246,387,
0,545,614,150,243,384,
0,539,606,148,242,380,
0,532,598,147,240,376,
0,527,632,147,268,372,
0,597,679,145,265,369,
0,588,668,143,263,365,
0,581,659,143,261,361,
0,574,651,142,259,359,
0,565,641,157,255,408,
0,558,632,156,254,403,
0,551,624,154,252,399,
0,545,615,153,250,395,
0,539,608,152,248,391,
0,532,674,151,259,387,
0,590,664,150,256,384,
0,582,654,147,254,380,
0,575,645,184,252,376,
0,568,636,183,249,372,
0,559,627,180,248,368,
0,551,620,179,246,364,
0,545,611,177,243,361,
0,539,604,176,241,358,
0,532,595,175,240,355,
0,527,684,174,243,352,
0,568,671,172,240,348,
0,561,663,171,238,345,
0,555,654,169,236,343,
0,546,644,167,235,384,
0,540,636,167,232,381,
0,533,627,166,231,377,
0,527,619,164,229,374,
0,520,611,163,227,370,
0,515,604,161,225,367,
0,510,690,159,246,363,
0,580,679,159,244,359,
0,572,669,158,242,355,
0,566,659,156,240,352,
0,557,652,159,238,405,
0,550,642,166,236,399,
0,543,633,164,234,395,
0,537,625,163,231,391,
0,531,617,161,230,387,
0,525,609,160,228,384,
0,531,673,159,263,380,
0,557,663,158,260,376,
0,550,654,156,259,372,
0,543,645,156,255,369,
0,536,636,156,254,435,
0,529,627,154,252,429,
0,524,620,153,249,423,
0,517,611,152,248,419,
0,511,604,151,246,415,
0,505,596,150,270,412,
0,587,675,148,276,408,
0,579,666,147,273,403,
0,572,656,146,271,399,
0,564,647,145,269,396,
0,556,639,143,267,430,
0,549,631,143,263,423,
0,543,622,142,263,419,
0,536,614,140,259,415,
0,529,606,140,258,411,
0,524,619,139,258,408,
0,568,661,137,255,403,
0,561,652,135,253,399,
0,554,643,135,251,395,
0,547,633,135,249,391,
0,539,625,151,247,399,
0,533,617,150,245,395,
0,527,609,147,243,391,
0,520,601,147,241,387,
0,515,593,145,239,384,
0,510,668,144,257,380,
0,575,658,143,254,376,
0,568,649,142,252,373,
0,560,639,141,249,369,
0,553,632,140,248,415,
0,544,623,139,245,414,
0,539,615,137,243,408,
0,532,607,135,241,404,
0,526,599,135,239,399,
0,519,591,134,237,396,
0,515,670,133,260,391,
0,597,659,132,257,388,
0,589,651,131,255,385,
0,582,641,130,253,381,
0,575,633,141,251,387,
0,566,624,147,248,384,
0,559,615,144,247,379,
0,552,608,143,244,376,
0,545,600,142,242,371,
0,540,592,141,240,368,
0,553,658,140,255,365,
0,575,648,139,253,361,
0,568,639,137,251,359,
0,560,632,136,248,355,
0,553,623,147,247,352,
0,545,615,147,244,349,
0,539,606,144,242,345,
0,532,599,143,240,343,
0,527,591,142,238,339,
0,520,583,141,245,336,
0,585,655,140,244,334,
0,575,645,139,241,331,
0,569,636,137,240,327,
0,562,627,135,238,326,
0,556,620,137,236,372,
0,547,611,135,233,368,
0,541,604,135,231,364,
0,535,595,134,230,359,
0,528,588,132,228,357,
0,523,607,131,255,353,
0,611,645,131,253,350,
0,603,636,129,250,347,
0,595,627,129,248,344,
0,588,619,127,246,342,
0,580,611,160,243,364,
0,572,603,158,241,361,
0,564,595,157,240,356,
0,558,588,156,238,353,
0,551,580,155,236,350,
0,545,668,153,255,347,
0,572,663,152,252,344,
0,563,653,151,250,340,
0,557,644,150,248,337,
0,550,635,148,246,363,
0,543,627,150,243,358,
0,536,619,148,241,355,
0,529,610,147,240,350,
0,524,603,146,238,347,
0,518,595,145,236,344,
0,512,673,143,252,340,
0,582,660,143,249,337,
0,575,652,142,247,334,
0,568,643,140,244,332,
0,560,634,143,243,384,
0,553,625,147,240,379,
0,545,617,145,238,375,
0,539,609,144,236,369,
0,532,601,143,235,366,
0,527,594,142,233,363,
0,562,655,141,247,359,
0,591,643,140,243,355,
0,583,635,139,241,352,
0,575,626,137,240,350,
0,569,617,152,238,393,
0,562,609,150,236,390,
0,553,601,148,233,385,
0,547,593,147,231,380,
0,541,587,145,230,376,
0,535,579,145,250,374,
0,600,665,143,259,369,
0,591,653,142,255,366,
0,583,644,141,254,363,
0,577,635,140,252,359,
0,570,627,157,249,355,
0,563,619,156,248,352,
0,555,610,153,246,350,
0,548,603,152,243,345,
0,542,595,152,241,343,
0,536,624,150,263,339,
0,577,678,148,259,335,
0,569,665,147,256,333,
0,563,655,146,255,330,
0,556,647,145,252,332,
0,549,638,151,250,373,
0,542,630,150,248,369,
0,535,621,147,246,365,
0,527,614,147,243,360,
0,522,605,145,242,358,
0,517,674,144,265,354,
0,591,664,143,263,351,
0,583,652,142,260,348,
0,577,643,141,257,344,
0,569,634,140,255,390,
0,563,625,150,254,385,
0,556,617,149,251,380,
0,547,609,147,249,376,
0,541,601,146,247,371,
0,535,594,145,244,368,
0,529,669,143,257,365,
0,607,658,143,255,361,
0,599,647,142,252,358,
0,591,638,140,249,355,
0,583,630,142,248,408,
0,575,620,145,246,403,
0,569,612,144,243,399,
0,560,604,143,241,393,
0,554,597,142,240,390,
0,547,590,140,238,386,
0,557,688,140,265,382,
0,573,678,138,263,378,
0,566,665,137,259,375,
0,559,656,135,257,371,
0,551,647,152,255,391,
