=~=~=~=~=~=~=~=~=~=~=~= PuTTY log 2021.04.22 11:31:05 =~=~=~=~=~=~=~=~=~=~=~=
2790,8455,38397,815,,
0,388,883,384,36,405,
0,385,868,380,36,455,
0,408,854,377,36,448,
0,405,840,374,35,444,
0,401,827,370,35,439,
0,397,815,367,35,434,
0,392,802,364,35,430,
080,36,455,
0,408,854,377,36,448,
0,405,840,374,35,444,
0,401,827,370,35,439,
0,397,815,367,35,434,
0,392,802,364,35,430,
0,390,893,384,40,425,
0,385,907,380,39,421,
0,382,911,376,39,416,
0,380,910,372,39,412,
0bbbbbj
0,401,871,365,39,438,
0,396,857,361,StartUp!
126,502,824,393,14,587,
0,563,815,390,14,580,
0,560,805,387,14,576,
0,555,799,384,14,571,
0,550,790,382,14,567,
0,544,781,380,13,561,
0,540,772,377,14,556,
0,536,764,375,14,553,
0,532,816,396,13,548,
0,527,875,399,13,543,
0,521,860,395,13,537,
0,515,846,391,13,531,
0,510,831,388,13,526,
0,505,819,385,13,580,
0,556,806,380,13,573,
0,549,793,377,12,566,
0,542,782,374,12,560,
0,536,771,370,12,553,
0,529,760,367,12,547,
0,524,868,395,12,540,
0,518,857,391,12,535,
0,512,843,387,12,528,
0,507,829,383,12,523,
0,500,816,380,11,527,
0,550,803,376,12,520,
0,543,792,371,11,515,
0,536,780,369,11,509,
0,531,768,366,11,504,
0,525,756,363,11,499,
0,519,870,380,11,494,
0,513,854,376,10,489,
0,508,839,371,10,484,
0,502,831,370,11,483,
0,499,818,367,10,532,
0,566,808,364,10,524,
0,558,796,359,13,519,
0,551,783,357,14,512,
0,544,772,354,14,507,
0,538,761,351,14,503,
0,532,869,432,13,497,
0,526,903,425,13,492,
0,521,896,422,13,487,
0,515,876,417,13,481,
0,510,862,413,12,477,
0,540,847,409,13,479,
0,563,835,405,19,473,
0,556,822,401,19,469,
0,549,808,398,19,464,
0,542,799,393,19,460,
0,536,788,402,19,455,
0,530,875,435,18,451,
0,524,859,430,18,447,
0,518,845,425,18,444,
1,512,831,422,17,440,
1,527,819,417,17,508,
1,569,806,415,25,502,
2,563,793,411,30,496,
2,556,782,407,29,491,
2,549,771,403,29,486,
3,542,760,399,29,480,
3,536,878,451,28,475,
3,530,863,446,28,470,
3,524,852,441,28,465,
3,519,838,436,28,460,
3,512,824,432,28,531,
3,577,812,428,28,524,
4,569,799,423,28,519,
3,562,787,419,28,515,
4,556,775,415,28,508,
4,548,764,412,28,504,
3,544,887,439,27,497,
4,537,871,433,27,492,
4,531,856,429,27,487,
4,526,842,425,27,481,
4,519,828,420,26,548,
4,580,816,416,26,543,
4,572,806,412,27,537,
4,566,793,408,27,531,
4,559,782,404,27,525,
4,551,771,400,26,519,
4,546,857,446,26,515,
4,540,878,441,25,510,
4,534,863,436,25,504,
4,527,849,432,25,499,
4,523,835,428,25,493,
4,559,822,423,25,561,
4,583,809,419,31,554,
3,575,796,415,31,547,
3,568,785,412,31,541,
4,561,773,408,30,535,
4,555,860,423,30,529,
4,548,899,450,29,524,
3,542,886,446,29,518,
3,536,870,441,28,512,
3,529,856,436,28,507,
4,552,843,432,28,588,
3,590,828,428,28,581,
3,582,816,424,28,574,
3,576,803,420,28,568,
3,569,792,416,28,560,
3,563,780,413,28,555,
3,556,898,437,27,547,
3,550,883,432,27,542,
3,543,868,428,27,536,
3,537,854,423,27,530,
3,531,843,419,27,588,
3,603,830,415,27,579,
3,594,816,411,27,572,
3,587,804,408,27,566,
3,579,792,403,26,560,
3,572,780,399,26,555,
3,566,892,449,26,548,
3,561,878,446,25,542,
3,555,863,441,25,536,
3,548,849,436,25,530,
3,542,835,432,25,583,
3,593,822,428,26,575,
3,584,809,423,26,568,
3,577,797,419,26,561,
3,571,788,415,25,555,
3,563,776,412,25,548,
3,558,877,449,25,542,
3,551,903,444,25,536,
3,543,889,440,25,532,
3,537,872,435,25,526,
3,532,859,430,24,521,
3,579,844,427,24,575,
3,583,831,423,24,568,
3,575,818,419,24,561,
2,569,806,415,24,555,
3,562,793,411,24,548,
2,556,878,434,24,542,
3,549,903,449,24,536,
2,543,896,444,24,530,
2,536,877,440,23,524,
2,531,863,435,23,519,
2,569,849,431,23,589,
2,587,835,427,24,583,
2,579,822,423,24,575,
2,572,809,419,23,569,
2,565,797,415,23,563,
2,560,790,412,23,556,
2,553,898,450,22,550,
1,547,883,445,22,543,
2,540,867,440,22,537,
2,535,853,436,22,531,
1,528,839,432,22,555,
1,584,829,428,22,547,
2,577,816,423,23,541,
1,571,803,419,22,535,
1,563,792,415,22,528,
1,556,780,411,22,524,
1,550,876,448,21,519,
1,543,860,443,21,513,
1,537,846,439,21,508,
1,533,831,434,20,503,
1,527,819,430,20,558,
1,581,806,425,21,551,
1,574,793,421,21,543,
1,567,782,417,21,537,
1,560,771,413,20,531,
1,552,760,409,20,526,
1,547,876,448,20,519,
1,540,903,444,20,513,
1,534,889,439,19,508,
1,527,872,434,19,504,
1,522,858,430,19,519,
1,584,844,425,19,560,
1,577,831,422,23,553,
1,571,818,418,23,546,
1,564,806,414,23,540,
1,557,793,410,23,534,
0,551,878,437,23,527,
1,544,889,436,22,522,
1,538,872,432,22,516,
1,531,857,428,22,511,
0,526,847,423,21,505,
1,577,834,419,22,510,
0,583,820,415,21,504,
0,575,807,411,20,499,
0,568,796,408,20,495,
0,562,783,403,20,490,
0,556,790,423,20,486,
0,551,886,434,20,480,
0,543,870,430,20,476,
0,537,855,425,19,472,
0,531,840,421,19,467,
0,526,828,417,19,474,
0,584,814,412,19,468,
0,577,802,408,19,463,
0,570,792,404,19,459,
0,563,781,401,19,455,
0,556,769,398,19,451,
0,550,880,434,19,446,
0,543,864,430,19,443,
0,537,850,425,19,439,
0,531,836,421,19,435,
0,526,824,418,18,505,
0,591,810,414,18,499,
0,583,798,409,18,494,
0,575,786,406,19,487,
0,568,775,401,19,482,
0,561,763,398,19,478,
0,556,875,448,19,472,
0,548,863,443,19,467,
0,542,847,438,18,463,
0,536,834,433,18,457,
0,530,821,429,18,515,
0,579,808,423,17,510,
0,572,796,420,19,504,
0,564,783,416,18,498,
0,558,772,413,18,492,
0,552,761,409,18,487,
0,547,872,433,18,482,
0,540,878,431,18,477,
0,534,863,426,17,472,
0,527,849,422,17,467,
0,521,835,417,17,468,
0,572,822,414,17,481,
0,564,812,409,17,476,
0,557,799,406,18,471,
0,551,788,401,18,465,
0,543,776,398,17,462,
0,537,793,400,17,457,
0,531,870,408,17,452,
0,525,856,404,17,448,
0,520,841,400,17,444,
0,515,828,397,16,440,
0,510,815,393,16,481,
0,563,802,390,16,476,
0,556,790,386,16,470,
0,550,779,383,16,465,
0,543,768,380,16,460,
0,537,759,376,16,455,
0,531,882,430,15,451,
0,525,866,424,15,446,
0,519,851,420,15,441,
0,513,838,415,15,438,
0,508,825,412,15,500,
0,563,812,408,15,494,
0,559,799,405,15,488,
0,551,787,401,15,483,
0,545,775,397,15,478,
0,539,764,393,15,472,
0,533,888,443,15,467,
0,527,871,438,14,463,
0,520,857,433,14,457,
0,515,847,428,14,453,
0,509,833,423,14,518,
0,571,820,419,14,511,
0,563,807,415,17,504,
0,556,795,412,17,500,
0,550,783,408,17,495,
0,543,771,403,17,489,
0,538,881,440,16,484,
0,532,882,434,16,479,
0,526,867,430,16,473,
0,519,852,425,15,469,
0,515,839,421,15,492,
0,577,825,417,15,525,
0,569,812,412,15,519,
0,562,803,408,15,513,
0,556,792,404,15,508,
0,548,780,401,15,502,
0,543,824,440,15,496,
0,536,894,435,15,492,
0,530,876,432,15,487,
0,524,861,427,15,482,
0,519,847,423,15,477,
0,514,833,419,14,536,
0,568,820,415,14,530,
0,560,807,412,14,524,
0,553,796,408,14,518,
0,547,783,403,14,512,
0,540,816,399,14,507,
0,534,897,437,14,500,
0,527,886,432,13,496,
0,521,870,428,13,490,
0,516,856,423,13,486,
0,511,842,419,12,545,
0,563,828,415,14,538,
0,556,815,411,13,531,
0,550,803,408,13,526,
0,544,791,404,13,519,
0,538,780,400,13,514,
0,532,896,436,13,508,
0,526,886,432,12,503,
0,519,870,427,12,497,
0,514,856,423,12,492,
0,508,841,419,12,502,
0,563,831,414,12,496,
0,555,819,410,14,490,
0,548,806,407,13,484,
0,542,793,403,14,480,
0,536,782,399,13,476,
0,529,886,436,13,472,
0,523,874,432,13,467,
0,519,860,428,12,462,
0,513,846,423,12,457,
0,508,831,419,12,493,
0,552,819,415,12,515,
0,545,806,411,12,508,
0,538,793,408,12,503,
0,531,782,403,12,497,
0,526,774,399,12,492,
0,519,851,448,12,487,
0,513,897,443,12,481,
0,508,880,438,11,476,
0,503,865,433,11,472,
0,497,851,429,11,467,
0,559,838,425,11,526,
0,552,824,422,11,519,
0,545,812,417,11,515,
0,539,799,414,11,508,
0,532,787,409,11,503,
0,527,831,406,11,497,
0,520,897,432,11,492,
0,515,880,427,11,487,
0,509,868,423,11,481,
0,504,854,418,11,476,
0,499,841,414,10,515,
0,562,827,409,11,510,
0,555,814,406,11,504,
0,548,802,402,12,499,
0,542,790,398,12,494,
0,537,778,396,12,489,
0,531,898,440,12,483,
0,525,888,435,12,478,
0,519,871,431,12,473,
0,513,857,427,11,468,
0,508,844,423,11,521,
0,568,830,417,11,515,
0,560,820,414,11,510,
0,553,807,409,11,504,
0,547,795,406,11,498,
0,540,783,402,11,493,
0,535,894,444,11,488,
0,527,895,439,11,483,
0,522,876,434,11,478,
0,516,862,431,11,473,
0,512,847,427,10,519,
0,563,834,423,10,518,
0,555,821,418,10,511,
0,548,808,414,10,505,
0,542,796,410,10,499,
0,536,784,406,9,494,
0,529,856,441,9,491,
0,523,896,435,9,485,
0,519,878,432,9,480,
0,512,863,428,9,475,
0,508,852,423,9,472,
0,529,839,419,9,527,
0,560,825,415,9,519,
0,553,812,412,9,514,
0,546,803,408,9,508,
0,540,791,404,9,504,
0,536,780,401,9,499,
0,529,896,444,9,494,
0,523,894,439,9,487,
0,517,877,434,8,484,
0,513,862,431,9,479,
0,508,847,427,9,480,
0,561,838,422,8,502,
0,553,824,418,9,497,
0,547,812,415,9,492,
0,542,799,411,9,487,
0,536,787,407,9,481,
0,529,779,403,9,478,
0,524,895,430,8,472,
0,519,880,427,8,467,
0,513,864,422,8,463,
0,508,854,417,8,459,
0,502,840,414,8,513,
0,560,827,411,7,505,
0,552,814,407,10,500,
0,546,801,403,10,495,
0,540,792,399,9,489,
0,532,780,395,9,484,
0,527,879,431,9,480,
0,522,902,436,9,474,
0,516,891,432,9,470,
0,510,873,428,9,465,
0,504,859,423,9,461,
0,501,846,420,9,516,
0,551,831,415,9,510,
0,543,822,412,9,505,
0,537,809,408,12,499,
0,532,797,405,11,494,
0,526,785,401,11,489,
0,519,897,429,11,483,
0,514,885,423,11,479,
0,508,870,420,11,473,
0,503,855,415,10,468,
0,497,841,412,10,529,
0,568,831,408,10,521,
0,560,818,403,10,515,
0,553,806,399,10,510,
0,547,793,396,9,505,
0,540,782,393,9,500,
0,536,888,444,9,495,
0,529,888,439,9,489,
0,524,875,435,9,486,
0,518,860,430,9,480,
0,513,846,427,9,476,
0,524,832,423,9,508,
0,562,823,418,9,504,
0,555,809,414,9,497,
0,550,798,411,8,492,
0,543,786,407,9,487,
0,537,777,403,8,483,
0,531,895,477,8,478,
0,526,885,473,7,472,
0,520,869,467,7,467,
0,515,859,463,7,463,
0,508,844,457,7,481,
0,574,831,455,7,516,
0,566,818,449,7,510,
0,559,808,445,7,504,
0,551,796,440,7,500,
0,547,784,438,7,495,
0,540,822,433,7,489,
0,534,896,460,7,484,
0,527,880,455,7,480,
0,524,865,452,7,475,
0,518,851,448,7,471,
0,512,841,444,7,534,
0,571,828,439,7,529,
0,563,815,435,7,523,
0,558,802,431,7,516,
0,551,790,427,7,511,
0,544,781,423,7,507,
0,539,867,440,7,501,
0,534,880,435,7,496,
0,527,865,431,7,491,
0,521,854,427,7,487,
0,515,839,422,7,481,
0,512,827,419,7,533,
0,551,814,415,7,527,
0,543,804,412,7,522,
0,537,792,408,7,516,
0,532,781,404,7,510,
0,527,769,401,7,504,
0,520,888,415,6,499,
0,515,903,412,7,495,
0,510,891,408,6,489,
0,504,874,404,6,484,
0,499,863,400,6,521,
0,555,849,397,6,526,
0,550,835,394,7,519,
0,543,823,391,7,514,
0,536,813,387,7,508,
0,529,800,384,7,504,
0,524,792,382,7,499,
0,519,900,428,7,492,
0,513,895,423,7,487,
0,508,876,418,7,483,
0,502,862,415,7,479,
0,498,847,411,7,526,
0,551,834,407,7,519,
0,543,824,403,7,515,
0,537,812,399,7,508,
0,532,799,396,7,503,
0,526,787,392,7,497,
0,520,839,430,7,493,
0,515,894,427,7,487,
0,510,876,423,7,483,
0,504,862,419,7,478,
0,499,851,414,7,473,
0,504,838,410,7,539,
0,548,824,408,7,531,
0,542,811,403,7,526,
0,535,802,399,7,519,
0,529,790,396,7,515,
0,524,779,392,7,510,
0,519,896,430,7,504,
0,512,902,425,7,499,
0,507,885,420,6,494,
0,503,869,417,6,489,
0,497,856,413,6,487,
0,560,845,409,6,523,
0,551,831,405,6,518,
0,545,818,402,6,512,
0,540,806,398,6,506,
0,534,793,395,6,500,
0,527,785,391,6,497,
0,521,899,427,6,491,
0,517,899,423,6,486,
0,511,879,418,6,480,
0,505,868,414,6,477,
0,500,854,411,6,530,
0,552,840,407,5,523,
0,545,827,403,7,516,
0,539,817,399,7,512,
0,532,804,395,7,507,
0,527,792,391,7,500,
0,521,870,415,7,496,
0,515,899,433,7,492,
0,510,886,429,7,486,
0,505,870,425,7,481,
0,499,856,422,7,476,
0,495,846,417,7,526,
0,555,831,414,7,521,
0,550,819,410,7,515,
0,543,807,407,7,510,
0,536,797,403,7,504,
0,530,785,399,7,499,
0,526,888,438,7,494,
0,519,888,432,7,489,
0,513,875,428,7,483,
0,508,860,423,6,480,
0,503,847,420,6,475,
0,527,833,416,6,504,
0,553,819,412,7,499,
0,546,811,408,7,495,
0,540,798,404,7,489,
0,535,786,401,7,483,
0,528,775,398,7,479,
0,523,894,433,7,475,
0,516,883,428,7,470,
0,512,867,425,7,465,
0,507,854,420,7,460,
0,501,843,416,7,477,
0,547,830,412,7,500,
0,541,816,409,9,495,
0,535,804,406,9,489,
0,527,795,401,9,485,
0,522,783,398,9,480,
0,518,823,395,9,475,
0,512,892,433,9,470,
0,505,878,429,9,464,
0,500,864,423,9,461,
0,496,849,421,8,455,
0,492,836,417,8,481,
0,550,825,412,8,476,
0,542,812,408,8,472,
0,537,799,406,9,466,
0,531,788,401,8,461,
0,524,780,398,9,456,
0,519,872,440,8,452,
0,513,893,435,8,448,
0,508,876,431,8,444,
0,504,860,427,8,440,
0,497,850,422,8,436,
0,549,836,417,7,497,
0,555,824,415,8,492,
0,548,811,411,7,486,
0,541,801,407,7,481,
0,535,789,403,7,476,
0,530,777,399,7,472,
0,524,896,428,7,467,
0,519,889,423,7,463,
0,512,872,419,7,457,
0,508,858,415,7,453,
0,503,844,412,7,503,
0,556,834,408,7,508,
0,549,821,403,7,502,
0,543,808,399,7,496,
0,537,796,396,7,491,
0,531,787,392,7,486,
0,525,780,400,7,482,
0,521,899,430,7,476,
0,515,887,425,7,472,
0,509,873,421,7,466,
0,504,860,417,7,463,
0,499,846,414,7,512,
0,550,831,409,7,505,
0,543,822,406,7,499,
0,536,809,401,7,495,
0,530,797,399,7,489,
0,526,785,395,7,484,
0,519,893,441,7,480,
0,513,905,440,7,475,
0,508,911,435,7,471,
0,504,911,431,7,465,
0,498,896,427,7,460,
0,509,880,423,7,504,
0,553,865,418,7,497,
0,547,851,415,7,492,
0,541,838,412,7,486,
0,535,828,408,7,483,
0,528,815,403,7,478,
0,524,896,443,6,472,
0,518,903,438,6,467,
0,512,889,432,6,463,
0,507,873,428,6,459,
0,503,858,425,6,470,
0,563,844,421,6,512,
0,553,834,416,6,507,
0,547,821,412,7,502,
0,542,808,409,7,496,
0,536,796,406,7,491,
0,529,788,402,7,486,
0,524,899,399,7,481,
0,519,902,396,7,476,
0,513,883,393,6,472,
0,508,871,390,6,467,
0,502,857,387,6,519,
0,558,844,384,7,512,
0,552,830,380,7,507,
0,545,817,376,7,500,
0,540,807,374,7,496,
0,532,795,370,7,491,
0,528,881,396,7,486,
0,522,903,439,7,480,
0,516,896,434,7,476,
0,511,877,430,7,472,
0,507,863,426,7,467,
0,500,849,422,6,504,
0,557,838,417,7,500,
0,550,824,414,7,495,
0,545,812,411,7,488,
0,539,799,407,7,483,
0,532,792,403,7,480,
0,526,888,428,7,475,
0,521,888,423,7,470,
0,515,871,419,7,464,
0,510,860,415,7,460,
0,504,846,412,7,455,
0,524,831,408,7,507,
0,552,819,404,7,501,
0,546,809,400,7,496,
0,540,797,396,7,492,
0,535,785,393,7,486,
0,528,775,391,7,481,
0,523,894,432,7,476,
0,516,884,428,7,472,
0,511,869,423,7,467,
0,507,855,420,6,462,
0,501,840,415,6,520,
0,554,831,412,6,515,
0,547,817,408,7,509,
0,542,805,404,7,504,
0,536,793,400,7,497,
0,529,783,397,7,494,
0,524,821,439,7,487,
0,519,902,440,7,483,
0,513,896,434,7,478,
0,508,880,430,7,474,
0,502,865,425,6,469,
0,498,852,423,6,514,
0,547,838,417,6,508,
0,541,828,414,7,502,
0,535,815,409,7,497,
0,529,803,408,7,492,
0,524,791,403,6,487,
0,518,867,435,7,481,
0,512,876,430,6,478,
0,508,861,427,6,472,
0,502,847,423,6,467,
0,496,836,418,6,463,
0,550,824,414,6,519,
0,556,811,411,7,513,
0,550,798,408,7,508,
0,543,790,403,6,502,
0,536,777,399,7,497,
0,531,767,396,6,492,
0,527,891,438,6,487,
0,519,875,432,6,481,
0,515,864,428,6,478,
0,508,849,423,6,472,
0,504,835,420,6,518,
0,557,823,416,6,519,
0,550,813,412,6,515,
0,543,799,408,6,509,
0,538,788,405,6,504,
0,531,776,401,6,498,
0,526,772,398,6,494,
0,519,899,403,6,487,
0,515,885,399,6,483,
0,509,870,396,6,478,
0,504,859,391,6,473,
0,499,844,388,6,519,
0,559,831,385,6,513,
0,551,818,382,6,507,
0,544,808,379,6,502,
0,538,796,376,6,497,
0,534,784,373,5,492,
0,527,888,431,7,487,
0,521,903,432,7,481,
0,515,902,427,6,478,
0,510,881,423,6,472,
0,505,866,419,6,467,
0,504,852,415,6,516,
0,558,842,411,7,512,
0,551,828,407,7,505,
0,546,816,404,7,499,
0,540,803,399,7,495,
0,534,795,396,7,491,
0,527,895,435,7,485,
0,523,893,431,7,480,
0,516,875,426,7,475,
0,511,864,422,7,472,
0,505,850,417,7,466,
0,556,836,415,7,462,
0,555,824,411,7,456,
0,548,814,407,7,454,
0,542,801,403,7,449,
0,536,790,399,7,444,
0,531,804,396,7,440,
0,524,893,432,7,435,
0,519,878,428,7,432,
0,514,863,423,7,428,
0,508,848,420,7,424,
0,503,838,415,6,495,
0,568,825,412,7,490,
0,562,812,408,7,484,
0,555,799,404,7,479,
0,548,791,400,7,473,
0,542,779,397,6,470,
0,536,869,413,6,465,
0,531,903,420,6,460,
0,524,900,415,6,455,
0,519,884,412,6,451,
0,513,868,408,6,447,
0,508,855,404,6,480,
0,568,840,399,7,475,
0,561,831,396,7,471,
0,554,817,392,7,465,
0,550,805,390,7,460,
0,543,793,387,7,455,
0,536,888,444,7,451,
0,530,893,439,7,448,
0,526,875,435,7,443,
0,519,860,431,7,438,
0,514,850,427,7,435,
0,569,836,422,7,497,
0,563,824,419,7,491,
0,556,811,415,7,486,
0,550,801,411,7,480,
0,543,790,408,7,476,
0,538,777,404,7,472,
0,531,898,431,7,465,
0,526,889,425,7,461,
0,519,873,422,7,457,
0,515,859,419,6,452,
0,510,844,414,6,467,
0,568,834,410,6,460,
0,560,821,406,7,457,
0,553,808,403,7,452,
0,548,796,399,7,448,
0,542,783,396,6,443,
0,536,826,420,7,440,
0,529,902,423,7,435,
0,525,894,420,7,431,
0,519,876,415,7,427,
0,513,865,412,7,423,
0,508,851,408,6,493,
0,569,837,405,11,487,
0,563,824,401,12,481,
0,556,811,397,12,476,
0,548,799,393,12,471,
0,543,787,390,12,466,
0,536,892,433,11,461,
0,530,894,428,11,455,
0,524,876,423,11,451,
0,518,862,419,11,447,
0,512,847,415,11,499,
0,563,834,412,11,499,
0,556,821,408,11,494,
0,548,807,404,11,487,
0,543,796,400,11,483,
0,537,783,397,10,478,
0,531,888,423,11,472,
0,524,882,419,10,467,
0,519,866,415,10,463,
0,513,852,411,10,457,
0,508,841,407,9,494,
0,563,828,403,9,507,
0,556,815,399,9,501,
0,551,803,396,9,496,
0,544,791,391,9,489,
0,537,782,388,9,486,
0,531,771,393,9,481,
0,527,896,437,9,476,
0,520,880,432,9,470,
0,515,868,428,9,467,
0,510,854,423,9,462,
0,505,840,420,9,532,
0,558,826,415,8,526,
0,550,817,412,9,520,
0,543,804,408,9,515,
0,539,792,404,8,509,
0,532,781,401,9,504,
0,527,829,449,8,499,
0,520,892,450,8,494,
0,516,875,446,8,489,
0,510,860,441,7,483,
0,504,849,437,7,479,
0,511,836,432,7,516,
0,551,823,430,10,510,
0,544,809,425,12,504,
0,538,798,420,12,499,
0,531,786,417,12,494,
0,526,775,412,12,487,
0,519,892,440,12,483,
0,513,875,434,12,478,
0,508,864,430,12,472,
0,503,849,425,11,467,
0,497,836,422,11,530,
0,560,823,417,11,524,
0,552,810,413,12,519,
0,546,798,408,12,513,
0,540,785,405,12,507,
0,535,774,402,12,502,
0,529,884,441,12,496,
0,523,870,436,12,491,
0,516,855,432,12,486,
0,511,840,428,12,480,
0,505,827,423,12,476,
0,559,814,419,12,471,
0,551,804,415,15,465,
0,543,792,410,14,460,
0,537,780,407,14,455,
0,531,769,403,14,451,
0,526,842,434,14,448,
0,519,883,429,14,444,
0,513,867,424,14,440,
0,509,853,422,13,435,
0,504,839,417,13,431,
0,521,825,413,13,491,
0,552,813,408,13,484,
0,545,800,405,13,480,
0,540,788,401,13,473,
0,533,776,397,12,468,
0,527,768,395,12,463,
0,520,894,432,12,459,
0,515,878,428,12,454,
0,509,863,423,12,449,
0,504,848,419,12,446,
0,500,835,415,12,502,
0,556,822,410,12,495,
0,550,809,408,12,489,
0,544,796,403,12,484,
0,538,784,399,12,479,
0,531,774,396,11,474,
0,526,899,426,11,468,
0,519,892,422,11,463,
0,514,874,417,11,459,
0,508,864,413,11,454,
0,503,849,409,11,524,
0,554,835,404,10,517,
0,547,822,401,11,511,
0,540,809,397,11,507,
0,534,798,393,10,501,
0,527,785,390,10,496,
0,521,894,424,10,490,
0,518,898,420,10,484,
0,511,879,415,10,480,
0,505,864,412,10,475,
0,500,850,408,9,519,
0,564,839,403,9,512,
0,558,827,399,9,508,
0,551,814,396,9,502,
0,545,801,392,9,496,
0,539,790,390,9,491,
0,533,804,414,9,487,
0,527,891,427,9,481,
0,521,874,423,9,476,
0,516,860,419,9,472,
0,511,849,415,9,468,
0,504,835,411,8,520,
0,570,822,408,8,514,
0,563,809,403,9,508,
0,556,799,399,9,504,
0,548,788,396,9,498,
0,543,776,393,9,492,
0,537,890,446,9,487,
0,531,903,440,9,483,
0,525,890,435,9,478,
0,520,873,432,8,473,
0,515,859,427,9,468,
0,516,849,423,8,489,
0,543,835,419,8,485,
0,537,822,415,7,480,
0,531,809,412,9,475,
0,525,799,408,9,470,
0,519,788,404,9,466,
0,515,897,443,9,461,
0,509,905,438,9,455,
0,504,897,433,9,451,
0,499,878,428,8,448,
0,493,863,425,8,480,
0,558,849,421,9,521,
0,550,835,417,10,515,
0,543,825,412,10,510,
0,536,813,408,10,504,
0,531,800,404,10,498,
0,524,838,463,9,495,
0,519,896,480,9,488,
0,514,878,474,9,483,StartUp!
126,566,901,451,20,489,
0,560,902,448,19,486,
0,558,888,444,19,483,
0,552,880,440,19,480,
0,548,867,438,19,476,
0,543,857,435,19,488,
0,612,847,432,19,484,
0,608,836,429,19,481,
0,601,830,425,19,478,
0,595,819,423,19,473,
0,588,807,418,19,468,
0,581,795,414,18,463,
0,575,888,441,18,459,
0,569,905,435,18,455,
0,562,896,432,18,450,
0,556,877,427,17,446,
0,550,862,423,18,448,
0,600,848,418,17,502,
0,603,835,414,17,496,
0,595,822,409,17,490,
0,588,812,406,17,485,
0,580,799,402,17,480,
0,574,839,432,17,475,
0,567,903,432,16,470,
0,560,904,427,16,465,
0,553,883,423,15,460,
0,547,868,419,15,455,
0,542,855,415,15,492,
0,600,840,411,15,487,
0,591,827,408,15,481,
0,584,814,403,15,476,
0,577,802,399,15,471,
0,571,831,398,15,468,
0,568,903,430,15,463,
0,560,906,425,15,459,
0,553,892,421,15,454,
0,547,874,416,15,449,
0,542,860,413,15,461,
0,622,846,408,15,457,
0,613,831,404,15,452,
0,606,819,400,17,448,
0,600,807,398,17,443,
0,592,795,394,20,439,
0,585,899,443,20,435,
0,578,907,438,20,430,
0,571,896,433,19,427,
0,564,876,428,19,423,
1,558,863,424,19,491,
1,625,851,420,19,484,
3,617,838,415,19,480,
3,609,824,412,21,473,
3,601,812,408,22,468,
4,593,799,404,22,465,
5,587,892,481,33,460,
6,579,906,475,32,455,
6,575,903,472,31,451,
6,568,883,467,31,446,
7,561,867,462,31,482,
7,630,854,456,31,505,
7,620,839,451,31,499,
7,612,827,448,31,494,
7,604,814,443,33,487,
7,596,804,439,32,483,
7,590,859,496,38,478,
8,583,904,493,37,472,
8,575,907,487,36,467,
8,568,889,483,36,463,
9,562,872,478,35,460,
8,633,859,472,35,534,
9,624,844,468,35,527,
8,617,831,463,35,521,
8,609,818,460,35,515,
8,601,806,455,35,510,
9,594,847,451,35,504,
9,587,903,496,35,498,
8,579,904,491,34,493,
8,573,888,486,34,487,
8,567,872,480,34,483,
8,560,859,476,33,536,
9,633,844,471,33,529,
8,625,831,465,33,524,
8,617,817,461,33,519,
7,609,805,455,32,513,
7,601,793,453,43,508,
7,596,900,518,42,502,
7,588,905,512,41,496,
7,582,888,505,41,492,
7,575,871,500,40,486,
7,568,857,496,40,533,
7,630,844,489,39,526,
7,622,830,484,39,519,
7,614,819,480,39,515,
7,606,807,475,39,508,
7,598,796,470,39,504,
7,591,892,487,45,497,
7,583,905,483,44,493,
7,576,896,477,44,487,
7,569,876,473,44,483,
7,565,862,468,43,496,
7,624,847,463,42,506,
7,615,834,460,42,499,
7,607,821,455,41,495,
7,599,808,450,41,489,
6,591,796,446,41,483,
6,583,891,481,44,479,
6,577,903,475,43,473,
7,570,900,470,43,468,
6,563,880,465,42,463,
6,557,865,460,41,491,
6,627,851,455,41,519,
6,619,838,451,41,513,
6,611,824,446,40,508,
6,604,812,443,39,502,
6,597,799,439,39,496,
5,590,855,435,39,491,
6,583,903,483,39,486,
6,575,906,478,39,480,
6,569,888,472,39,476,
5,563,871,467,38,471,
5,562,861,463,38,520,
5,619,847,458,38,515,
4,611,833,454,37,508,
5,603,820,448,37,504,
4,595,807,444,36,499,
4,588,796,440,37,494,
4,581,902,484,36,487,
4,575,909,480,36,483,
4,569,908,475,35,478,
4,563,886,470,35,473,
4,556,871,465,35,518,
4,619,856,460,35,512,
4,611,843,455,35,505,
4,603,829,451,34,500,
4,595,819,446,34,495,
3,588,807,441,34,489,
3,582,896,480,34,483,
3,574,907,475,33,479,
3,568,905,470,33,475,
3,560,884,464,33,470,
3,555,868,460,33,507,
3,612,855,455,32,500,
3,607,841,451,31,494,
3,598,828,448,31,488,
3,591,815,443,31,483,
3,583,803,438,31,478,
3,577,894,481,35,473,
3,569,907,475,35,468,
3,563,910,470,34,463,
3,556,900,465,35,459,
3,550,878,460,34,463,
3,615,864,455,33,457,
3,608,849,451,33,454,
3,600,836,446,33,449,
3,591,824,441,33,445,
3,584,811,439,32,440,
3,579,865,436,32,436,
2,572,904,451,31,432,
2,566,904,447,31,428,
2,559,884,442,31,423,
2,552,870,438,31,420,
2,575,856,433,31,473,
2,604,841,429,31,467,
2,595,831,425,30,463,
2,588,818,422,30,457,
2,580,806,417,30,452,
2,574,793,414,31,448,
2,568,901,467,30,444,
2,560,907,462,30,440,
1,554,892,456,30,435,
1,549,875,453,29,431,
2,543,860,448,29,490,
1,601,846,444,29,483,
1,593,831,440,28,479,
1,587,819,435,28,473,
1,579,807,431,28,468,
1,572,795,427,28,463,
1,566,896,460,32,458,
1,559,906,455,32,454,
1,551,897,450,31,448,
1,545,878,446,31,444,
1,540,863,441,31,497,
1,600,849,436,31,491,
1,591,835,432,31,484,
1,587,822,429,30,480,
1,579,809,424,30,474,
1,572,797,420,30,470,
1,566,894,463,31,463,
0,559,905,458,31,459,
1,551,893,454,31,455,
1,545,875,448,31,450,
1,540,864,444,31,499,
1,600,850,440,31,497,
1,591,836,435,30,492,
1,585,824,431,30,487,
0,577,811,427,30,482,
0,571,798,423,30,477,
0,563,871,453,31,472,
0,557,904,449,31,467,
0,551,905,444,30,462,
0,545,886,440,30,457,
0,540,870,435,30,452,
0,563,856,431,30,462,
0,590,842,426,29,455,
1,582,829,422,28,451,
0,575,819,418,28,447,
0,568,807,414,28,442,
0,561,796,415,28,438,
0,554,902,451,28,433,
0,547,907,446,28,430,
0,542,892,441,27,426,
0,536,874,436,27,422,
0,548,860,433,27,476,
0,588,846,428,27,470,
0,580,831,423,26,464,
0,574,819,420,26,460,
0,567,807,415,25,455,
0,560,795,412,28,450,
0,553,901,459,27,445,
0,547,907,453,27,440,
0,540,899,448,27,436,
0,535,878,444,27,432,
0,528,864,440,26,489,
0,591,849,435,25,483,
0,583,836,430,25,479,
0,575,823,426,25,473,
0,568,810,423,25,468,
0,563,798,419,25,463,
0,556,897,457,28,459,
0,550,908,452,29,454,
0,543,910,448,28,448,
0,537,898,443,28,444,
0,531,877,438,28,483,
0,590,862,433,28,476,
0,582,852,429,27,471,
0,574,838,425,27,465,
0,568,825,420,27,460,
0,560,812,417,26,455,
0,553,881,462,31,451,
0,547,905,455,31,448,
0,540,907,451,31,443,
0,536,888,448,30,438,
0,530,871,443,30,433,
0,568,857,439,30,453,
0,583,844,434,29,448,
0,575,830,430,29,443,
0,568,817,425,28,438,
0,561,805,422,29,433,
0,555,812,434,33,430,
0,548,903,455,33,425,
0,542,907,451,32,421,
0,536,892,447,32,417,
0,529,874,442,31,414,
0,551,860,438,31,473,
0,578,846,433,31,467,
0,572,831,430,31,463,
0,566,819,425,31,457,
0,558,807,422,30,452,
0,551,797,417,37,448,
0,545,902,459,36,443,
0,539,908,454,36,439,
0,532,896,448,35,434,
0,527,880,444,35,430,
0,521,865,440,35,478,
0,587,851,435,34,472,
0,579,838,431,34,467,
0,572,824,426,34,463,
0,564,812,422,33,459,
0,558,799,418,33,454,
0,551,896,457,38,448,
0,547,904,452,38,444,
0,540,888,448,37,440,
0,534,871,443,36,435,
0,527,857,438,36,476,
0,593,844,433,36,469,
0,585,830,429,35,463,
0,577,820,424,35,459,
0,571,807,421,35,454,
0,563,796,417,35,449,
0,558,888,475,35,444,
0,551,906,468,35,440,
0,543,911,463,34,436,
0,537,910,459,34,432,
0,531,888,455,33,428,
0,584,872,451,33,486,
0,587,857,446,33,480,
0,579,844,441,33,475,
0,572,831,437,32,470,
0,564,818,432,31,464,
0,558,884,455,32,460,
0,551,906,467,32,455,
0,545,910,462,32,450,
0,539,907,456,31,446,
0,533,884,451,31,441,
0,561,870,448,31,455,
0,571,856,443,31,451,
0,563,841,438,31,446,
0,557,828,435,31,441,
0,551,815,431,30,436,
0,545,817,427,31,432,
0,539,903,465,31,428,
0,532,908,460,30,423,
0,527,899,455,30,419,
0,521,879,451,30,415,
0,515,864,446,30,470,
0,575,853,441,29,463,
0,569,839,436,29,459,
0,562,826,432,29,454,
0,555,814,428,28,449,
0,548,801,423,29,446,
0,542,898,462,31,440,
0,536,907,455,31,435,
0,531,902,452,30,432,
0,525,880,448,30,428,
0,519,866,444,30,491,
0,586,851,439,30,483,
0,578,838,434,29,479,
0,571,825,430,29,473,
0,564,812,425,29,467,
0,558,803,422,28,463,
0,551,888,476,41,457,
0,543,905,470,40,453,
0,537,904,464,40,448,
0,531,883,460,39,445,
0,526,868,455,39,454,
0,596,854,450,39,498,
0,590,840,447,39,492,
0,583,827,441,39,487,
0,575,814,438,38,481,
0,568,802,433,38,476,
0,561,885,466,42,471,
0,555,905,465,41,465,
0,548,909,460,41,461,
0,542,900,455,41,455,
0,536,879,451,39,452,
0,580,865,446,39,515,
0,596,850,441,39,508,
0,588,836,436,39,504,
0,582,824,432,39,498,
0,574,811,428,39,493,
0,568,824,425,39,487,
0,563,903,457,39,482,
0,556,907,452,39,477,
0,549,890,448,39,472,
0,543,873,443,39,467,
0,537,860,439,38,510,
0,604,845,433,38,504,
0,595,835,430,37,497,
0,588,822,425,37,492,
0,580,809,421,36,487,
0,574,797,417,36,482,
0,567,898,451,36,478,
0,560,906,447,35,472,
0,553,892,441,35,467,
0,547,874,439,35,463,
0,542,860,434,35,528,
0,611,846,430,34,521,
0,603,831,425,34,515,
0,595,819,421,34,509,
0,588,807,417,33,504,
0,580,795,413,33,498,
0,574,897,455,34,492,
0,567,905,450,33,487,
0,560,899,445,33,482,
0,553,879,440,33,477,
0,547,864,436,32,480,
0,615,850,432,32,476,
0,608,836,428,31,470,
0,600,824,423,31,465,
0,594,811,420,31,460,
0,587,799,415,31,455,
0,580,886,463,34,451,
0,573,905,464,34,447,
0,566,902,460,33,443,
0,560,881,455,33,438,
0,553,866,449,33,446,
0,591,856,445,32,512,
0,603,841,440,32,505,
0,595,828,435,31,499,
0,587,816,432,31,494,
0,579,803,428,31,490,
0,573,825,450,36,485,
0,566,903,458,35,480,
0,561,901,455,35,475,
0,555,881,449,35,470,
0,548,866,445,35,464,
0,542,852,440,34,521,
0,604,838,435,34,515,
0,596,824,432,34,508,
0,589,812,428,33,504,
0,582,803,423,33,497,
0,575,791,419,34,492,
0,568,899,453,34,487,
0,561,909,448,33,482,
0,555,911,444,33,478,
0,548,897,439,33,472,
0,542,876,435,33,519,
0,609,862,431,32,512,
0,602,847,427,31,506,
0,595,834,423,31,500,
0,588,822,419,31,495,
0,580,809,415,31,489,
0,573,899,449,31,484,
0,567,907,444,30,480,
0,560,903,440,30,474,
0,553,881,435,30,469,
0,547,867,431,30,524,
0,615,852,427,29,516,
0,607,839,422,29,512,
0,600,825,418,29,505,
0,591,813,414,28,500,
0,584,800,411,28,495,
0,579,888,438,29,489,
0,572,904,436,28,484,
0,566,894,432,28,479,
0,559,876,428,28,474,
0,552,861,423,28,475,
0,614,847,419,28,510,
0,604,833,414,28,504,
0,596,824,411,27,498,
0,589,811,407,27,493,
0,582,799,403,27,487,
0,575,835,444,29,483,
0,568,903,448,28,478,
0,561,900,444,28,473,
0,554,880,440,28,467,
0,550,865,435,28,463,
0,543,851,431,28,513,
0,595,838,427,27,507,
0,588,824,423,27,502,
0,580,812,418,27,496,
0,574,799,415,27,491,
0,567,818,411,36,486,
0,560,899,449,35,480,
0,553,902,444,35,475,
0,547,882,440,35,470,
0,540,867,435,35,465,
0,535,854,431,34,528,
0,602,839,426,34,522,
0,594,825,422,33,515,
0,588,813,419,33,510,
0,582,801,415,33,504,
0,574,788,411,35,499,
0,568,898,447,35,494,
0,560,903,441,35,487,
0,554,884,436,35,483,
0,547,870,432,34,478,
0,542,859,428,34,526,
0,608,845,423,33,519,
0,600,831,419,33,513,
0,591,818,415,33,508,
0,583,806,411,33,504,
0,577,793,408,32,497,
0,571,889,444,33,492,
0,565,904,440,33,487,
0,559,893,435,32,481,
0,551,875,431,31,476,
0,545,860,426,31,494,
0,600,846,422,31,519,
0,591,832,417,31,513,
0,584,819,414,31,508,
0,577,811,409,31,502,
0,571,798,406,30,496,
0,563,857,452,30,492,
0,557,904,452,30,486,
0,551,908,448,30,482,
0,543,894,443,29,477,
0,537,876,439,29,472,
0,605,861,435,29,512,
0,603,847,430,29,507,
0,595,833,426,28,500,
0,588,820,422,28,495,
0,580,807,417,28,489,
0,574,841,414,29,484,
0,567,903,444,28,480,
0,560,906,440,28,473,
0,553,889,435,28,469,
0,547,873,431,28,464,
0,541,859,427,28,510,
0,608,844,422,27,505,
0,600,831,418,27,499,
0,592,818,414,27,494,
0,585,806,411,27,488,
0,579,793,408,28,483,
0,573,900,455,28,478,
0,566,909,449,28,472,
0,560,909,444,28,467,
0,553,888,440,28,463,
0,547,872,435,28,470,
0,608,858,431,27,464,
0,600,847,427,27,460,
0,592,834,423,27,455,
0,585,821,418,26,450,
0,577,808,414,25,446,
0,571,894,446,28,443,
0,563,906,441,27,438,
0,558,902,438,27,433,
0,552,880,433,27,430,
0,546,865,428,26,453,
0,610,851,423,26,467,
0,601,838,419,25,462,
0,593,824,415,25,456,
0,587,812,412,25,451,
0,579,799,408,25,447,
0,572,857,452,25,442,
0,566,903,448,25,438,
0,559,896,443,24,433,
0,551,878,438,24,429,
0,545,863,433,24,425,
0,611,849,429,24,487,
0,601,835,424,24,481,
0,595,822,422,24,476,
0,588,809,417,24,471,
0,581,797,414,24,465,
0,574,840,409,23,460,
0,568,903,444,23,455,
0,560,894,439,23,451,
0,553,876,434,23,447,
0,547,865,430,22,442,
0,553,851,425,22,501,
0,603,837,422,22,495,
0,595,824,417,22,489,
0,588,811,413,22,486,
0,580,799,409,21,480,
0,573,791,406,21,476,
0,568,902,430,21,470,
0,561,909,424,20,465,
0,555,904,420,20,460,
0,548,883,415,20,455,
0,542,868,412,20,518,
0,606,853,408,20,511,
0,599,839,403,19,505,
0,591,830,399,19,499,
0,583,816,396,19,494,
0,575,804,393,19,489,
0,569,895,435,19,483,
0,563,903,430,19,480,
0,556,889,425,19,475,
0,550,872,422,19,470,
0,543,858,419,19,520,
0,623,844,414,19,521,
0,614,831,409,19,515,
0,606,817,406,18,510,
0,598,806,402,18,504,
0,591,793,399,18,498,
0,583,888,432,17,492,
0,575,895,426,17,487,
0,569,877,422,17,482,
0,563,862,417,17,477,
0,556,847,413,17,513,
0,625,835,409,17,534,
0,615,821,405,17,527,
0,608,808,401,16,521,
0,600,796,398,16,515,
0,595,783,395,16,510,
0,588,841,391,17,504,
0,580,900,423,17,499,
0,574,884,419,17,494,
0,567,869,414,17,487,
0,560,855,410,16,483,
0,557,841,406,16,545,
0,614,831,401,15,538,
0,606,817,398,15,532,
0,598,805,394,15,526,
0,590,792,391,15,519,
0,583,781,387,15,515,
0,575,899,417,15,510,
0,569,893,412,15,504,
0,564,875,409,15,499,
0,558,860,405,15,494,
0,551,847,401,15,556,
0,621,832,397,15,548,
0,612,819,393,15,542,
0,605,807,390,15,536,
0,597,795,386,14,529,
0,590,786,384,14,524,
0,583,897,435,17,518,
0,575,908,431,17,512,
0,568,912,427,17,507,
0,562,910,422,17,503,
0,556,887,418,17,519,
0,630,871,414,17,512,
0,624,857,411,17,506,
0,615,843,407,16,500,
0,608,830,402,16,495,
0,600,817,399,16,490,
0,592,895,430,16,485,
0,585,905,424,15,480,
0,578,891,420,15,475,
0,572,878,415,15,471,
0,565,863,412,15,518,
0,633,848,408,15,530,
0,624,835,403,15,524,
0,615,822,399,15,519,
0,608,809,396,15,513,
0,600,797,391,15,508,
0,593,849,392,15,503,
0,588,889,415,14,497,
0,580,871,409,14,492,
0,574,857,406,15,487,
0,568,844,401,14,481,
0,575,830,398,14,545,
0,620,817,393,14,538,
0,611,807,390,14,532,
0,604,796,387,14,526,
0,596,783,384,14,519,
0,589,772,380,14,514,
0,582,899,416,14,510,
0,575,888,412,13,504,
0,568,871,408,13,499,
0,561,857,404,13,494,
0,557,844,401,13,560,
0,631,830,396,13,551,
0,622,816,393,12,545,
0,614,804,389,12,540,
0,606,792,385,12,533,
0,599,780,382,12,527,
0,591,898,423,12,521,
0,583,891,419,12,515,
0,577,873,415,12,510,
0,571,859,411,12,504,
0,563,846,407,12,557,
0,630,831,402,12,551,
0,621,818,398,12,544,
0,612,806,396,12,539,
0,607,793,391,12,532,
0,600,782,388,12,526,
0,592,892,423,12,520,
0,584,890,418,12,515,
0,577,872,414,12,509,
0,571,859,409,11,504,
0,564,844,406,11,559,
0,627,834,401,11,568,
0,619,821,398,11,561,
0,611,807,393,11,555,
0,603,796,390,11,548,
0,595,783,387,11,543,
0,588,856,423,11,537,
0,582,887,419,11,531,
0,575,871,415,11,526,
0,569,856,411,11,519,
0,563,842,408,10,515,
0,592,828,403,11,566,
0,630,816,399,11,559,
0,621,803,396,10,551,
0,613,792,391,10,545,
0,606,782,387,10,539,
0,598,771,393,10,534,
0,591,892,412,9,528,
0,583,875,408,9,523,
0,578,860,404,9,518,
0,572,847,400,9,512,
0,565,836,397,9,560,
0,638,823,392,10,551,
0,630,809,389,11,545,
0,623,798,387,10,539,
0,615,785,383,10,532,
0,608,774,380,9,527,
0,600,893,455,10,520,
0,592,881,448,9,515,
0,585,870,444,9,511,
0,579,856,439,9,505,
0,574,840,435,9,531,
0,638,828,432,9,575,
0,633,818,427,9,571,
0,625,805,423,9,564,
0,620,793,419,9,558,
0,611,782,415,9,551,
0,604,773,412,10,545,
0,597,895,422,10,540,
0,590,879,417,9,535,
0,583,864,414,9,528,
0,577,850,409,9,523,
0,571,839,406,9,577,
0,636,826,402,9,571,
0,627,814,399,9,564,
0,621,801,396,9,558,
0,613,789,391,9,551,
0,605,780,388,9,546,
0,598,867,423,9,540,
0,592,896,419,9,534,
0,585,879,414,9,528,
0,579,867,410,9,524,
0,572,853,406,8,519,
0,567,839,403,8,584,
0,630,825,399,9,577,
0,620,816,395,9,572,
0,612,803,391,9,566,
0,607,792,388,9,559,
0,600,780,385,8,552,
0,591,889,428,8,547,
0,584,891,423,8,542,
0,579,873,420,7,536,
0,572,859,415,7,529,
0,566,847,412,7,575,
0,643,834,408,7,591,
0,635,820,404,9,583,
0,627,807,400,9,577,
0,619,799,396,8,570,
0,611,787,392,8,566,
0,605,775,391,9,559,
0,598,900,419,8,552,
0,590,900,415,7,546,
0,583,881,411,8,542,
0,575,866,408,7,536,
0,571,851,403,7,594,
0,636,838,399,7,587,
0,627,828,396,7,581,
0,619,815,391,7,574,
0,614,803,389,7,568,
0,606,791,385,7,560,
0,599,846,422,7,556,
0,591,903,417,7,550,
0,585,902,414,7,543,
0,578,882,409,7,537,
0,572,871,406,7,532,
0,571,857,401,7,583,
0,632,842,399,7,575,
0,623,829,395,7,568,
0,615,819,391,7,561,
0,608,807,387,7,556,
0,601,795,384,7,550,
0,595,895,416,7,543,
0,587,901,412,7,537,
0,579,884,408,7,533,
0,575,869,404,7,527,
0,568,855,400,6,521,
0,624,844,396,6,568,
0,626,830,392,6,563,
0,617,817,390,6,556,
0,611,805,386,6,550,
0,604,792,383,6,543,
0,596,783,380,6,539,
0,589,897,409,6,532,
0,583,886,404,6,527,
0,577,870,400,6,521,
0,570,859,396,6,516,
0,563,845,393,6,571,
0,633,831,390,6,575,
0,624,818,386,6,568,
0,615,808,383,6,563,
0,608,796,379,6,556,
0,602,783,376,6,551,
0,595,852,391,6,543,
0,588,894,411,6,540,
0,580,877,406,6,534,
0,575,862,403,6,527,
0,568,847,399,6,521,
0,562,838,396,6,562,
0,621,824,391,5,556,
0,615,812,388,6,550,
0,607,799,385,5,543,
0,600,790,381,5,537,
0,591,779,377,5,533,
0,587,887,412,5,527,
0,579,892,408,5,521,
0,572,878,403,5,515,
0,566,863,399,5,512,
0,559,849,396,4,506,
0,564,835,391,4,512,
0,619,822,388,5,505,
0,611,812,384,5,502,
0,603,799,381,4,496,
0,598,787,378,4,492,
0,590,776,375,4,487,
0,583,894,427,4,483,
0,575,886,422,4,478,
0,571,870,419,4,473,
0,564,856,415,4,469,
0,558,844,411,4,479,
0,626,831,407,4,524,
0,620,818,403,4,518,
0,611,806,399,4,512,
0,604,796,396,4,508,
0,595,784,391,4,502,
0,590,813,390,4,497,
0,583,898,419,4,492,
0,575,886,415,4,486,
0,569,870,411,4,482,
0,564,856,408,4,477,
0,558,842,403,4,543,
0,624,831,399,4,536,
0,615,818,396,4,531,
0,609,806,393,3,526,
0,601,793,390,3,519,
0,594,784,385,4,514,
0,587,860,410,4,510,
0,579,880,407,3,504,
0,574,864,403,3,499,
0,568,850,398,3,494,
0,561,839,395,3,489,
0,596,827,391,3,560,
0,630,814,387,3,553,
0,621,801,384,3,547,
0,614,792,380,3,542,
0,606,780,376,3,536,
0,600,768,375,3,530,
0,592,894,412,3,524,
0,585,887,408,3,519,
0,578,871,403,3,514,
0,573,856,400,3,508,
0,567,843,396,3,538,
0,632,831,392,3,556,
0,624,819,388,3,548,
0,617,806,386,3,542,
0,609,793,382,3,536,
0,601,785,379,3,529,
0,594,775,376,3,526,
0,589,901,423,3,519,
0,582,907,419,3,513,
0,575,898,415,3,508,
0,568,878,411,3,504,
0,563,864,408,3,547,
0,630,849,403,3,540,
0,620,839,399,3,532,
0,612,825,396,3,527,
0,605,813,393,3,523,
0,600,800,390,2,516,
0,591,886,414,3,511,
0,584,903,411,3,507,
0,577,896,407,3,501,
0,572,876,403,3,496,
0,566,862,399,3,491,
0,560,852,396,3,559,
0,620,838,391,3,551,
0,614,824,389,3,544,
0,606,812,385,3,539,
0,599,803,382,3,534,
0,591,791,378,2,527,
0,586,894,419,3,522,
0,579,895,414,2,516,
0,572,880,409,2,512,
0,565,865,406,2,506,
0,560,851,403,2,502,
0,608,838,399,2,558,
0,618,827,395,3,551,
0,610,815,391,3,546,
0,604,801,388,3,540,
0,596,790,384,3,534,
0,589,782,381,3,527,
0,582,897,420,3,524,
0,576,889,417,3,518,
0,569,872,412,2,512,
0,563,862,408,3,507,
0,557,847,404,2,531,
0,621,833,401,2,529,
0,615,820,398,3,523,
0,607,807,393,3,516,
0,600,799,390,3,512,
0,591,787,386,3,507,
0,586,855,393,3,502,
0,579,903,415,3,496,
0,572,903,411,3,492,
0,566,883,407,3,487,
0,560,867,403,3,482,
0,554,854,399,3,543,
0,617,843,396,3,537,
0,609,829,391,3,531,
0,604,816,389,3,525,
0,596,804,385,3,519,
0,588,795,382,3,515,
0,582,888,428,3,509,
0,575,903,424,3,504,
0,569,888,419,3,498,
0,563,876,415,3,493,
0,556,861,412,3,489,
0,564,847,408,3,550,
0,618,833,404,3,543,
0,610,824,400,3,537,
0,603,811,396,3,532,
0,596,798,393,3,526,
0,589,787,390,4,520,
0,583,895,427,4,515,
0,575,895,422,3,510,
0,568,876,419,4,504,
0,563,862,414,3,499,
0,556,847,409,3,551,
0,619,838,406,3,543,
0,610,824,402,4,537,
0,604,811,399,4,531,
0,596,799,395,4,525,
0,589,790,391,4,520,
0,583,823,423,5,515,
0,577,902,440,5,510,
0,570,897,435,5,504,
0,563,881,430,5,499,
0,557,867,426,5,495,
0,551,852,423,4,550,
0,620,839,419,5,543,
0,612,828,415,4,537,
0,604,816,410,4,531,
0,599,803,408,5,526,
0,591,792,403,4,519,
0,583,875,441,5,513,
0,575,903,435,4,510,
0,572,896,432,4,504,
0,564,876,428,4,499,
0,558,865,423,4,494,
0,584,851,419,4,548,
0,615,838,416,4,542,
0,607,824,412,4,536,
0,599,815,408,4,529,
0,591,802,404,4,524,
0,583,791,401,4,519,
0,579,897,430,4,513,
0,572,902,424,4,508,
0,566,888,420,4,504,
0,559,871,415,4,498,
0,553,856,412,4,497,
0,622,843,408,4,516,
0,612,831,404,6,512,
0,604,819,401,6,505,
0,599,807,398,5,500,
0,591,795,394,6,495,
0,583,786,391,6,492,
0,576,900,427,5,486,
0,572,899,423,5,481,
0,564,880,419,5,476,
0,558,868,415,5,472,
0,551,854,411,5,547,
0,617,839,408,6,540,
0,609,827,403,6,534,
0,601,817,399,6,527,
0,593,804,396,6,523,
0,588,792,392,6,517,
0,582,887,435,6,511,
0,574,903,436,6,505,
0,568,910,432,6,502,
0,560,906,428,6,496,
0,556,883,423,6,491,
0,550,872,419,6,492,
0,610,857,415,7,487,
0,602,844,412,7,483,
0,596,830,408,7,478,
0,589,817,404,7,473,
0,582,807,399,7,470,
0,575,896,439,7,465,
0,569,905,435,7,460,
0,563,896,430,7,455,
0,556,880,425,7,452,
0,550,865,422,7,448,
0,594,851,418,7,493,
0,604,838,414,7,487,
0,595,828,409,7,483,
0,588,815,406,7,478,
0,583,803,403,7,473,
0,575,822,399,7,467,
0,568,899,453,7,463,
0,561,904,448,7,459,
0,556,886,444,7,455,
0,550,871,440,7,449,
0,543,860,435,7,508,
0,612,846,431,7,504,
0,606,831,428,9,497,
0,599,819,423,9,492,
0,591,809,419,9,487,
0,583,798,415,9,483,
0,576,857,422,9,478,
0,572,898,455,9,472,
0,564,880,449,9,467,
0,558,869,444,9,463,
0,551,856,440,8,459,
0,547,841,437,8,467,
0,605,828,432,8,462,
0,597,817,428,8,459,
0,589,805,423,8,454,
0,583,793,420,8,449,
0,575,781,416,9,445,
0,570,883,444,12,440,
0,563,901,438,12,436,
0,556,883,433,11,433,
0,550,867,430,11,429,
0,543,854,425,11,444,
0,610,839,422,11,479,
0,604,826,417,11,473,
0,595,814,414,11,467,
0,588,801,409,11,463,
0,581,790,406,10,457,
0,574,880,440,11,453,
0,568,903,437,10,448,
0,560,895,432,10,444,
0,553,876,428,10,440,
0,547,861,423,10,435,
0,595,847,419,9,464,
0,598,833,415,11,459,
0,591,820,412,11,454,
0,584,807,408,11,449,
0,577,796,404,11,444,
0,570,816,400,12,440,
0,563,902,438,12,435,
0,556,896,433,12,431,
0,551,876,428,12,427,
0,543,865,423,12,423,
0,538,852,420,12,480,
0,591,838,415,12,475,
0,583,824,412,12,469,
0,575,812,408,11,465,
0,569,799,403,11,460,
0,563,787,399,11,455,
0,556,897,440,11,451,
0,551,898,434,11,446,
0,544,880,430,11,441,
0,538,864,425,11,436,
0,532,851,422,10,499,
0,599,836,416,10,492,
0,591,824,412,10,487,
0,583,814,408,10,481,
0,575,801,404,10,476,
0,568,790,401,9,472,
0,563,889,446,11,467,
0,556,903,440,11,462,
0,551,889,438,11,457,
0,543,872,432,10,452,
0,537,859,428,10,469,
0,601,844,423,10,497,
0,591,831,419,11,492,
0,583,817,415,10,487,
0,577,806,412,11,481,
0,570,796,408,10,476,
0,563,847,452,10,471,
0,556,903,448,10,465,
0,550,904,442,11,461,
0,543,884,438,10,457,
0,537,869,433,10,452,
0,607,856,429,9,510,
0,601,841,425,9,504,
0,593,828,422,9,497,
0,586,818,417,9,494,
0,579,806,413,9,487,
0,574,793,410,9,483,
0,568,902,423,9,478,
0,560,907,418,9,473,
0,553,899,414,9,468,
0,548,879,411,9,463,
0,542,864,407,9,508,
0,601,854,403,9,502,
0,593,839,399,9,497,
0,587,827,396,9,492,
0,579,814,393,9,487,
0,573,804,389,9,481,
0,566,848,424,11,478,
0,560,903,448,11,472,
0,552,910,443,11,467,
0,546,908,440,11,462,
0,542,886,435,11,457,
0,536,871,431,10,454,
0,599,857,427,10,449,
0,591,843,422,10,444,
0,583,830,418,10,440,
0,575,816,414,9,435,
0,569,807,410,11,432,
0,563,899,444,11,428,
0,556,907,439,11,423,
0,550,895,434,11,420,
0,543,876,430,11,416,
0,539,862,427,11,475,
0,605,847,422,11,469,
0,596,833,417,11,463,
0,589,820,414,11,459,
0,582,808,409,10,454,
0,575,796,406,13,449,
0,568,897,441,15,444,
0,561,904,435,14,440,
0,555,892,432,14,435,
0,547,875,427,14,431,
0,542,860,423,14,486,
0,601,846,419,14,481,
0,593,831,414,14,476,
0,586,819,410,14,470,
0,579,807,408,14,465,
0,573,795,403,13,460,
0,567,886,448,14,455,
0,560,903,449,14,450,
0,553,893,444,14,446,
0,547,876,440,14,441,
0,540,860,435,14,455,
0,598,850,431,13,486,
0,589,836,427,13,480,
0,582,824,422,13,475,
0,575,811,418,13,470,
0,568,798,414,13,466,
0,561,842,444,13,462,
0,553,903,449,12,455,
0,547,908,445,12,451,
0,543,891,440,13,447,
0,536,873,435,12,442,
0,531,860,432,12,496,
0,594,846,428,12,491,
0,587,831,423,12,484,
0,579,819,419,12,480,
0,572,807,415,12,474,
0,565,798,411,12,470,
0,559,900,449,12,463,
0,551,908,444,12,459,
0,545,902,440,12,455,
0,539,880,435,12,451,
0,533,865,431,11,454,
0,602,851,428,11,448,
0,596,838,423,12,444,
0,588,824,419,12,440,
0,582,812,415,12,435,
0,575,799,411,12,431,
0,568,899,439,12,427,
0,560,908,434,12,423,
0,554,910,429,12,419,
0,547,903,425,12,415,
0,542,880,421,12,485,
0,600,865,416,12,479,
0,591,851,412,11,473,
0,584,838,408,11,469,
0,577,824,404,11,463,
0,571,812,400,11,459,
0,566,891,457,13,455,
0,559,905,451,12,449,
0,551,895,447,12,445,
0,545,876,442,12,440,
0,540,862,438,12,460,
0,609,847,433,12,496,
0,600,834,428,12,490,
0,592,824,424,12,484,
0,584,812,420,12,480,
0,577,799,415,12,473,
0,571,846,457,12,469,
0,563,903,459,12,465,
0,557,902,454,12,460,
0,551,881,449,12,455,
0,545,867,446,12,451,
0,540,852,440,11,504,
0,608,838,436,11,499,
0,600,825,432,11,493,
0,592,812,428,11,487,
0,585,799,423,11,483,
0,578,826,419,12,477,
0,571,899,452,12,472,
0,564,902,448,11,467,
0,558,881,443,11,462,
0,551,867,438,11,457,
0,545,854,433,11,512,
0,611,839,429,11,505,
0,602,825,424,11,499,
0,595,813,422,11,494,
0,589,799,417,11,488,
0,582,788,414,11,483,
0,575,899,443,11,478,
0,568,906,439,11,472,
0,561,892,433,11,467,
0,555,874,429,10,463,
0,548,863,425,11,516,
0,603,848,420,11,510,
0,595,835,416,10,504,
0,588,822,412,10,498,
0,580,809,408,9,494,
0,575,797,406,12,488,
0,568,891,448,28,483,
0,561,905,443,27,478,
0,555,899,439,27,473,
0,547,879,433,27,468,
0,542,864,430,26,493,
0,611,849,425,26,507,
0,601,839,420,25,501,
0,594,826,416,25,495,
0,587,814,412,25,489,
0,579,801,408,25,484,
0,573,855,449,25,480,
0,566,903,444,24,475,
0,559,898,440,24,471,
0,552,878,435,24,465,
0,547,864,432,24,460,
0,550,849,428,24,507,
0,598,835,423,24,501,
0,591,823,419,24,495,
0,583,810,415,23,489,
0,575,798,411,23,484,
0,568,789,407,23,480,
0,562,900,446,23,474,
0,555,905,440,23,468,
0,549,887,436,23,463,
0,543,871,432,22,460,
0,536,857,428,22,515,
0,600,843,423,22,508,
0,592,829,419,22,503,
0,587,816,415,21,497,
0,579,804,412,21,492,
0,572,792,408,20,486,
0,566,900,435,20,480,
0,560,903,430,20,476,
0,552,886,425,20,471,
0,546,870,422,19,465,
0,540,859,417,19,530,
0,612,845,413,19,523,
0,604,831,409,19,516,
0,596,819,405,19,511,
0,588,807,401,19,507,
0,582,794,398,19,501,
0,575,892,443,19,496,
0,569,903,436,18,491,
0,563,888,432,18,486,
0,556,871,428,18,480,
0,550,857,423,18,504,
0,617,843,419,17,519,
0,608,830,415,17,512,
0,600,817,411,17,507,
0,592,807,407,17,501,
0,585,795,403,17,496,
0,578,872,454,17,490,
0,571,905,448,17,484,
0,564,906,444,17,481,
0,558,887,440,17,476,
0,551,871,435,16,471,
0,561,857,432,16,516,
0,609,843,427,16,511,
0,601,829,423,16,504,
0,593,816,418,15,499,
0,586,804,414,15,494,
0,579,841,411,15,488,
0,572,898,435,15,483,
0,565,886,431,15,478,
0,559,870,425,15,473,
0,551,856,422,15,467,
0,546,842,417,15,525,
0,607,828,414,15,519,
0,600,815,409,15,514,
0,591,803,406,15,508,
0,585,791,403,15,503,
0,579,780,399,15,497,
0,572,902,445,15,492,
0,565,908,440,14,487,
0,558,901,435,14,481,
0,551,879,431,14,476,
0,545,865,427,14,532,
0,609,854,423,14,526,
0,600,839,418,14,519,
0,593,827,414,14,513,
0,586,814,410,14,508,
0,579,801,407,14,504,
0,572,895,448,14,498,
0,565,905,443,14,493,
0,558,896,440,14,487,
0,553,877,435,14,483,
0,547,863,431,13,530,
0,609,848,427,14,526,
0,601,835,422,13,519,
0,593,822,418,14,514,
0,585,809,414,13,508,
0,579,799,409,13,503,
0,572,872,444,14,497,
0,565,904,439,14,492,
0,558,900,434,14,487,
0,551,880,430,14,483,
0,545,865,425,13,478,
0,608,851,420,13,526,
0,599,838,417,13,519,
0,593,824,414,13,513,
0,585,811,409,12,507,
0,578,799,406,12,502,
0,572,851,404,19,496,
0,564,899,434,19,491,
0,558,883,430,19,486,
0,551,867,425,19,480,
0,545,857,421,19,476,
0,558,844,416,18,493,
0,603,830,412,18,487,
0,595,816,408,18,482,
0,587,804,404,17,478,
0,579,792,400,18,472,
0,573,780,397,17,468,
0,568,895,444,17,463,
0,561,878,440,17,459,
0,554,863,435,17,454,
0,547,849,430,16,449,
0,542,836,427,16,505,
0,605,822,422,16,499,
0,597,809,417,16,493,
0,590,799,413,15,487,
0,582,788,409,15,483,
0,575,776,405,15,478,
0,568,891,449,16,472,
0,561,881,444,16,468,
0,555,865,440,16,463,
0,548,851,435,15,459,
0,543,838,432,15,509,
0,607,824,427,15,502,
0,599,812,423,16,496,
0,591,799,418,15,491,
0,583,787,414,15,485,
0,575,775,410,15,480,
0,569,892,443,15,475,
0,563,902,438,15,470,
0,556,886,432,15,464,
0,549,870,428,15,460,
0,543,856,423,15,514,
0,609,841,419,15,519,
0,600,828,415,15,514,
0,591,816,412,15,508,
0,585,803,408,15,502,
0,579,791,404,15,496,
0,572,854,415,15,492,
0,566,886,428,15,486,
0,559,870,423,15,480,
0,551,856,419,15,476,
0,546,841,415,15,471,
0,570,831,412,15,533,
0,606,818,408,15,527,
0,598,806,403,15,520,
0,590,793,399,15,515,
0,583,782,396,14,510,
0,575,771,396,14,505,
0,569,898,434,14,499,
0,562,885,431,14,494,
0,557,869,425,14,488,
0,551,855,422,14,483,
0,544,841,417,14,509,
0,606,828,414,15,504,
0,598,815,409,15,497,
0,590,802,406,15,492,
0,583,790,401,15,487,
0,575,782,398,14,481,
0,568,895,435,14,476,
0,561,897,430,14,472,
0,555,879,425,14,467,
0,548,864,421,14,463,
0,542,849,417,14,516,
0,618,836,414,14,509,
0,612,823,409,14,504,
0,604,810,406,13,497,
0,596,798,401,13,492,
0,589,785,398,13,487,
0,582,895,450,15,481,
0,575,902,445,15,476,
0,568,883,440,15,472,
0,561,871,435,14,466,
0,555,857,431,14,521,
0,612,844,427,14,514,
0,604,830,423,14,508,
0,596,817,418,14,504,
0,589,804,414,14,498,
0,582,792,409,14,492,
0,575,873,420,14,487,
0,569,904,441,14,482,
0,563,901,437,13,477,
0,556,880,432,13,472,
0,550,865,428,13,467,
0,578,851,423,13,519,
0,607,838,419,13,512,
0,598,828,415,12,507,
0,591,815,411,12,500,
0,583,803,408,12,495,
0,576,803,414,13,490,
0,569,902,440,12,486,
0,563,902,435,12,480,
0,556,881,430,12,476,
0,551,867,427,12,471,
0,545,853,423,12,489,
0,601,839,418,12,484,
0,593,825,414,11,479,
0,586,812,410,11,473,
0,579,799,407,12,468,
0,572,788,403,12,463,
0,565,897,440,12,459,
0,558,905,435,11,454,
0,551,892,431,11,449,
0,545,873,427,11,446,
0,540,860,423,11,510,
0,598,845,418,11,503,
0,590,831,414,11,497,
0,583,819,411,11,492,
0,577,807,407,10,486,
0,569,794,403,11,481,
0,563,896,448,11,476,
0,556,904,443,11,471,
0,550,888,438,11,465,
0,543,871,433,11,460,
0,537,861,429,11,504,
0,608,847,424,11,497,
0,600,833,420,11,492,
0,591,820,415,11,487,
0,584,807,412,10,482,
0,577,796,408,10,477,
0,571,879,437,13,472,
0,563,903,433,13,467,
0,559,888,428,13,462,
0,551,871,423,12,457,
0,545,857,420,12,452,
0,585,844,415,12,508,
0,601,830,412,13,503,
0,593,816,408,13,496,
0,586,804,403,12,491,
0,579,795,399,12,486,
0,572,811,419,12,481,
0,565,902,433,12,476,
0,558,902,428,12,471,
0,551,881,423,12,467,
0,545,867,419,12,462,
0,572,852,416,12,515,
0,607,839,412,11,510,
0,599,825,408,11,504,
0,591,812,403,11,498,
0,583,799,399,11,492,
0,575,798,396,11,487,
0,569,902,435,11,481,
0,562,899,430,11,476,
0,556,884,425,11,472,
0,550,868,422,11,467,
0,543,854,417,11,515,
0,606,840,413,11,510,
0,598,827,409,11,505,
0,590,814,405,11,499,
0,583,802,401,10,494,
0,577,790,399,11,488,
0,571,896,425,11,483,
0,563,898,420,11,478,
0,556,879,415,11,473,
0,551,864,412,11,468,
0,543,851,408,10,521,
0,610,836,403,10,515,
0,601,827,399,10,508,
0,593,814,396,9,504,
0,586,801,391,9,499,
0,581,790,390,9,494,
0,574,887,428,9,487,
0,567,903,428,9,483,
0,560,903,423,9,479,
0,555,884,420,9,473,
0,548,869,416,9,468,
0,543,859,412,9,527,
0,604,844,408,9,521,
0,597,831,406,9,515,
0,591,818,401,9,510,
0,583,806,398,9,504,
0,576,796,393,9,499,
0,569,894,438,9,495,
0,564,904,434,9,489,
0,558,891,430,8,484,
0,551,877,425,8,480,
0,545,862,421,8,475,
0,588,848,417,8,488,
0,607,835,414,8,483,
0,600,825,409,8,479,
0,591,812,406,8,473,
0,585,799,403,8,468,
0,579,814,399,11,463,
0,572,903,435,11,459,
0,565,908,431,11,455,
0,558,910,425,11,450,
0,551,892,422,10,446,
0,545,874,417,10,516,
0,608,859,413,10,511,
0,600,845,409,9,505,
0,594,831,406,9,499,
0,587,819,402,9,494,
0,579,809,398,9,490,
0,572,893,444,10,484,
0,566,907,439,10,480,
0,559,904,435,10,475,
0,553,883,431,10,470,
0,547,868,426,9,499,
0,615,855,422,10,529,
0,607,840,417,9,523,
0,599,831,414,9,518,
0,591,817,409,9,512,
0,585,805,407,9,507,
0,579,854,403,12,500,
0,572,903,434,12,496,
0,564,905,429,12,489,
0,558,888,424,12,484,
0,551,871,420,11,480,
0,545,859,415,11,511,
0,605,844,412,11,507,
0,597,830,408,11,500,
0,590,817,404,11,495,
0,583,805,401,11,489,
0,577,793,398,15,484,
0,570,900,428,15,480,
0,563,899,423,15,474,
0,556,879,419,15,469,
0,550,864,415,15,464,
0,543,851,411,15,518,
0,607,840,407,14,511,
0,599,827,403,14,505,
0,591,814,399,14,499,
0,583,801,395,14,494,
0,577,790,391,14,490,
0,570,893,441,14,484,
0,563,904,436,14,480,
0,558,891,432,14,474,
0,551,873,428,13,470,
0,545,859,423,13,515,
0,604,845,419,13,511,
0,596,831,415,13,505,
0,588,819,411,13,499,
0,582,806,408,12,494,
0,574,797,403,13,488,
0,568,871,438,12,483,
0,560,904,432,12,478,
0,553,900,428,12,473,
0,547,879,423,12,470,
0,541,864,419,12,464,
0,601,851,415,12,527,
0,593,836,412,12,521,
0,588,824,408,12,515,
0,580,811,403,12,509,
0,573,799,399,11,504,
0,567,860,401,12,498,
0,560,903,430,12,492,
0,552,901,425,11,487,
0,547,884,420,11,482,
0,540,869,416,11,477,
0,542,856,412,11,534,
0,583,841,408,11,527,
0,577,828,404,11,523,
0,570,816,400,11,517,
0,563,803,396,10,511,
0,556,792,393,15,506,
0,551,901,431,15,500,
0,545,904,425,15,495,
0,539,886,421,15,489,
0,532,871,417,14,484,
0,527,856,413,14,480,
0,595,842,408,14,476,
0,588,828,404,14,471,
0,579,819,400,14,465,
0,572,806,397,14,461,
0,566,794,393,14,456,
0,559,896,444,13,451,
0,551,904,438,13,448,
0,546,890,433,13,444,
0,540,873,429,13,440,
0,536,859,425,12,513,
0,606,845,422,12,510,
0,598,831,417,12,504,
0,590,818,413,12,498,
0,582,806,409,12,492,
0,575,793,405,12,487,
0,568,892,444,15,482,
0,561,900,438,15,476,
0,555,883,433,15,472,
0,548,867,429,15,467,
0,542,853,424,15,476,
0,605,839,420,15,481,
0,596,826,415,19,476,
0,589,813,412,19,471,
0,583,800,408,18,465,
0,575,788,404,18,460,
0,569,861,408,17,455,
0,563,902,429,17,451,
0,556,889,424,17,447,
0,549,872,420,17,443,
0,543,857,415,17,438,
0,551,848,412,17,496,
0,588,833,408,16,491,
0,580,820,403,16,485,
0,572,807,399,16,480,
0,566,796,396,16,476,
0,559,783,396,15,472,
0,551,897,430,15,465,
0,546,883,426,15,460,
0,541,867,422,15,455,
0,535,853,417,15,451,
0,529,839,414,15,499,
0,600,825,409,15,492,
0,591,812,405,15,487,
0,583,800,401,15,481,
0,576,792,397,15,476,
0,569,780,393,15,472,
0,563,895,439,15,466,
0,556,896,433,14,461,
0,550,878,429,14,457,
0,543,863,424,14,453,
0,537,849,421,14,533,
0,595,835,417,14,525,
0,590,822,413,14,519,
0,582,809,409,14,513,
0,575,797,405,13,507,
0,568,785,401,13,502,
0,562,894,439,14,496,
0,555,903,433,13,491,
0,548,886,428,13,486,
0,542,873,423,13,480,
0,536,860,419,13,499,
0,604,846,415,12,492,
0,595,831,412,12,487,
0,588,819,408,12,482,
0,580,806,403,12,477,
0,572,794,400,12,472,
0,568,880,421,13,467,
0,561,905,447,13,462,
0,554,910,441,13,457,
0,547,899,438,13,453,
0,542,878,432,12,448,
0,564,864,428,12,502,
0,591,849,423,12,496,
0,583,839,419,12,490,
0,575,825,415,12,484,
0,569,813,412,12,480,
0,562,806,419,15,475,
0,556,902,446,15,471,
0,549,903,440,15,465,
0,543,883,436,15,460,
0,538,867,432,15,455,
0,532,854,428,15,451,
0,598,839,423,15,447,
0,590,826,419,15,441,
0,583,814,415,15,438,
0,575,801,412,15,433,
0,568,789,408,19,430,
0,562,897,444,20,425,
0,555,903,440,19,422,
0,548,887,435,19,417,
0,542,871,431,19,414,
0,536,856,427,19,461,
0,594,843,422,19,455,
0,587,829,417,19,450,
0,580,816,415,19,445,
0,574,803,411,18,440,
0,567,792,407,18,436,
0,560,896,450,19,432,
0,553,903,444,19,427,
0,547,887,440,18,423,
0,540,871,435,18,419,
0,535,860,431,17,478,
0,596,846,427,17,472,
0,588,832,423,17,467,
0,580,819,418,17,461,
0,573,807,414,17,457,
0,566,795,410,17,452,
0,560,880,457,17,448,
0,552,903,452,17,444,
0,547,889,448,16,439,
0,542,872,444,16,434,
0,536,858,439,15,434,
0,585,844,434,15,487,
0,587,831,430,15,481,
0,579,818,425,15,476,
0,572,806,422,15,472,
0,566,796,417,15,466,
0,559,807,427,17,461,
0,551,902,444,16,455,
0,545,896,440,16,452,
0,539,877,435,15,448,
0,533,863,431,15,444,
0,569,849,428,15,502,
0,596,835,423,15,495,
0,588,822,419,15,489,
0,580,809,415,15,484,
0,574,796,411,15,479,
0,567,790,407,15,473,
0,560,900,435,15,468,
0,553,894,431,15,463,
0,547,880,427,15,459,
0,540,864,423,15,454,
0,535,851,418,15,454,
0,600,836,414,14,448,
0,591,824,409,14,445,
0,584,811,406,14,440,
0,577,798,403,14,436,
0,572,786,399,14,432,
0,566,896,443,15,428,
0,559,902,438,14,423,
0,551,883,433,14,419,
0,545,867,429,14,415,
0,540,854,424,14,492,
0,606,839,420,14,486,
0,598,830,415,13,480,
0,590,817,412,13,475,
0,583,804,408,13,470,
0,575,792,403,12,465,
0,568,886,444,13,461,
0,561,905,438,12,455,
0,555,906,433,13,451,
0,550,886,430,12,447,
0,543,870,425,12,455,
0,606,856,422,12,499,
0,603,842,417,12,493,
0,595,828,413,12,487,
0,588,816,409,12,482,
0,580,803,405,12,476,
0,574,831,436,12,472,
0,567,903,439,12,467,
0,560,908,434,12,462,
0,553,891,430,12,456,
0,547,873,425,12,454,
0,595,860,420,12,505,
0,595,846,416,12,499,
0,590,831,414,12,494,
0,583,819,409,11,488,
0,575,807,406,11,483,
0,568,818,402,14,478,
0,561,903,448,13,472,
0,555,903,442,13,467,
0,548,884,438,13,463,
0,543,872,432,13,458,
0,536,859,428,12,502,
0,591,844,423,13,496,
0,583,831,420,12,490,
0,575,818,415,13,486,
0,569,806,412,12,480,
0,563,793,408,12,476,
0,556,899,448,13,471,
0,551,908,442,13,465,
0,544,901,438,13,461,
0,539,880,433,12,455,
0,532,865,429,12,508,
0,596,851,423,12,502,
0,588,837,420,12,496,
0,581,828,415,12,491,
0,574,815,412,12,486,
0,567,802,408,12,480,
0,560,888,438,14,475,
0,553,905,432,14,472,
0,547,897,428,14,466,
0,540,878,423,13,462,
0,535,864,420,13,478,
0,597,849,415,13,502,
0,588,835,412,12,496,
0,580,822,408,12,491,
0,574,809,404,12,484,
0,567,798,399,12,480,
0,560,883,430,12,475,
0,553,903,431,12,469,
0,547,899,427,13,464,
0,540,879,422,12,460,
0,534,864,417,12,460,
0,592,850,414,12,511,
0,584,836,409,15,505,
0,577,824,406,15,499,
0,570,811,401,14,494,
0,565,798,399,14,488,
0,558,812,396,16,484,
0,551,902,433,16,478,
0,545,896,428,16,473,
0,539,877,423,15,468,
0,532,863,419,15,463,
0,527,849,415,15,511,
0,588,839,412,15,504,
0,579,825,408,15,499,
0,572,812,403,15,493,
0,566,799,399,15,487,
0,559,788,396,15,484,
0,551,898,428,15,479,
0,545,901,423,15,473,
0,540,882,420,15,468,
0,535,867,415,15,463,
0,528,852,412,15,510,
0,591,839,408,14,504,
0,583,825,403,14,498,
0,575,812,399,14,492,
0,568,799,396,14,487,
0,561,792,391,14,482,
0,555,888,428,14,477,
0,548,903,423,14,472,
0,542,888,419,14,467,
0,536,871,415,13,463,
0,529,856,411,14,497,
0,591,844,407,13,521,
0,583,830,403,13,515,
0,577,816,399,13,510,
0,571,804,396,13,504,
0,563,792,391,12,499,
0,557,886,432,19,493,
0,550,903,436,19,487,
0,543,894,432,19,482,
0,537,879,427,19,478,
0,531,864,423,19,490,
0,599,850,419,19,523,
0,590,836,414,18,516,
0,582,824,410,18,512,
0,575,811,406,18,507,
0,568,798,402,18,500,
0,561,820,399,18,496,
0,556,896,427,18,489,
0,550,878,422,17,484,
0,543,863,417,17,480,
0,537,849,414,17,475,
0,531,836,409,17,526,
0,604,822,406,17,519,
0,595,809,401,17,513,
0,588,799,397,17,508,
0,581,787,393,16,503,
0,574,776,391,17,497,
0,568,899,435,17,492,
0,560,906,431,16,487,
0,553,892,425,16,482,
0,547,874,423,15,478,
0,543,860,419,15,527,
0,595,846,414,15,519,
0,587,831,410,15,514,
0,579,819,406,15,508,
0,572,807,402,15,502,
0,565,795,398,15,497,
0,559,899,443,15,492,
0,551,905,438,15,487,
0,545,896,433,14,481,
0,539,876,429,15,476,
0,533,862,424,14,543,
0,591,847,420,14,536,
0,583,834,415,14,530,
0,576,821,412,14,524,
0,571,808,408,14,519,
0,564,796,404,14,512,
0,558,888,442,14,507,
0,551,905,436,14,502,
0,543,896,432,13,496,
0,538,876,428,13,491,
0,532,862,423,13,487,
0,596,851,419,13,487,
0,588,838,415,13,482,
0,579,824,411,13,476,
0,572,812,407,13,472,
0,566,799,403,13,468,
0,559,838,435,13,463,
0,551,901,431,13,459,
0,547,888,427,12,455,
0,541,871,423,12,450,
0,535,856,419,12,446,
0,529,844,414,12,501,
0,575,830,410,12,496,
0,569,817,406,12,489,
0,562,804,402,12,484,
0,556,795,399,12,479,
0,548,783,395,16,473,
0,542,899,435,15,468,
0,536,899,431,15,463,
0,529,879,427,15,460,
0,524,864,422,15,455,
0,519,851,418,15,515,
0,579,836,415,15,508,
0,573,824,411,15,503,
0,566,811,407,14,497,
0,560,798,403,14,492,
0,552,787,399,15,487,
0,547,899,441,15,481,
0,540,900,435,14,476,
0,534,886,432,15,471,
0,527,870,427,14,465,
0,521,856,423,14,461,
0,574,841,418,14,455,
0,567,828,414,24,452,
0,560,815,409,23,448,
0,552,803,406,23,444,
0,546,791,403,22,440,
0,542,890,438,23,435,
0,536,904,432,22,431,
0,528,892,428,22,427,
0,523,875,423,22,423,
0,517,860,419,21,470,
0,587,846,415,21,487,
0,579,831,411,21,481,
0,572,823,407,20,476,
0,564,809,403,20,472,
0,558,798,399,20,466,
0,551,849,441,19,461,
0,543,903,436,19,457,
0,538,896,432,19,452,
0,531,876,428,19,448,
0,527,862,423,19,444,
0,539,847,419,19,511,
0,583,834,415,19,504,
0,575,821,412,18,499,
0,568,808,408,18,493,
0,561,796,403,18,487,
0,555,835,399,19,483,
0,548,900,439,18,477,
0,542,902,433,18,472,
0,536,881,429,18,467,
0,529,867,424,17,462,
0,524,854,420,17,509,
0,575,839,415,17,504,
0,568,825,412,17,497,
0,563,812,409,17,492,
0,556,799,405,16,487,
0,550,788,401,17,481,
0,543,900,440,17,476,
0,536,907,434,17,471,
0,530,896,430,17,465,
0,524,877,425,17,461,
0,519,866,422,16,511,
0,582,852,416,16,504,
0,574,838,412,16,498,
0,567,824,408,16,493,
0,560,812,404,15,488,
0,553,799,400,15,483,
0,547,896,456,15,478,
0,542,908,452,15,473,
0,536,909,448,15,468,
0,529,891,443,15,463,
0,524,873,439,15,500,
0,588,860,434,15,517,
0,579,845,430,15,511,
0,572,831,425,15,505,
0,566,823,421,14,499,
0,558,809,417,14,494,
0,551,872,440,15,488,
0,545,904,435,14,483,
0,539,905,431,14,480,
0,532,885,425,14,475,
0,527,870,422,14,470,
0,594,856,419,14,519,
0,587,841,414,14,513,
0,579,828,411,13,508,
0,572,816,406,13,502,
0,566,803,403,13,496,
0,559,852,399,15,491,
0,551,903,439,15,486,
0,545,905,434,15,480,
0,540,887,430,15,476,
0,533,871,425,15,471,
0,527,857,421,14,511,
0,596,843,416,14,507,
0,588,829,412,14,500,
0,582,816,408,14,495,
0,574,803,405,13,489,
0,568,792,401,15,484,
0,562,900,441,15,479,
0,556,904,435,15,474,
0,548,887,432,15,468,
0,542,871,427,15,463,
0,536,856,423,14,511,
0,598,842,419,14,505,
0,590,831,415,14,499,
0,583,819,410,14,494,
0,575,807,406,14,487,
0,568,794,403,14,483,
0,561,895,438,19,479,
0,555,905,433,19,473,
0,548,895,428,18,468,
0,543,876,425,18,463,
0,537,862,421,18,515,
0,606,847,416,17,519,
0,598,834,412,18,512,
0,590,820,408,17,507,
0,582,807,404,17,500,
0,575,796,400,17,495,
0,568,880,448,17,489,
0,561,905,443,17,484,
0,555,907,438,17,480,
0,548,887,433,17,474,
0,542,871,430,17,471,
0,604,856,425,17,534,
0,595,843,420,16,527,
0,589,829,417,16,521,
0,582,816,413,15,515,
0,575,804,409,15,510,
0,568,860,408,20,504,
0,560,903,441,20,498,
0,554,897,437,20,493,
0,547,877,432,19,487,
0,541,866,428,19,483,
0,550,853,423,19,536,
0,593,838,419,19,530,
0,587,825,415,19,524,
0,579,812,412,19,519,
0,572,799,408,19,513,
0,565,788,403,19,508,
0,559,901,441,19,503,
0,553,905,437,18,497,
0,547,887,432,18,492,
0,540,871,428,18,487,
0,535,857,423,17,543,
0,587,843,419,17,537,
0,579,829,415,17,531,
0,572,819,411,17,524,
0,564,807,407,17,519,
0,558,795,403,17,513,
0,551,896,441,17,508,
0,544,903,436,16,504,
0,539,886,432,16,498,
0,532,871,427,15,492,
0,527,856,423,15,543,
0,583,842,419,15,536,
0,575,828,415,15,529,
0,568,816,412,15,523,
0,560,803,408,15,518,
0,553,792,403,15,512,
0,547,893,440,19,506,
0,540,898,434,19,500,
0,535,883,430,19,495,
0,528,867,425,18,489,
0,523,854,421,18,493,
0,600,839,416,18,489,
0,591,827,412,17,483,
0,583,814,408,17,480,
0,575,801,406,17,473,
0,571,789,401,17,469,
0,564,861,407,22,464,
0,558,903,425,22,460,
0,551,891,420,21,455,
0,543,873,416,20,451,
0,538,859,412,20,446,
0,555,845,408,20,441,
0,591,835,403,20,438,
0,583,822,399,19,433,
0,575,809,396,19,430,
0,569,797,392,19,425,
0,562,785,396,19,423,
0,556,901,430,19,419,
0,548,901,425,19,415,
0,543,881,422,19,411,
0,538,866,417,19,408,
0,531,852,414,18,476,
0,596,838,409,18,470,
0,588,824,406,18,465,
0,580,812,401,17,460,
0,574,799,398,17,455,
0,567,791,393,17,450,
0,560,896,435,17,446,
0,553,902,430,17,440,
0,547,883,425,17,436,
0,540,868,422,17,433,
0,534,854,417,17,506,
0,605,839,413,17,499,
0,600,827,409,16,492,
0,591,814,406,16,487,
0,583,801,402,16,481,
0,577,789,398,16,476,
0,571,894,441,19,472,
0,563,903,436,19,467,
0,556,886,432,19,462,
0,550,875,428,19,456,
0,543,860,423,18,511,
0,598,846,419,18,504,
0,590,831,415,18,497,
0,583,819,411,18,493,
0,575,807,407,17,487,
0,568,795,403,17,482,
0,561,870,427,17,477,
0,556,903,441,17,472,
0,550,892,437,17,467,
0,543,874,432,17,462,
0,537,860,428,17,457,
0,569,846,423,16,492,
0,598,831,419,16,487,
0,590,822,415,16,481,
0,583,809,412,15,476,
0,575,798,408,15,471,
0,568,812,414,20,466,
0,561,903,446,20,462,
0,555,909,440,19,457,
0,548,907,435,19,452,
0,542,884,432,19,448,
0,537,870,428,19,496,
0,593,855,423,19,491,
0,585,841,419,19,485,
0,578,828,415,19,480,
0,571,815,412,19,475,
0,564,803,408,18,470,
0,558,902,443,18,464,
0,551,907,438,18,460,
0,544,897,433,17,455,
0,538,877,429,17,450,
0,532,863,425,17,519,
0,596,848,420,17,513,
0,589,835,415,17,508,
0,582,822,413,17,502,
0,575,809,408,16,496,
0,569,797,405,16,492,
0,563,898,454,16,486,
0,556,908,448,15,480,
0,548,908,443,15,476,
0,543,888,439,15,471,
0,536,872,434,15,470,
0,595,861,430,15,464,
0,588,847,425,15,460,
0,580,833,421,15,455,
0,573,820,417,15,450,
0,566,807,413,15,447,
0,560,881,451,15,443,
0,552,904,446,15,438,
0,547,896,443,15,433,
0,541,876,438,14,430,
0,536,862,433,14,425,
0,572,847,429,14,483,
0,584,834,424,14,477,
0,577,821,420,14,472,
0,570,808,415,14,467,
0,563,799,412,14,462,
0,556,807,423,14,457,
0,550,902,445,14,452,
0,543,899,440,14,448,
0,537,879,435,13,444,
0,531,864,431,13,440,
0,558,851,427,13,508,
0,590,836,423,13,502,
0,583,823,419,13,496,
0,575,810,415,12,491,
0,568,798,411,12,486,
0,561,792,408,12,480,
0,555,902,435,12,475,
0,547,903,431,12,470,
0,542,889,426,12,464,
0,536,872,422,12,460,
0,529,858,418,12,519,
0,595,844,414,12,512,
0,588,830,409,12,508,
0,579,817,406,12,503,
0,572,805,401,11,497,
0,566,793,399,11,492,
0,561,896,445,12,486,
0,553,899,440,12,481,
0,547,880,435,11,476,
0,541,865,431,11,471,
0,535,851,426,11,519,
0,604,837,422,11,512,
0,595,827,417,11,506,
0,588,814,414,11,500,
0,580,801,409,11,495,
0,573,790,406,11,489,
0,568,880,443,11,486,
0,560,899,438,11,480,
0,553,882,432,10,475,
0,547,867,429,10,470,
0,542,852,424,10,468,
0,596,839,420,9,521,
0,604,825,416,10,515,
0,596,812,412,9,510,
0,589,803,408,9,505,
0,582,792,404,9,499,
0,575,816,401,12,495,
0,569,902,442,11,488,
0,563,898,438,11,483,
0,556,878,432,11,479,
0,550,864,428,11,473,
0,543,854,423,11,527,
0,604,839,419,10,521,
0,596,825,415,10,515,
0,588,813,412,10,509,
0,581,800,408,10,505,
0,574,788,403,12,499,
0,568,896,441,12,494,
0,560,887,438,12,489,
0,556,870,433,12,483,
0,549,856,429,12,479,
0,543,842,424,12,529,
0,608,828,420,12,523,
0,600,816,415,12,516,
0,591,803,412,12,511,
0,583,793,408,12,505,
0,577,782,403,12,499,
0,571,888,444,13,494,
0,563,903,439,13,489,
0,556,887,434,12,484,
0,550,871,430,12,480,
0,543,856,425,12,499,
0,600,843,422,12,518,
0,593,829,417,12,511,
0,585,816,414,12,505,
0,579,803,409,12,499,
0,572,792,406,12,495,
0,565,886,451,12,489,
0,558,903,448,12,483,
0,551,887,443,12,479,
0,545,875,438,12,473,
0,539,860,433,12,499,
0,599,846,429,12,531,
0,589,831,424,12,524,
0,582,819,420,12,519,
0,575,807,415,15,513,
0,568,795,413,14,508,
0,563,831,409,28,503,
0,556,903,439,27,497,
0,550,902,433,27,492,
0,543,881,429,26,487,
0,537,866,424,26,481,
0,531,852,420,25,519,
0,588,838,415,25,512,
0,580,828,412,25,506,
0,573,815,408,25,500,
0,566,803,403,25,495,
0,560,791,400,31,489,
0,552,899,435,31,486,
0,546,903,430,31,480,
0,540,885,425,31,476,
0,536,869,423,30,471,
0,529,856,418,30,513,
0,591,841,414,29,507,
0,583,828,409,29,500,
0,575,815,406,29,495,
0,568,803,401,28,489,
0,562,791,398,28,484,
0,556,892,443,28,479,
0,548,907,438,28,473,
0,542,904,433,28,469,
0,536,883,429,28,464,
0,530,867,424,27,499,
0,589,854,420,27,511,
0,581,839,415,27,505,
0,575,827,413,27,499,
0,568,814,409,26,494,
0,561,801,405,25,488,
0,555,890,446,29,483,
0,548,904,440,29,478,
0,542,896,435,28,472,
0,536,876,431,28,467,
0,529,865,427,28,478,
0,600,851,423,28,507,
0,591,837,418,28,500,
0,583,824,414,27,495,
0,575,812,409,27,491,
0,569,799,406,27,486,
0,563,845,440,27,480,
0,556,903,441,27,475,
0,551,902,437,26,470,
0,543,881,432,26,465,
0,537,866,428,25,460,
0,532,852,423,25,519,
0,590,838,419,25,513,
0,582,824,415,25,508,
0,575,816,411,25,502,
0,568,803,408,24,496,
0,561,791,403,24,491,
0,555,900,432,24,486,
0,547,902,427,24,481,
0,542,881,423,24,476,
0,536,867,418,24,472,
0,529,852,415,24,524,
0,600,839,411,24,518,
0,591,825,407,23,512,
0,583,812,403,23,505,
0,577,799,399,23,500,
0,569,788,395,22,495,
0,563,899,448,22,489,
0,556,903,444,22,484,
0,550,889,439,22,479,
0,543,873,434,22,473,
0,537,859,430,21,534,
0,595,844,425,21,527,
0,588,831,421,21,523,
0,580,817,417,21,516,
0,574,805,412,20,511,
0,568,793,409,20,505,
0,561,892,459,20,499,
0,555,905,452,20,494,
0,548,894,448,20,488,
0,542,876,443,20,483,
0,536,861,439,19,494,
0,600,847,434,19,515,
0,591,836,429,19,508,
0,584,824,425,19,503,
0,577,811,421,19,497,
0,570,799,417,19,492,
0,563,854,434,19,487,
0,556,903,432,19,482,
0,550,902,427,18,477,
0,545,880,423,19,472,
0,539,866,419,18,467,
0,540,851,415,18,515,
0,591,838,411,17,508,
0,583,824,408,17,503,
0,575,812,403,17,497,
0,568,799,399,17,492,
0,561,791,396,18,487,
0,556,901,432,18,481,
0,548,904,427,17,476,
0,542,886,423,17,472,
0,536,870,418,17,467,
0,530,856,414,17,513,
0,595,842,409,16,507,
0,587,828,407,16,501,
0,582,816,403,16,496,
0,574,803,399,16,490,
0,568,792,396,18,485,
0,560,900,435,18,480,
0,553,905,431,17,475,
0,547,889,426,17,470,
0,541,876,422,17,464,
0,535,862,418,17,519,
0,585,847,414,17,513,
0,578,834,409,16,507,
0,571,820,406,16,503,
0,563,807,401,16,497,
0,556,796,398,16,492,
0,550,892,432,22,487,
0,545,903,427,22,481,
0,539,888,422,22,476,
0,533,871,417,22,472,
0,527,857,414,21,519,
0,580,844,409,21,529,
0,573,830,406,21,524,
0,566,817,401,21,518,
0,559,807,397,21,511,
0,551,795,393,20,505,
0,545,862,436,20,500,
0,539,903,431,20,495,
0,532,902,426,20,491,
0,527,880,422,19,486,
0,521,866,419,19,480,
0,540,851,415,19,521,
0,584,838,411,19,515,
0,576,824,407,19,509,
0,569,812,402,19,503,
0,563,799,398,19,497,
0,556,860,396,19,492,
0,550,903,448,19,487,
0,543,905,443,18,481,
0,536,887,438,18,476,
0,531,871,433,18,472,
0,526,857,429,17,523,
0,588,843,424,17,518,
0,580,829,420,17,512,
0,573,816,415,17,506,
0,568,803,413,17,500,
0,561,792,409,17,496,
0,555,900,441,17,489,
0,547,899,436,17,484,
0,542,880,432,17,480,
0,536,864,428,16,475,
0,529,851,423,16,521,
0,594,840,419,15,515,
0,586,827,415,15,509,
0,579,814,411,15,504,
0,572,801,407,15,498,
0,564,790,403,15,494,
0,558,893,443,18,487,
0,551,905,438,18,483,
0,546,898,434,18,478,
0,540,878,430,17,472,
0,534,864,425,17,515,
0,602,849,421,17,513,
0,593,835,416,17,507,
0,585,823,412,17,502,
0,579,809,408,17,496,
0,572,799,404,17,491,
0,565,869,454,17,485,
0,558,900,448,16,480,
0,551,884,444,16,475,
0,545,869,439,16,471,
0,539,855,434,16,466,
0,601,841,430,15,514,
0,593,828,427,15,508,
0,588,815,422,15,502,
0,580,803,418,15,496,
0,573,791,414,15,491,
0,566,851,411,15,486,
0,560,900,430,15,480,
0,552,884,424,15,476,
0,546,868,420,15,471,
0,540,857,415,15,465,
0,551,845,412,15,524,
0,604,830,408,15,517,
0,595,817,404,14,512,
0,588,804,399,14,507,
0,581,792,396,14,501,
0,574,781,394,14,496,
0,568,900,435,14,490,
0,562,898,431,14,484,
0,555,879,427,14,480,
0,548,864,422,14,475,
0,543,851,418,13,526,
0,608,836,414,13,519,
0,600,823,409,13,513,
0,592,813,406,13,508,
0,585,800,401,13,502,
0,578,789,398,12,497,
0,572,896,443,12,492,
0,564,902,438,13,487,
0,558,883,433,12,482,
0,551,868,429,12,477,
0,547,854,425,12,519,
0,613,839,420,12,513,
0,604,827,416,12,507,
0,596,814,412,12,501,
0,589,801,408,12,496,
0,582,790,404,12,490,
0,575,894,444,14,484,
0,568,903,440,14,480,
0,561,892,435,13,475,
0,555,874,430,13,470,
0,548,859,425,13,513,
0,608,846,422,13,512,
0,600,831,417,13,505,
0,592,819,413,13,500,
0,587,806,410,12,495,
0,579,794,406,12,489,
0,572,867,416,14,484,
0,566,903,444,14,479,
0,559,893,440,14,473,
0,552,875,435,14,468,
0,546,860,430,14,463,
0,566,850,426,14,517,
0,599,836,422,13,511,
0,591,823,417,13,505,
0,583,810,413,13,499,
0,575,798,409,12,495,
0,569,786,406,13,491,
0,563,901,440,13,484,
0,558,902,437,13,480,
0,551,883,432,12,474,
0,545,867,428,12,470,
0,539,854,423,12,518,
0,600,839,419,12,511,
0,591,825,415,12,505,
0,584,813,411,12,500,
0,577,803,408,12,494,
0,570,792,403,12,489,
0,563,896,447,15,483,
0,556,903,441,14,479,
0,550,887,436,14,475,
0,543,871,432,14,470,
0,537,856,428,14,519,
0,602,843,424,14,511,
0,595,828,420,13,505,
0,588,816,415,13,499,
0,581,803,412,13,494,
0,574,792,408,13,488,
0,568,895,447,14,483,
0,560,903,441,14,478,
0,553,890,436,14,472,
0,547,873,432,14,468,
0,540,859,428,14,510,
0,603,844,423,13,503,
0,594,831,419,13,499,
0,587,818,415,13,492,
0,579,806,411,13,487,
0,572,793,408,13,482,
0,568,867,420,19,477,
0,560,900,435,18,472,
0,553,884,431,19,467,
0,547,868,425,18,462,
0,540,854,422,17,457,
0,567,840,417,17,519,
0,592,827,413,17,513,
0,585,817,409,17,507,
0,577,804,405,17,502,
0,571,792,401,17,496,
0,563,792,407,17,491,
0,557,901,436,17,486,
0,551,893,432,17,481,
0,543,875,427,17,476,
0,540,860,423,16,471,
0,534,847,419,16,536,
0,591,832,415,16,529,
0,583,819,411,16,523,
0,575,807,408,15,516,
0,568,795,403,15,511,
0,561,783,399,19,505,
0,555,896,437,25,499,
0,548,892,432,25,494,
0,542,875,428,25,489,
0,536,860,423,24,483,
0,529,847,419,24,527,
0,600,831,415,24,520,
0,592,819,411,24,515,
0,587,807,408,24,508,
0,579,795,403,24,503,
0,572,783,399,24,497,
0,566,896,449,24,492,
0,559,903,444,24,487,
0,552,885,439,23,481,
0,546,870,434,23,476,
0,540,859,430,23,508,
0,604,844,425,23,500,
0,595,831,422,22,495,
0,588,818,417,22,489,
0,581,805,412,22,486,
0,574,793,408,22,480,
0,568,883,441,22,475,
0,560,905,438,22,470,
0,555,903,433,21,465,
0,548,883,428,21,460,
0,542,867,423,21,455,
0,585,854,419,20,512,
0,595,839,415,20,505,
0,587,827,412,20,500,
0,579,817,408,19,494,
0,572,804,403,19,489,
0,566,819,421,20,483,
0,559,903,444,19,478,
0,551,905,439,19,475,
0,545,885,434,19,470,
0,540,870,429,19,464,
0,575,856,426,19,523,
0,600,841,422,19,515,
0,592,828,417,19,510,
0,584,816,414,18,504,
0,577,803,409,18,498,
0,571,793,406,20,493,
0,563,900,446,20,487,
0,557,894,441,20,482,
0,551,879,436,19,478,
0,544,864,432,19,472,
0,537,850,428,19,527,
0,600,836,423,19,521,
0,592,824,419,19,516,
0,585,811,415,19,511,
0,577,798,412,19,505,
0,572,786,408,19,499,
0,566,896,451,24,494,
0,559,903,445,24,488,
0,551,884,440,24,483,
0,545,869,435,23,479,
0,540,855,432,23,529,
0,609,840,427,23,523,
0,600,831,423,22,516,
0,593,817,419,22,511,
0,585,805,414,22,504,
0,579,793,410,22,499,
0,572,883,441,22,495,
0,564,903,435,21,489,
0,558,888,431,21,484,
0,553,871,428,21,480,
0,547,857,423,20,475,
0,609,844,419,20,515,
0,603,830,415,20,509,
0,595,816,411,20,504,
0,588,804,407,19,498,
0,580,792,403,19,492,
0,574,815,432,20,487,
0,567,902,440,19,481,
0,560,899,435,19,476,
0,553,879,431,19,472,
0,547,864,426,19,468,
0,583,851,422,19,516,
0,599,835,417,18,511,
0,592,823,415,18,504,
0,585,809,411,18,499,
0,577,798,407,18,494,
0,571,812,403,19,488,
0,563,903,441,19,483,
0,557,908,436,19,478,
0,551,901,432,19,472,
0,543,883,427,19,467,
0,538,868,423,19,516,
0,601,854,419,19,511,
0,593,839,415,19,504,
0,585,827,411,18,500,
0,579,814,407,18,495,
0,572,802,403,19,489,
0,564,898,443,19,484,
0,560,903,438,19,479,
0,552,886,433,19,473,
0,547,870,428,18,469,
0,540,856,423,18,527,
0,605,841,420,18,520,
0,596,828,415,17,515,
0,589,819,412,17,508,
0,582,807,408,17,503,
0,575,794,403,17,497,
0,568,885,430,17,492,
0,561,903,424,17,487,
0,555,887,420,17,483,
0,547,871,415,17,478,
0,541,856,413,17,478,
0,600,842,408,16,521,
0,601,828,404,16,515,
0,593,816,400,16,510,
0,587,803,396,15,504,
0,579,792,393,15,499,
0,572,880,423,22,493,
0,565,902,428,21,487,
0,559,889,423,21,483,
0,551,872,419,20,478,
0,545,859,415,20,483,
0,585,845,411,20,546,
0,600,831,407,20,541,
0,591,818,403,20,535,
0,585,806,399,19,528,
0,579,793,396,19,523,
0,572,815,392,19,518,
0,566,902,436,19,511,
0,559,896,432,19,505,
0,551,876,428,19,500,
0,545,862,423,19,495,
0,540,848,419,19,536,
0,608,838,415,19,530,
0,600,824,411,18,524,
0,591,812,407,18,518,
0,583,799,403,17,512,
0,576,787,399,17,508,
0,570,898,435,17,502,
0,563,899,431,17,496,
0,558,880,428,17,492,
0,551,865,423,17,487,
0,545,851,419,17,537,
0,612,836,415,17,531,
0,604,824,411,16,524,
0,595,811,407,16,519,
0,588,799,403,16,512,
0,581,790,399,15,507,
0,575,888,449,15,502,
0,568,903,444,15,496,
0,561,889,440,15,491,
0,554,872,435,15,487,
0,547,858,430,15,499,
0,612,844,425,15,530,
0,606,831,423,15,524,
0,599,817,419,15,518,
0,591,805,415,15,512,
0,583,793,410,14,507,
0,576,886,446,19,501,
0,569,903,441,19,496,
0,563,891,437,18,490,
0,556,877,432,18,485,
0,550,863,428,18,491,
0,615,848,423,17,531,
0,608,835,419,17,526,
0,600,822,415,17,520,
0,591,809,411,17,515,
0,584,796,408,17,509,
0,577,820,404,17,504,
0,572,902,430,17,498,
0,566,894,425,17,492,
0,559,876,420,16,487,
0,552,860,416,16,482,
0,547,847,412,15,535,
0,608,833,408,15,527,
0,600,824,404,15,522,
0,593,810,400,15,516,
0,585,798,396,15,510,
0,579,786,393,16,504,
0,572,899,433,16,500,
0,564,905,428,15,495,
0,558,888,423,15,489,
0,551,871,420,15,484,
0,547,857,416,15,529,
0,612,843,412,15,523,
0,604,830,408,15,516,
0,596,817,404,15,511,
0,590,804,399,15,504,
0,582,792,396,15,499,
0,575,898,429,15,494,
0,568,902,423,15,488,
0,561,883,419,14,483,
0,555,868,415,14,479,
0,548,854,412,14,522,
0,620,840,408,14,516,
0,611,827,403,14,511,
0,604,814,399,14,504,
0,598,801,396,13,499,
0,590,790,392,13,494,
0,583,888,444,13,487,
0,575,901,439,14,483,
0,569,883,433,13,478,
0,563,868,430,13,473,
0,556,854,424,13,486,
0,620,844,420,12,519,
0,611,830,416,12,513,
0,603,817,412,12,508,
0,595,804,408,12,502,
0,588,792,404,12,498,
0,580,831,438,14,493,
0,574,901,444,14,487,
0,568,888,440,13,482,
0,561,871,435,13,477,
0,555,857,431,13,472,
0,549,844,427,13,519,
0,612,830,423,15,512,
0,604,817,418,15,507,
0,596,804,414,14,501,
0,589,796,409,14,496,
0,582,783,406,14,490,
0,575,899,440,14,484,
0,568,903,435,14,480,
0,561,886,431,13,476,
0,555,870,427,13,471,
0,548,856,423,13,465,
0,619,841,419,14,461,
0,612,828,415,15,456,
0,604,815,411,14,452,
0,596,803,407,14,448,
0,589,791,403,14,444,
0,582,899,435,14,439,
0,575,906,430,14,435,
0,568,899,425,14,431,
0,561,879,420,13,427,
0,555,864,416,13,487,
0,616,850,412,13,481,
0,608,835,408,13,477,
0,600,823,403,12,472,
0,593,809,399,12,467,
0,585,798,397,12,462,
0,580,891,433,13,456,
0,573,903,428,13,451,
0,566,890,423,13,448,
0,560,873,419,13,443,
0,553,859,415,12,477,
0,608,845,411,12,498,
0,600,831,407,12,492,
0,591,822,402,12,487,
0,584,808,399,12,481,
0,577,796,395,12,476,
0,571,864,446,27,472,
0,563,903,444,27,467,
0,557,905,440,26,463,
0,551,886,436,26,457,
0,545,870,432,25,453,
0,550,856,428,25,495,
0,600,841,423,25,488,
0,592,828,419,24,483,
0,585,816,415,24,478,
0,577,803,411,24,472,
0,571,847,407,24,467,
0,564,901,434,24,463,
0,557,907,430,24,457,
0,551,896,425,24,453,
0,544,876,420,23,448,
0,543,863,416,23,505,
0,596,847,412,23,499,
0,588,835,408,23,494,
0,583,822,406,22,487,
0,575,808,401,22,483,
0,568,796,398,23,478,
0,562,899,420,23,472,
0,555,900,415,22,467,
0,548,880,412,22,463,
0,543,865,408,22,457,
0,536,856,403,22,516,
0,593,841,399,21,510,
0,585,828,396,21,504,
0,577,815,391,21,499,
0,571,802,388,20,494,
0,563,790,385,20,489,
0,558,892,438,20,483,
0,551,903,435,20,479,
0,545,888,430,19,473,
0,540,872,425,19,468,
0,534,857,421,19,505,
0,600,844,416,19,511,
0,591,830,412,19,505,
0,583,817,408,19,499,
0,575,807,404,19,494,
0,569,796,400,18,487,
0,563,858,445,19,483,
0,556,903,440,18,478,
0,549,901,435,18,474,
0,543,880,431,18,469,
0,536,865,427,17,464,
0,593,851,423,17,512,
0,587,838,419,17,505,
0,579,824,415,17,499,
0,572,812,410,17,494,
0,566,799,407,17,489,
0,559,855,403,17,483,
0,551,903,444,17,478,
0,545,906,440,17,473,
0,539,889,435,16,468,
0,532,873,431,16,463,
0,527,859,426,16,512,
0,588,844,422,15,508,
0,580,831,417,15,502,
0,574,818,414,15,496,
0,567,806,410,15,491,
0,561,793,407,15,486,
0,555,901,438,15,480,
0,547,908,433,15,476,
0,542,899,428,15,470,
0,536,878,423,15,465,
0,529,864,419,15,510,
0,590,849,415,15,503,
0,583,839,412,15,497,
0,575,826,408,15,492,
0,568,813,403,15,486,
0,561,801,399,15,481,
0,555,896,441,26,477,
0,547,908,435,26,472,
0,542,911,432,25,467,
0,537,908,428,25,462,
0,531,885,423,25,504,
0,600,870,419,24,504,
0,591,856,415,24,499,
0,583,842,411,24,493,
0,575,828,407,24,487,
0,568,816,403,24,482,
0,562,880,428,24,477,
0,555,905,423,24,472,
0,548,908,419,24,467,
0,542,891,415,23,462,
0,536,873,411,23,459,
0,603,859,407,23,512,
0,594,846,402,23,506,
0,588,831,399,22,500,
0,581,819,396,22,495,
0,574,807,391,22,489,
0,568,863,391,22,484,
0,560,904,435,21,479,
0,553,907,430,21,473,
0,547,889,425,20,468,
0,540,876,421,20,463,
0,553,863,417,20,519,
0,603,848,412,20,513,
0,595,834,408,20,508,
0,587,822,404,19,504,
0,579,808,400,19,498,
0,572,797,397,19,493,
0,568,900,437,19,487,
0,561,904,432,19,482,
0,554,886,428,19,477,
0,547,871,423,19,472,
0,542,856,419,19,531,
0,595,842,415,18,525,
0,587,829,411,18,519,
0,579,819,407,18,513,
0,572,807,403,17,507,
0,566,794,399,17,502,
0,559,894,427,18,496,
0,551,903,423,18,492,
0,545,887,417,18,487,
0,540,871,414,17,481,
0,533,856,411,17,545,
0,595,843,407,17,536,
0,587,829,402,17,530,
0,579,816,398,16,524,
0,572,803,395,17,518,
0,566,792,391,17,512,
0,559,892,431,22,507,
0,551,900,425,21,501,
0,545,883,422,21,496,
0,540,867,417,20,491,
0,533,853,413,20,522,
0,599,839,408,20,524,
0,590,825,404,19,518,
0,582,813,400,19,512,
0,575,800,398,19,506,
0,569,789,394,19,500,
0,563,854,401,19,495,
0,556,896,435,19,489,
0,550,879,430,19,484,
0,543,864,425,19,480,
0,536,849,421,19,474,
0,558,835,417,18,471,
0,597,825,412,18,465,
0,589,812,408,18,461,
0,582,799,404,19,455,
0,575,788,400,18,451,
0,568,780,398,20,448,
0,560,901,435,20,444,
0,554,904,430,19,440,
0,549,885,427,19,435,
0,543,870,422,19,432,
0,536,856,419,19,492,
0,601,841,414,19,487,
0,593,828,409,19,480,
0,586,816,406,19,476,
0,579,803,401,19,470,
0,572,793,398,18,465,
0,565,896,435,18,460,
0,558,905,431,18,455,
0,551,891,427,18,451,
0,545,873,422,17,448,
0,539,860,419,17,512,
0,596,845,414,17,504,
0,590,831,411,17,499,
0,583,819,407,17,493,
0,575,806,403,17,487,
0,568,793,399,16,483,
0,562,894,439,16,477,
0,555,907,433,16,472,
0,548,905,429,16,467,
0,542,889,423,16,462,
0,536,873,420,15,513,
0,608,858,415,15,510,
0,600,844,412,15,504,
0,591,831,408,15,499,
0,583,818,403,15,494,
0,577,806,399,15,487,
0,570,883,415,15,483,
0,565,905,445,15,478,
0,558,910,440,15,472,
0,551,901,435,15,467,
0,545,879,431,15,463,
0,571,864,427,14,528,
0,602,850,422,14,521,
0,594,839,418,14,515,
0,587,827,414,14,510,
0,579,814,409,14,504,
0,572,816,415,22,499,
0,566,903,451,22,495,
0,559,906,447,22,489,
0,551,888,441,21,484,
0,545,872,438,21,480,
0,541,859,434,21,528,
0,610,844,430,20,521,
0,602,831,425,20,515,
0,595,817,421,20,510,
0,587,806,416,19,504,
0,579,793,412,19,499,
0,572,902,429,19,493,
0,566,906,423,19,487,
0,559,893,420,19,483,
0,552,875,415,19,478,
0,546,860,412,19,535,
0,604,847,408,19,527,
0,595,833,403,18,520,
0,588,819,401,18,515,
0,583,807,397,18,509,
0,575,795,393,17,504,
0,568,896,438,18,498,
0,561,905,432,17,492,
0,555,892,428,17,487,
0,548,874,423,17,482,
0,542,860,419,17,532,
0,591,849,415,17,525,
0,583,835,411,16,519,
0,576,823,407,16,512,
0,569,809,403,15,507,
0,563,798,399,15,503,
0,556,880,433,15,497,
0,550,903,428,15,492,
0,544,893,424,15,487,
0,538,875,420,15,481,
0,532,860,415,15,476,
0,572,847,412,15,529,
0,591,833,408,15,523,
0,583,819,403,15,517,
0,575,807,399,15,511,
0,569,798,396,15,505,
0,562,804,408,16,500,
0,555,902,424,16,495,
0,548,903,420,16,489,
0,543,883,415,15,486,
0,536,867,412,15,480,
0,561,854,408,15,535,
0,598,839,404,15,527,
0,590,827,400,15,521,
0,583,813,396,15,516,
0,575,801,393,15,510,
0,568,792,390,19,504,
0,561,902,444,19,499,
0,555,902,440,19,494,
0,548,887,435,19,487,
0,542,871,431,19,483,
0,536,856,427,19,531,
0,604,842,422,18,524,
0,596,828,417,18,519,
0,589,816,414,18,513,
0,582,803,409,17,508,
0,575,791,407,17,503,
0,569,896,444,17,496,
0,563,902,439,17,492,
0,556,883,434,17,486,
0,550,867,430,17,481,
0,543,853,425,16,540,
0,607,839,420,16,532,
0,599,829,416,16,526,
0,591,816,412,16,519,
0,583,803,408,15,514,
0,575,792,404,15,508,
0,569,883,428,15,504,
0,563,904,423,15,498,
0,556,898,419,15,493,
0,550,878,415,15,487,
0,544,864,412,15,483,
0,595,849,408,15,516,
0,602,835,403,15,511,
0,594,823,399,15,504,
0,587,810,396,15,499,
0,579,798,391,15,494,
0,573,881,423,16,488,
0,566,903,448,15,483,
0,559,904,442,15,478,
0,552,886,438,15,473,
0,546,870,433,15,468,
0,578,856,429,15,522,
0,599,841,423,15,515,
0,591,828,422,15,510,
0,585,816,417,15,504,
0,578,803,413,15,499,
0,571,809,409,18,493,
0,564,903,450,18,487,
0,557,905,445,17,483,
0,551,887,440,17,477,
0,543,871,435,17,472,
0,538,860,432,17,513,
0,603,846,427,17,507,
0,595,831,423,17,502,
0,588,819,419,16,496,
0,580,807,415,16,492,
0,573,795,411,16,487,
0,567,899,440,16,481,
0,561,908,436,16,476,
0,555,904,432,16,471,
0,548,883,428,16,465,
0,542,867,423,15,519,
0,614,854,419,15,512,
0,605,839,415,15,505,
0,598,827,411,15,499,
0,590,817,407,15,494,
0,583,804,403,15,489,
0,575,891,439,18,483,
0,568,906,433,18,479,
0,561,907,429,18,475,
0,555,888,424,17,470,
0,548,871,420,17,465,
0,607,857,417,17,495,
0,600,843,412,17,489,
0,592,830,408,17,483,
0,585,817,404,16,478,
0,577,804,400,16,473,
0,571,883,423,16,468,
0,563,904,419,15,463,
0,557,902,415,16,459,
0,551,881,411,15,454,
0,543,867,407,15,451,
0,587,852,403,15,507,
0,597,838,399,15,503,
0,589,825,395,15,496,
0,582,812,391,15,491,
0,574,799,388,15,486,
0,569,813,385,15,481,
0,563,902,432,15,476,
0,556,897,428,15,470,
0,549,878,423,15,465,
0,543,864,419,15,460,
0,536,850,415,15,510,
0,608,839,411,15,504,
0,600,826,407,15,498,
0,592,813,403,14,492,
0,584,800,399,14,487,
0,577,789,395,14,483,
0,571,899,433,14,478,
0,564,905,428,14,472,
0,557,889,425,14,467,
0,551,873,420,14,463,
0,545,859,416,14,516,
0,609,844,412,14,510,
0,601,831,408,14,504,
0,593,818,404,13,498,
0,585,806,400,13,492,
0,579,793,396,13,487,
0,572,888,444,13,482,
0,564,905,440,13,476,
0,558,899,435,13,472,
0,551,879,430,13,467,
0,545,864,426,13,479,
0,607,850,422,12,508,
0,598,836,417,12,503,
0,592,824,414,12,497,
0,585,810,410,12,492,
0,578,798,406,12,487,
0,571,884,438,17,481,
0,564,903,447,17,476,
0,557,891,441,16,471,
0,551,873,436,16,465,
0,544,863,432,15,461,
0,601,849,428,15,455,
0,594,835,423,15,451,
0,587,822,419,16,448,
0,579,809,415,15,444,
0,572,797,412,15,440,
0,565,825,429,15,435,
0,560,902,435,15,431,
0,553,896,430,15,428,
0,547,877,425,15,423,
0,540,863,420,15,419,
0,535,849,417,15,494,
0,595,835,412,15,487,
0,588,822,408,14,483,
0,579,812,404,14,477,
0,573,799,400,14,472,
0,566,788,397,14,467,
0,559,899,435,14,462,
0,552,906,432,14,457,
0,546,892,427,14,454,
0,540,874,423,14,449,
0,534,860,419,14,505,
0,600,846,415,13,499,
0,591,831,411,13,493,
0,584,819,407,13,487,
0,577,807,403,13,482,
0,570,795,399,15,477,
0,563,899,444,16,472,
0,556,907,439,16,467,
0,550,908,434,16,462,
0,543,888,430,15,456,
0,537,872,425,15,507,
0,604,858,421,15,501,
0,595,844,416,15,496,
0,588,831,412,15,489,
0,580,817,409,15,484,
0,575,806,406,15,480,
0,568,889,446,19,474,
0,561,905,440,19,468,
0,555,898,435,18,463,
0,548,878,431,18,459,
0,542,863,427,18,463,
0,604,849,422,17,501,
0,595,839,418,17,496,
0,588,825,414,17,490,
0,580,813,409,17,484,
0,573,800,406,17,480,
0,567,840,437,17,475,
0,560,903,435,17,470,
0,552,904,432,17,465,
0,547,884,428,16,460,
0,542,868,423,16,455,
0,536,855,419,16,504,
0,604,840,415,15,497,
0,595,827,411,15,491,
0,588,815,408,15,486,
0,581,802,403,15,480,
0,574,793,399,15,476,
0,568,900,451,15,471,
0,560,903,446,15,465,
0,553,883,440,15,460,
0,547,868,436,15,456,
0,541,855,432,15,502,
0,604,839,428,15,496,
0,598,827,423,15,491,
0,590,814,420,15,485,
0,583,801,415,14,480,
0,575,790,412,14,475,
0,569,898,443,14,470,
0,562,897,438,14,464,
0,556,878,433,14,460,
0,549,867,428,14,455,
0,543,853,423,14,489,
0,604,839,419,13,483,
0,596,825,415,13,478,
0,588,812,412,13,475,
0,581,800,408,13,469,
0,574,788,403,13,463,
0,569,892,447,14,459,
0,562,905,441,14,454,
0,556,900,436,14,449,
0,548,880,432,13,445,
0,542,865,428,13,473,
0,611,851,423,13,499,
0,601,836,419,13,494,
0,594,827,415,13,487,
0,587,814,411,13,483,
0,579,801,407,13,478,
0,572,848,433,13,472,
0,566,903,432,12,468,
0,559,904,428,12,463,
0,551,884,423,12,459,
0,546,869,420,12,454,
0,542,855,415,12,473,
0,593,840,412,14,468,
0,587,828,408,14,463,
0,579,815,403,13,457,
0,572,802,399,13,453,
0,564,835,396,13,448,
0,558,900,443,13,444,
0,551,902,438,13,440,
0,545,882,433,12,435,
0,539,867,428,12,431,
0,533,854,423,12,499,
0,599,839,419,12,492,
0,591,826,415,12,487,
0,583,813,413,12,481,
0,577,801,408,12,476,
0,571,788,405,12,472,
0,564,899,434,12,466,
0,557,903,429,12,461,
0,551,883,423,12,455,
0,543,868,420,11,451,
0,537,855,416,11,511,
0,603,844,412,11,504,
0,595,830,408,11,498,
0,587,817,403,11,492,
0,579,804,399,11,487,
0,573,792,396,11,483,
0,566,891,455,28,478,
0,560,902,451,28,473,
0,554,884,446,28,468,
0,547,869,441,27,463,
0,542,855,436,27,501,
0,607,841,432,27,516,
0,599,828,428,27,510,
0,591,815,423,26,504,
0,583,802,419,26,499,
0,575,793,415,25,494,
0,569,864,459,27,487,
0,562,904,454,27,483,
0,556,905,448,26,478,
0,548,886,444,25,473,
0,543,870,440,25,468,
0,611,856,435,25,519,
0,604,841,432,25,513,
0,596,828,427,24,507,
0,589,816,423,24,502,
0,582,803,419,24,496,
0,575,856,415,24,491,
0,568,903,455,24,486,
0,561,904,451,24,480,
0,555,888,446,24,475,
0,547,872,441,24,470,
0,542,859,436,23,494,
0,600,844,432,23,487,
0,591,830,428,23,483,
0,583,817,423,23,478,
0,575,805,419,22,473,
0,571,792,416,23,468,
0,564,900,445,23,463,
0,558,909,440,22,459,
0,551,910,435,22,454,
0,544,891,431,22,449,
0,538,874,427,22,511,
0,604,859,422,21,504,
0,595,848,417,21,499,
0,588,835,414,21,493,
0,580,822,409,20,487,
0,573,809,406,20,483,
0,567,895,450,20,478,
0,560,906,445,20,473,
0,552,901,440,20,468,
0,546,880,437,20,463,
0,542,865,433,19,505,
0,613,851,428,19,508,
0,604,837,423,19,502,
0,596,824,419,19,496,
0,589,812,415,19,491,
0,582,799,412,19,486,
0,575,864,460,19,480,
0,568,903,454,19,475,
0,561,899,448,19,470,
0,555,879,444,18,465,
0,547,864,440,18,462,
0,607,849,435,18,501,
0,599,836,431,17,496,
0,591,823,427,17,489,
0,585,810,423,17,484,
0,577,798,419,17,479,
0,571,859,415,18,473,
0,563,903,433,18,468,
0,557,896,428,17,463,
0,551,877,423,17,459,
0,543,862,419,17,455,
0,557,852,415,17,497,
0,594,838,412,17,492,
0,587,824,408,17,486,
0,579,812,403,16,481,
0,572,799,399,16,476,
0,565,787,396,21,472,
0,559,900,434,20,467,
0,553,907,431,20,462,
0,547,892,425,20,457,
0,540,874,422,19,452,
0,534,860,418,20,499,
0,591,846,414,19,492,
0,583,831,409,19,487,
0,575,819,405,19,481,
0,568,809,401,19,476,
0,562,797,398,19,472,
0,556,895,438,19,466,
0,548,905,432,19,461,
0,542,891,428,19,457,
0,536,873,423,19,453,
0,530,859,420,19,515,
0,586,845,415,18,508,
0,579,831,412,18,503,
0,571,819,408,18,497,
0,564,806,404,18,492,
0,557,793,399,18,486,
0,551,892,431,17,481,
0,544,901,426,17,476,
0,537,887,422,17,471,
0,531,871,417,17,465,
0,526,856,413,17,499,
0,584,843,408,17,492,
0,577,829,405,17,487,
0,569,816,401,17,483,
0,563,803,397,17,478,
0,556,792,395,16,472,
0,551,854,403,16,467,
0,543,902,436,16,462,
0,537,888,431,16,457,
0,531,871,427,16,452,
0,526,856,423,15,448,
0,556,843,418,15,493,
0,579,831,414,15,487,
0,572,819,409,15,481,
0,564,807,406,15,476,
0,558,795,402,15,472,
0,551,783,399,15,467,
0,545,899,435,15,463,
0,538,888,431,15,457,
0,531,871,427,15,453,
0,527,856,423,15,448,
0,521,844,419,14,480,
0,583,829,414,14,473,
0,575,816,409,14,468,
0,568,803,406,14,463,
0,561,792,401,14,457,
0,555,780,398,14,454,
0,548,895,444,14,448,
0,542,902,439,14,444,
0,536,883,434,13,440,
0,529,868,430,13,436,
0,524,854,425,13,500,
0,584,839,421,13,493,
0,575,827,418,12,487,
0,571,814,414,12,482,
0,563,801,409,12,477,
0,557,790,406,12,472,
0,551,891,449,13,467,
0,543,879,444,13,462,
0,537,864,439,12,456,
0,531,849,434,12,451,
0,526,839,430,12,499,
0,588,825,425,12,492,
0,579,812,421,12,487,
0,572,799,417,12,481,
0,566,788,412,12,478,
0,558,776,408,12,472,
0,551,856,449,12,467,
0,547,900,445,12,463,
0,540,885,440,11,457,
0,535,869,435,11,453,
0,527,855,431,11,448,
0,561,841,427,11,499,
0,583,828,423,11,494,
0,575,815,419,11,487,
0,569,806,414,11,483,
0,562,793,410,11,477,
0,556,782,409,12,472,
0,549,900,448,12,467,
0,543,896,443,11,463,
0,536,877,438,11,459,
0,530,863,433,11,454,
0,526,849,430,11,512,
0,582,835,425,11,505,
0,575,822,422,11,499,
0,568,809,417,11,494,
0,560,796,413,11,488,
0,553,785,409,12,483,
0,547,900,440,11,478,
0,540,904,436,11,473,
0,535,888,431,11,468,
0,528,871,427,11,463,
0,523,857,423,11,521,
0,587,843,418,11,516,
0,579,830,414,10,511,
0,572,816,409,10,504,
0,564,804,407,10,499,
0,560,792,403,10,494,
0,553,895,433,10,487,
0,547,902,428,10,483,
0,540,883,423,10,478,
0,534,868,419,9,472,
0,527,857,415,10,519,
0,587,844,411,10,512,
0,579,830,407,9,508,
0,572,817,403,9,502,
0,567,804,399,9,496,
0,560,792,396,9,491,
0,552,831,419,9,487,
0,546,903,440,9,482,
0,542,907,435,9,476,
0,536,889,431,9,472,
0,529,877,427,9,467,
0,524,862,423,8,519,
0,582,848,419,8,512,
0,574,835,415,8,506,
0,568,824,411,8,502,
0,560,812,407,7,496,
0,555,799,403,7,491,
0,548,892,449,9,486,
0,542,903,444,9,481,
0,536,896,439,9,476,
0,531,876,435,8,472,
0,525,862,431,8,466,
0,559,851,427,8,521,
0,581,838,422,8,517,
0,575,824,419,8,511,
0,568,811,415,8,505,
0,561,801,411,8,499,
0,555,790,407,9,496,
0,548,897,442,12,490,
0,543,908,437,12,485,
0,536,903,432,12,480,
0,531,881,428,12,475,
0,524,866,423,12,519,
0,578,851,419,11,513,
0,571,838,415,11,507,
0,563,828,411,11,501,
0,556,815,407,11,496,
0,550,803,403,11,490,
0,543,884,422,13,484,
0,536,903,417,13,481,
0,530,891,412,13,476,
0,524,873,408,13,471,
0,519,859,405,12,490,
0,583,845,401,12,525,
0,575,831,397,12,519,
0,568,818,393,12,513,
0,560,806,390,12,507,
0,553,793,387,12,502,
0,547,879,418,12,496,
0,540,903,430,12,491,
0,535,896,425,12,486,
0,528,876,422,12,480,
0,523,862,417,11,476,
0,572,847,413,11,523,
0,568,834,408,11,516,
0,561,821,405,11,511,
0,554,808,402,11,504,
0,549,796,398,11,499,
0,543,808,395,12,494,
0,536,902,431,12,487,
0,530,899,425,12,483,
0,524,879,422,12,478,
0,518,864,417,12,473,
0,512,851,413,12,513,
0,569,839,409,12,507,
0,562,826,405,12,501,
0,555,813,401,12,496,
0,548,801,397,11,489,
0,542,789,393,11,486,
0,536,899,452,11,480,
0,529,903,448,11,476,
0,524,887,444,11,471,
0,519,871,439,11,465,
0,513,856,435,10,507,
0,577,843,430,10,499,
0,569,829,425,10,495,
0,562,816,422,10,489,
0,555,803,417,9,483,
0,548,795,413,9,480,
0,542,887,446,10,475,
0,536,902,442,10,469,
0,531,885,438,10,464,
0,524,870,433,9,460,
0,519,856,428,9,476,
0,579,845,423,9,511,
0,570,831,419,9,505,
0,564,818,417,9,499,
0,558,806,412,9,494,
0,551,796,408,9,489,
0,543,784,404,14,484,
0,537,899,438,14,479,
0,531,896,434,13,473,
0,527,876,430,13,469,
0,521,862,425,13,463,
0,515,848,422,13,511,
0,579,835,416,13,504,
0,571,822,412,12,499,
0,563,808,408,12,493,
0,557,796,404,12,487,
0,550,787,400,12,483,
0,543,894,440,12,477,
0,537,905,435,13,472,
0,531,894,431,12,467,
0,525,876,427,12,463,
0,519,861,423,12,519,
0,593,847,418,12,524,
0,588,833,415,12,517,
0,580,820,411,12,511,
0,573,807,407,12,505,
0,566,796,403,12,499,
0,560,893,454,14,494,
0,552,905,448,14,488,
0,546,898,443,14,483,
0,540,881,439,13,478,
0,534,866,434,13,474,
0,604,852,429,13,476,
0,595,838,425,13,472,
0,587,825,420,13,467,
0,579,812,416,12,463,
0,572,799,412,12,457,
0,568,860,412,14,453,
0,560,903,433,14,448,
0,554,891,429,14,444,
0,547,873,424,14,440,
0,541,860,420,13,435,
0,547,846,415,13,499,
0,598,831,412,13,493,
0,590,822,408,13,487,
0,582,809,403,12,482,
0,575,797,399,12,477,
0,568,785,396,15,472,
0,561,900,430,15,468,
0,555,896,425,14,463,
0,548,877,421,14,459,
0,542,862,417,14,454,
0,537,849,414,14,526,
0,603,835,409,14,519,
0,595,822,405,13,513,
0,588,808,401,13,507,
0,580,796,398,13,502,
0,573,784,393,13,496,
0,567,895,432,13,491,
0,560,903,428,13,486,
0,552,885,423,12,480,
0,547,870,419,12,475,
0,540,856,415,12,539,
0,595,841,411,12,532,
0,588,828,407,12,526,
0,580,815,403,12,519,
0,575,803,399,12,515,
0,568,791,396,12,508,
0,561,894,443,12,504,
0,554,901,438,12,497,
0,547,882,432,12,492,
0,541,867,428,12,487,
0,536,853,423,12,510,
0,609,843,419,12,511,
0,600,829,415,12,504,
0,592,816,411,12,499,
0,585,803,408,12,494,
0,577,792,403,12,489,
0,571,863,448,12,484,
0,563,901,444,12,479,
0,559,886,439,12,473,
0,552,870,434,12,470,
0,546,856,430,12,463,
0,568,841,425,11,504,
0,604,828,422,11,497,
0,596,815,417,11,492,
0,589,803,412,11,487,
0,582,793,408,11,481,
0,575,782,406,12,476,
0,568,900,419,12,471,
0,561,897,415,12,465,
0,555,878,411,12,462,
0,548,863,407,12,457,
0,550,850,403,12,524,
0,607,835,399,11,517,
0,599,823,396,11,511,
0,591,809,391,11,505,
0,583,797,388,11,499,
0,576,785,385,15,494,
0,569,900,435,15,488,
0,563,902,430,15,483,
0,556,887,425,15,478,
0,550,871,420,15,473,
0,543,856,417,14,523,
0,606,843,412,14,516,
0,598,829,408,14,512,
0,590,816,404,14,507,
0,583,803,399,14,500,
0,577,792,397,14,496,
0,571,895,451,14,489,
0,563,905,446,14,484,
0,557,891,441,13,480,
0,551,873,436,13,475,
0,543,859,432,13,531,
0,598,845,428,13,526,
0,589,835,423,13,519,
0,582,822,419,12,513,
0,574,809,415,12,508,
0,568,797,411,12,503,
0,561,877,440,14,498,
0,553,904,435,14,492,
0,547,901,430,13,487,
0,540,880,427,13,482,
0,536,865,422,13,477,
0,568,851,418,12,529,
0,599,838,414,12,523,
0,591,824,409,12,517,
0,583,812,406,12,511,
0,575,799,402,12,505,
0,569,812,403,13,500,
0,563,903,444,13,494,
0,556,909,440,13,489,
0,549,907,435,12,484,
0,543,884,431,12,480,
0,559,870,426,12,536,
0,601,855,422,12,529,
0,593,841,419,12,524,
0,588,828,415,12,518,
0,580,815,411,12,512,
0,574,803,407,12,506,
0,567,902,440,12,500,
0,560,903,435,12,495,
0,553,884,430,12,489,
0,547,869,425,11,484,
0,540,858,422,11,547,
0,595,844,417,11,540,
0,588,831,413,12,534,
0,580,817,408,12,527,
0,573,805,405,11,524,
0,567,793,401,11,518,
0,560,896,441,13,511,
0,555,904,438,13,505,
0,547,888,433,12,500,
0,542,872,428,12,495,
0,536,858,424,12,538,
0,602,844,420,12,531,
0,594,831,415,12,524,
0,586,818,412,12,519,
0,579,808,408,12,513,
0,572,796,403,12,507,
0,566,886,441,12,502,
0,558,905,435,12,496,
0,551,907,431,12,492,
0,545,888,427,12,487,
0,539,871,423,12,482,
0,583,857,419,11,532,
0,600,843,415,11,526,
0,592,830,411,11,519,
0,585,817,407,11,514,
0,578,804,403,11,508,
0,572,883,417,19,503,
0,564,905,440,19,497,
0,558,908,435,19,492,
0,551,895,430,19,487,
0,543,876,426,19,481,
0,572,862,422,19,530,
0,607,847,417,19,525,
0,599,833,414,18,519,
0,591,820,409,18,513,
0,583,807,407,17,507,
0,578,819,403,19,502,
0,572,903,445,19,496,
0,564,907,440,18,491,
0,558,892,435,18,486,
0,551,875,431,18,480,
0,545,861,427,17,528,
0,611,849,423,17,522,
0,603,836,418,17,516,
0,595,823,414,17,510,
0,588,810,409,17,504,
0,580,798,406,16,500,
0,574,897,444,17,495,
0,567,905,440,16,489,
0,560,890,435,16,484,
0,555,873,432,16,480,
0,548,860,427,15,515,
0,603,845,423,15,508,
0,595,831,419,15,502,
0,587,819,414,15,496,
0,580,806,410,15,491,
0,573,793,406,15,486,
0,567,884,447,16,480,
0,559,903,441,16,476,
0,552,894,437,15,470,
0,546,876,432,15,467,
0,540,860,428,15,462,
0,605,846,423,15,512,
0,596,833,420,15,506,
0,591,819,415,15,500,
0,583,807,412,15,495,
0,575,795,408,15,489,
0,569,883,440,18,484,
0,563,905,467,18,479,
0,556,910,462,18,473,
0,549,905,457,18,468,
0,543,886,452,17,463,
0,583,871,448,17,506,
0,605,856,443,17,500,
0,597,843,439,17,495,
0,590,829,433,17,490,
0,582,816,430,17,485,
0,575,831,434,17,480,
0,569,903,460,17,475,
0,563,909,455,17,470,
0,556,901,450,17,464,
0,550,879,446,17,460,
0,543,865,441,17,521,
0,599,851,436,16,515,
0,591,836,432,16,510,
0,583,827,428,16,504,
0,575,814,423,16,498,
0,568,801,419,17,493,
0,562,897,453,18,487,
0,556,903,448,17,483,
0,548,885,443,17,478,
0,543,870,439,17,473,
0,537,856,435,17,527,
0,605,841,431,16,521,
0,597,828,427,16,515,
0,590,815,423,16,509,
0,582,803,418,15,504,
0,575,791,414,15,499,
0,568,896,448,15,492,
0,561,904,442,15,487,
0,555,895,438,15,482,
0,548,876,433,15,477,
0,542,861,428,15,535,
0,601,847,423,15,528,
0,593,833,420,15,523,
0,585,820,415,15,516,
0,578,807,413,15,511,
0,573,796,408,15,505,
0,566,883,435,14,499,
0,559,904,438,14,494,
0,552,899,433,14,488,
0,546,878,429,14,483,
0,540,864,423,13,479,
0,584,854,419,14,529,
0,597,839,415,13,524,
0,589,825,412,14,518,
0,582,813,408,13,512,
0,575,800,403,13,507,
0,568,831,421,14,502,
0,561,903,440,14,496,
0,554,903,435,14,491,
0,549,882,431,14,486,
0,543,867,427,13,480,
0,536,853,423,14,532,
0,595,839,417,13,526,
0,588,825,414,13,519,
0,581,813,409,13,513,
0,574,800,406,12,508,
0,567,792,402,13,503,
0,560,899,442,13,497,
0,553,901,438,13,492,
0,547,882,432,13,487,
0,540,867,428,13,483,
0,534,852,423,13,538,
0,597,839,420,13,531,
0,591,825,415,12,525,
0,583,812,412,12,519,
0,577,799,408,12,513,
0,569,788,404,12,508,
0,563,896,449,12,502,
0,556,894,444,12,496,
0,550,876,439,12,491,
0,543,865,435,12,486,
0,537,851,430,12,551,
0,604,837,425,11,543,
0,595,824,422,11,536,
0,587,811,417,11,531,
0,580,798,413,11,526,
0,573,787,409,11,519,
0,568,886,452,19,515,
0,561,903,449,19,508,
0,555,891,444,19,503,
0,547,873,440,19,497,
0,542,859,435,18,504,
0,601,845,431,18,545,
0,595,831,425,18,539,
0,588,822,422,17,532,
0,580,809,417,17,527,
0,574,796,414,17,520,
0,567,828,435,17,515,
0,560,903,442,17,511,
0,553,907,438,16,505,
0,547,891,432,16,499,
0,542,873,430,16,494,
0,536,860,425,15,540,
0,598,845,421,15,534,
0,591,831,416,15,527,
0,583,819,412,15,521,
0,575,807,408,15,515,
0,568,824,404,17,510,
0,562,899,440,17,504,
0,556,905,435,16,499,
0,548,888,431,16,494,
0,543,872,427,15,488,
0,536,857,423,15,531,
0,602,844,418,15,524,
0,594,830,414,15,518,
0,587,817,411,15,512,
0,581,805,407,15,507,
0,574,793,403,15,502,
0,568,899,432,15,496,
0,560,905,427,15,490,
0,553,891,423,15,485,
0,547,873,418,15,480,
0,540,863,414,15,564,
0,613,848,409,15,556,
0,604,835,406,15,550,
0,596,822,402,14,543,
0,589,809,398,14,538,
0,582,796,395,14,531,
0,575,888,447,25,526,
0,568,904,443,24,519,
0,563,893,438,24,515,
0,556,875,433,24,509,
0,550,860,428,24,504,
0,610,846,423,24,504,
0,600,832,419,24,498,
0,593,819,415,23,492,
0,585,807,412,23,487,
0,579,798,408,23,483,
0,572,848,453,23,478,
0,564,902,456,23,472,
0,558,889,451,22,467,
0,551,872,448,22,464,
0,545,859,442,22,460,
0,600,845,438,22,519,
0,606,831,434,21,512,
0,598,817,430,21,507,
0,590,805,425,21,500,
0,582,793,422,20,495,
0,575,815,417,21,490,
0,568,900,452,20,484,
0,561,888,448,20,480,
0,555,876,443,20,475,
0,548,861,438,19,470,
0,542,847,433,19,494,
0,597,833,429,19,487,
0,589,820,424,19,483,
0,582,807,420,19,478,
0,575,796,416,19,473,
0,569,783,414,19,468,
0,563,898,440,19,463,
0,556,899,435,19,458,
0,550,880,431,19,454,
0,543,865,427,19,449,
0,537,851,423,19,501,
0,598,838,418,19,495,
0,590,828,414,18,489,
0,582,815,409,18,483,
0,575,802,406,18,478,
0,568,790,402,17,473,
0,561,891,435,19,470,
0,555,906,431,19,463,
0,548,903,426,19,459,
0,542,881,423,19,455,
0,537,866,419,19,496,
0,587,852,415,18,515,
0,579,838,410,19,510,
0,572,825,406,18,504,
0,564,812,403,18,498,
0,558,799,399,17,492,
0,551,847,452,18,487,
0,543,902,449,17,482,
0,538,888,444,17,477,
0,531,871,440,17,472,
0,526,857,435,17,468,
0,585,844,431,17,524,
0,577,830,427,17,517,
0,570,816,423,17,511,
0,565,804,419,16,505,
0,558,792,415,16,499,
0,551,834,411,17,495,
0,545,903,437,17,489,
0,539,899,432,17,483,
0,532,879,428,16,479,
0,526,864,423,16,473,
0,520,854,419,16,521,
0,590,839,415,15,515,
0,582,826,411,15,509,
0,575,814,407,15,504,
0,568,801,403,15,499,
0,561,789,399,15,494,
0,554,899,441,15,487,
0,549,899,435,15,483,
0,543,880,432,15,478,
0,536,865,427,15,472,
0,531,851,423,15,515,
0,600,837,418,14,510,
0,591,824,414,14,504,
0,584,811,410,14,498,
0,577,802,406,14,492,
0,570,790,402,14,487,
0,563,892,441,15,481,
0,556,906,436,15,476,
0,550,903,432,15,472,
0,543,881,427,15,467,
0,537,866,423,15,463,
0,601,851,419,14,468,
0,593,838,415,15,463,
0,585,824,412,14,457,
0,578,812,408,14,454,
0,572,799,403,14,449,
0,564,891,451,14,444,
0,558,905,445,14,440,
0,551,902,440,14,436,
0,544,881,435,13,432,
0,538,866,431,13,452,
0,604,851,427,13,483,
0,595,838,423,13,479,
0,587,824,418,13,473,
0,579,812,414,13,468,
0,574,799,411,12,463,
0,568,846,408,14,459,
0,560,903,448,13,454,
0,553,895,442,13,448,
0,547,876,438,13,444,
0,540,861,433,13,440,
0,536,847,428,12,496,
0,600,838,423,12,489,
0,591,824,420,12,484,
0,584,811,415,12,479,
0,577,799,412,12,473,
0,571,787,408,14,470,
0,563,900,443,13,465,
0,556,905,439,13,460,
0,551,888,435,13,455,
0,545,871,430,13,451,
0,540,857,426,12,500,
0,604,843,422,12,495,
0,595,829,417,12,488,
0,588,816,413,12,483,
0,580,804,409,12,478,
0,573,795,406,12,473,
0,567,894,441,12,467,
0,560,905,436,12,463,
0,553,896,432,12,458,
0,547,876,427,12,455,
0,540,862,423,12,498,
0,600,847,419,11,497,
0,591,834,415,11,492,
0,585,821,412,12,486,
0,579,808,408,11,481,
0,572,796,403,11,476,
0,564,891,446,11,471,
0,558,903,440,11,465,
0,551,890,435,11,460,
0,544,873,431,11,455,
0,539,862,427,11,489,
0,600,847,422,10,504,
0,591,834,418,10,497,
0,583,821,414,10,492,
0,577,808,409,10,487,
0,569,796,406,10,482,
0,563,854,403,11,477,
0,558,903,438,11,472,
0,551,900,433,11,467,
0,545,880,428,10,462,
0,539,864,423,10,457,
0,543,851,419,10,508,
0,594,837,415,10,503,
0,587,824,411,10,496,
0,579,814,408,9,491,
0,572,801,403,9,487,
0,567,790,400,11,482,
0,560,899,440,10,476,
0,553,889,435,10,472,
0,547,873,431,10,466,
0,540,859,426,9,462,
0,535,847,422,9,517,
0,600,834,417,9,512,
0,593,821,414,9,506,
0,585,808,410,9,500,
0,579,799,406,9,495,
0,572,787,402,9,491,
0,564,875,428,10,486,
0,560,899,440,10,480,
0,552,882,435,9,475,
0,546,867,432,9,470,
0,540,856,427,9,466,
0,583,843,423,9,510,
0,595,828,419,11,504,
0,588,816,415,12,498,
0,580,803,411,11,492,
0,574,791,407,12,487,
0,567,800,403,12,482,
0,560,900,438,11,476,
0,553,896,433,12,472,
0,547,876,428,11,467,
0,540,862,423,11,462,
0,535,847,420,11,516,
0,600,834,415,11,512,
0,592,820,412,11,505,
0,585,808,408,10,499,
0,577,796,404,10,495,
0,572,783,400,11,489,
0,566,897,443,11,483,
0,559,902,438,11,479,
0,552,883,433,11,473,
0,546,868,428,11,468,
0,540,854,423,10,464,
0,611,844,420,10,460,
0,602,830,415,10,455,
0,595,817,412,10,451,
0,588,804,408,9,448,
0,579,792,403,9,443,
0,575,891,444,10,438,
0,568,906,441,10,433,
0,560,903,436,10,430,
0,554,881,432,10,425,
0,547,866,427,10,422,
0,609,856,423,9,431,
0,600,841,419,10,427,
0,592,828,415,9,423,
0,587,816,412,9,419,
0,579,803,408,9,415,
0,572,794,403,13,411,
0,566,900,436,13,408,
0,559,896,432,12,403,
0,551,876,428,12,401,
0,545,862,423,12,398,
0,540,848,419,12,469,
0,596,834,415,12,463,
0,591,821,412,12,457,
0,583,808,408,12,453,
0,575,796,403,12,448,
0,568,783,399,14,444,
0,562,899,435,13,439,
0,555,905,430,13,434,
0,548,894,425,13,430,
0,542,876,421,13,425,
0,536,861,416,13,484,
0,600,847,412,13,478,
0,591,833,408,12,473,
0,583,820,404,12,468,
0,575,807,400,12,463,
0,569,796,398,12,459,
0,564,892,438,15,454,
0,557,903,432,15,448,
0,551,889,428,15,444,
0,543,873,423,15,440,
0,537,859,419,15,477,
0,603,844,415,15,487,
0,595,831,411,15,481,
0,587,821,407,15,476,
0,579,807,403,15,471,
0,572,796,399,14,465,
0,566,864,435,15,460,
0,559,904,430,14,456,
0,551,909,425,14,451,
0,545,898,422,14,448,
0,541,878,417,14,443,
0,540,863,414,14,491,
0,586,848,409,14,485,
0,578,835,406,13,480,
0,572,822,401,13,475,
0,564,809,398,13,469,
0,558,855,394,13,463,
0,551,902,431,13,460,
0,544,905,426,12,455,
0,538,888,422,12,450,
0,531,871,417,12,445,
0,527,857,413,12,502,
0,595,843,409,12,495,
0,588,830,405,12,489,
0,582,816,402,12,484,
0,575,804,398,12,479,
0,568,792,395,15,473,
0,561,902,437,15,468,
0,555,907,432,15,463,
0,547,892,428,14,459,
0,542,874,423,14,454,
0,536,864,419,14,519,
0,599,849,415,14,512,
0,591,835,411,14,506,
0,583,823,407,14,500,
0,575,809,403,14,496,
0,569,798,399,13,491,
0,563,894,435,13,486,
0,557,905,431,13,480,
0,551,892,427,12,476,
0,543,875,422,12,470,
0,537,860,417,12,523,
0,604,846,414,12,531,
0,596,831,409,12,524,
0,588,819,406,12,519,
0,581,810,401,12,513,
0,574,798,398,12,507,
0,568,870,428,14,502,
0,560,904,423,14,496,
0,553,903,419,14,492,
0,547,882,415,14,487,
0,541,867,411,14,481,
0,604,853,408,13,523,
0,598,839,403,13,516,
0,590,826,399,13,511,
0,583,813,396,13,505,
0,575,800,391,13,499,
0,568,867,391,14,494,
0,561,904,433,13,488,
0,555,908,428,13,483,
0,548,902,423,13,479,
0,542,880,419,13,473,
0,545,865,415,13,528,
0,600,851,411,12,524,
0,591,838,407,12,518,
0,583,824,403,12,511,
0,575,811,399,12,505,
0,571,799,396,14,500,
0,564,900,443,14,495,
0,558,897,438,14,489,
0,551,878,433,14,484,
0,544,863,428,13,479,
0,539,849,424,13,527,
0,611,835,420,13,519,
0,602,825,415,13,514,
0,595,812,412,13,508,
0,587,799,408,13,503,
0,579,788,403,13,497,
0,572,894,441,15,493,
0,566,903,436,15,487,
0,559,884,432,14,483,
0,554,870,428,14,478,
0,547,856,423,14,541,
0,604,841,420,14,536,
0,595,828,415,14,529,
0,588,815,412,14,524,
0,580,802,408,13,518,
0,573,791,403,13,512,
0,567,871,437,16,506,
0,560,903,432,16,500,
0,552,891,427,15,496,
0,547,873,423,15,489,
0,540,859,419,15,486,
0,608,845,414,15,542,
0,600,831,410,15,535,
0,593,818,407,15,528,
0,586,806,403,15,523,
0,579,793,399,15,516,
0,572,865,408,16,511,
0,565,903,438,15,505,
0,558,896,433,15,499,
0,551,876,429,15,495,
0,545,865,423,15,489,
0,560,852,419,15,535,
0,600,838,415,15,528,
0,591,824,412,15,522,
0,584,812,408,15,518,
0,577,799,403,15,512,
0,571,787,401,15,507,
0,563,897,446,15,500,
0,558,882,441,15,495,
0,551,867,436,15,489,
0,545,852,432,14,485,
0,539,839,428,14,551,
0,606,825,423,14,543,
0,598,812,419,14,537,
0,591,803,415,14,531,
0,583,791,411,14,526,
0,575,779,407,14,519,
0,569,895,454,14,514,
0,563,902,448,14,510,
0,556,883,444,14,504,
0,550,867,439,13,499,
0,543,854,435,13,540,
0,617,839,431,13,533,
0,609,825,427,13,527,
0,601,814,423,12,520,
0,593,801,419,13,515,
0,586,790,414,14,510,
0,579,894,454,32,504,
0,572,904,448,31,497,
0,566,896,444,31,492,
0,559,876,439,31,487,
0,551,862,435,31,496,
0,615,847,430,31,492,
0,608,834,425,30,486,
0,600,821,422,30,480,
0,591,808,418,30,476,
0,587,796,414,29,471,
0,579,872,430,29,465,
0,572,903,451,29,461,
0,566,892,446,28,455,
0,559,874,441,28,452,
0,551,860,436,28,448,
0,577,846,432,28,516,
0,614,835,428,28,511,
0,606,822,423,27,504,
0,598,809,419,27,499,
0,591,797,415,27,494,
0,583,811,412,27,490,
0,575,903,440,26,484,
0,569,909,435,26,480,
0,564,904,432,25,474,
0,558,882,427,25,469,
0,551,867,423,25,521,
0,606,852,418,25,515,
0,598,839,414,24,510,
0,591,825,410,24,504,
0,583,813,406,24,498,
0,575,803,402,24,493,
0,569,897,444,24,487,
0,562,908,439,24,482,
0,556,909,434,24,477,
0,549,891,430,24,473,
0,543,873,425,23,499,
0,604,859,420,23,493,
0,598,845,417,23,487,
0,591,831,414,23,482,
0,583,819,409,23,476,
0,575,806,406,22,472,
0,569,896,447,23,467,
0,562,905,441,22,462,
0,556,894,436,22,457,
0,549,880,432,22,452,
0,543,864,428,22,512,
0,611,850,423,22,505,
0,602,836,419,21,500,
0,595,824,415,21,496,
0,587,811,411,21,490,
0,579,799,407,20,485,
0,573,880,422,20,480,
0,568,903,440,20,474,
0,560,893,435,20,470,
0,554,876,431,19,464,
0,547,860,426,19,460,
0,589,847,422,19,519,
0,604,833,417,19,513,
0,595,823,414,19,507,
0,588,810,409,19,502,
0,580,798,406,19,496,
0,574,816,407,20,491,
0,568,903,439,20,486,
0,560,908,433,19,481,
0,553,900,429,19,476,
0,547,879,425,19,472,
0,543,864,422,19,480,
0,607,849,417,19,475,
0,599,836,413,19,470,
0,591,824,409,19,464,
0,583,811,404,19,460,
0,575,812,401,19,455,
0,569,903,428,18,451,
0,563,905,423,18,446,
0,556,890,419,18,441,
0,550,873,415,17,438,
0,543,859,412,17,492,
0,600,845,408,17,487,
0,592,831,403,17,481,
0,585,819,399,17,476,
0,580,806,396,16,472,
0,572,793,392,16,467,
0,567,896,440,16,462,
0,559,904,435,16,455,
0,552,888,431,16,451,
0,546,871,427,15,448,
0,540,857,423,15,506,
0,600,847,418,15,499,
0,591,833,414,15,493,
0,584,819,409,15,487,
0,577,807,406,15,482,
0,569,795,402,15,478,
0,563,883,444,15,473,
0,556,904,438,15,468,
0,551,897,435,15,463,
0,545,878,430,15,459,
0,539,863,425,15,455,
0,590,849,422,15,508,
0,595,835,417,15,504,
0,588,822,413,15,497,
0,580,809,408,14,492,
0,572,799,405,14,487,
0,566,821,430,15,481,
0,559,903,435,15,476,
0,552,903,430,15,471,
0,546,883,425,14,467,
0,540,867,421,14,462,
0,579,854,417,14,524,
0,606,839,414,14,516,
0,598,826,409,14,511,
0,591,813,406,14,505,
0,583,801,401,15,499,
0,575,792,398,22,494,
0,569,900,440,21,488,
0,563,888,435,21,483,
0,556,875,430,20,479,
0,550,860,425,20,473,
0,543,846,422,20,525,
0,599,832,417,20,519,
0,590,819,412,19,513,
0,583,807,408,19,508,
0,575,794,404,19,502,
0,568,783,401,19,497,
0,563,896,444,19,492,
0,556,899,439,19,486,
0,550,880,433,19,480,
0,543,865,430,19,476,
0,537,851,425,19,524,
0,588,838,420,18,518,
0,580,827,415,19,512,
0,573,814,412,18,505,
0,566,801,408,18,500,
0,560,790,404,17,495,
0,553,887,451,18,491,
0,546,904,446,17,486,
0,540,892,440,17,480,
0,534,874,438,17,475,
0,529,860,433,17,470,
0,592,846,428,17,465,
0,587,831,423,17,460,
0,579,819,419,16,455,
0,572,807,415,16,451,
0,566,794,412,16,447,
0,559,880,423,17,443,
0,551,902,425,16,439,
0,545,896,422,15,434,
0,539,876,417,15,430,
0,532,862,413,15,426,
0,580,847,408,15,480,
0,588,833,404,15,473,
0,580,821,401,15,468,
0,575,807,398,15,463,
0,568,796,394,15,459,
0,561,807,391,18,454,
0,555,901,441,17,449,
0,547,894,436,17,444,
0,542,876,432,17,440,
0,536,861,427,17,435,
0,529,851,423,16,497,
0,599,836,419,16,491,
0,591,824,414,16,485,
0,583,811,410,16,480,
0,575,798,406,15,476,
0,568,787,403,16,471,
0,562,899,446,16,465,
0,557,905,443,15,460,
0,551,890,438,15,455,
0,543,873,433,15,451,
0,537,859,428,15,489,
0,595,845,423,15,483,
0,588,831,420,15,478,
0,579,818,415,15,472,
0,572,808,412,15,467,
0,566,796,408,15,463,
0,559,891,454,15,457,
0,551,906,448,15,452,
0,545,904,444,15,449,
0,540,883,440,15,445,
0,533,867,435,14,459,
0,597,854,432,15,496,
0,591,839,427,14,489,
0,583,827,423,14,484,
0,575,814,419,14,479,
0,569,801,415,14,473,
0,563,884,440,17,468,
0,556,904,440,17,463,
0,548,900,435,17,459,
0,542,880,430,16,454,
0,536,865,425,16,451,
0,591,851,422,15,499,
0,599,837,417,15,494,
0,591,824,413,15,488,
0,583,812,409,15,483,
0,575,799,406,15,478,
0,572,824,402,15,473,
0,564,902,444,15,467,
0,558,899,440,15,463,
0,551,879,435,15,458,
0,545,864,431,15,453,
0,539,851,427,15,510,
0,588,836,422,14,504,
0,580,827,417,14,498,
0,573,814,414,14,493,
0,566,801,409,14,487,
0,560,790,406,14,483,
0,552,899,441,14,478,
0,546,904,436,14,472,
0,540,886,433,13,467,
0,535,870,429,14,463,
0,529,856,424,13,512,
0,591,841,420,13,505,
0,583,828,415,12,499,
0,575,816,412,12,494,
0,569,803,408,12,488,
0,563,792,403,12,483,
0,556,896,463,16,478,
0,550,908,458,15,472,
0,543,912,453,15,467,
0,536,911,448,15,463,
0,531,888,444,15,496,
0,586,871,440,15,512,
0,579,857,435,15,505,
0,573,844,432,15,500,
0,566,830,427,15,495,
0,559,817,423,15,489,
0,552,892,455,15,483,
0,546,907,450,15,479,
0,540,905,445,15,473,
0,534,884,440,15,468,
0,527,872,436,15,463,
0,589,858,432,15,478,
0,580,844,427,14,472,
0,573,831,423,15,467,
0,566,817,419,14,463,
0,559,805,415,14,459,
0,552,841,436,15,454,
0,547,903,435,15,449,
0,541,903,431,15,444,
