=~=~=~=~=~=~=~=~=~=~=~= PuTTY log 2021.04.22 11:44:10 =~=~=~=~=~=~=~=~=~=~=~=
5,910,151,305,236,
0,257,894,149,302,234,
0,255,875,150,300,25,
0,295,887,140,305,281,
0,291,871,153,303,279,
0,288,856,152,300,275,
0,286,840,284,908,140,311,253,
0,297,908,139,308,268,
0,295,887,140,305,281,
0,291,871,153,303,279,
0,288,856,152,300,275,
0,286,841,150,297,273,
0,284,828,148,295,271,
0,281,815,147,292,268,
0,279,799,146,301,267,
0,276,901,145,323,263,
0,278,909,1&ibbj
0,275,908,143,318,294,
0,273,885,143,315,289,StartUp!
124,270,907,138,308,211,
0,268,903,137,307,209,
0,267,887,136,304,208,
0,263,874,135,303,207,
0,263,863,135,300,224,
0,262,852,134,299,223,
0,259,841,134,296,222,
0,257,831,133,295,220,
0,255,820,131,293,219,
0,254,811,131,291,217,
0,252,799,130,295,216,
0,251,903,129,295,214,
0,254,910,127,292,211,
0,252,905,127,289,209,
0,249,881,126,287,207,
0,248,866,126,285,207,
0,246,851,125,283,205,
0,243,833,124,280,204,
0,241,820,123,278,202,
0,239,807,123,275,199,
0,237,849,121,288,199,
0,236,905,120,286,198,
0,253,910,120,283,195,
0,251,905,119,280,194,
0,248,881,118,278,193,
0,246,865,118,275,203,
0,244,851,117,273,200,
0,241,833,116,271,199,
0,240,820,115,268,198,
0,238,807,115,267,195,
0,236,884,115,271,195,
0,235,906,113,269,193,
0,257,910,113,267,192,
0,255,903,112,264,191,
0,252,879,111,263,216,
0,251,864,130,260,231,
0,248,850,129,259,230,
0,246,831,127,255,228,
0,244,819,127,255,226,
0,242,806,126,252,224,
0,240,894,124,311,223,
0,238,908,124,307,220,
0,276,910,122,304,218,
0,274,899,121,302,216,
0,271,876,123,300,252,
0,270,862,148,295,248,
0,267,847,147,294,246,
0,263,830,145,291,244,
0,263,816,144,288,242,
1,260,804,143,287,240,
1,257,899,142,327,238,
1,272,908,141,323,236,
2,271,911,140,319,233,
2,270,897,139,318,231,
3,267,876,158,315,267,
3,264,861,155,312,263,
3,262,847,154,310,262,
3,259,829,152,306,259,
3,257,816,152,304,257,
3,255,803,150,331,255,
3,254,902,149,337,252,
4,299,909,147,334,251,
4,295,910,146,331,248,
4,291,889,145,327,246,
4,289,873,167,325,263,
4,287,857,166,322,261,
4,284,843,164,319,259,
5,281,826,163,316,255,
4,280,813,162,313,255,
4,277,848,161,342,252,
5,275,904,159,338,249,
4,293,910,158,335,248,
5,289,909,156,332,245,
4,287,886,155,328,243,
4,284,870,165,326,260,
4,282,856,163,323,257,
4,280,841,162,319,255,
4,277,824,161,317,253,
4,275,811,159,315,251,
4,272,884,158,338,248,
4,270,905,156,335,247,
4,273,911,156,332,244,
4,271,911,154,328,242,
4,269,889,152,326,241,
4,267,872,168,323,240,
4,263,857,167,319,239,
4,262,844,166,318,237,
4,259,827,164,314,235,
4,258,814,163,312,233,
4,255,895,162,321,231,
4,254,908,160,319,230,
3,298,911,159,316,227,
4,295,907,158,312,225,
3,292,882,156,311,254,
3,290,867,158,307,251,
3,287,852,156,305,248,
4,285,838,155,303,246,
3,283,821,153,300,243,
3,280,807,152,297,242,
3,278,898,152,331,240,
3,280,908,150,327,238,
3,280,911,149,324,236,
3,278,899,147,321,233,
3,275,876,158,319,270,
3,272,862,156,316,267,
3,270,847,154,313,263,
3,268,833,153,311,262,
3,265,816,152,307,259,
3,263,804,151,322,257,
3,262,902,150,334,255,
3,291,910,148,330,253,
3,287,911,147,327,251,
3,286,896,146,324,248,
3,283,876,167,321,248,
3,280,860,166,319,246,
3,278,846,163,316,243,
3,275,831,162,313,241,
3,273,816,161,310,240,
3,271,841,159,339,238,
2,268,903,159,335,236,
3,280,910,157,333,234,
2,276,909,156,330,231,
2,273,886,154,327,230,
2,271,870,156,324,255,
2,269,855,155,321,254,
2,267,840,153,319,252,
2,263,824,152,316,249,
1,263,811,151,312,248,
2,260,883,150,327,246,
2,258,905,148,325,243,
2,263,911,147,322,241,
2,262,907,146,319,240,
2,259,883,144,316,254,
1,257,867,167,313,253,
1,255,852,167,311,251,
2,252,839,165,308,248,
1,251,822,163,305,247,
1,248,808,163,303,243,
1,247,893,161,321,242,
1,244,907,159,318,240,
1,268,911,159,315,241,
1,264,903,157,312,267,
1,263,880,156,310,266,
1,260,864,164,307,263,
1,258,850,163,304,262,
1,255,836,161,302,259,
1,253,819,159,299,257,
1,252,806,158,295,255,
1,249,899,157,324,252,
1,259,908,156,321,250,
1,267,911,155,318,248,
1,263,902,153,316,246,
0,262,878,161,312,255,
1,259,863,159,310,252,
1,257,848,158,307,251,
1,255,835,156,304,248,
0,252,818,156,302,246,
1,250,806,154,312,244,
0,248,902,152,332,242,
0,276,910,152,327,240,
0,273,911,151,325,238,
0,270,892,149,322,236,
0,268,874,160,319,254,
0,265,859,159,316,252,
0,263,844,158,314,249,
0,260,831,156,312,247,
0,258,814,155,308,244,
0,255,835,154,341,243,
0,254,903,152,337,240,
0,277,910,152,334,239,
0,275,909,150,331,236,
0,271,886,148,327,235,
0,269,871,150,326,263,
0,266,856,149,323,260,
0,263,841,147,319,258,
0,262,828,146,317,255,
0,259,811,145,314,254,
0,257,879,144,335,252,
0,255,905,143,332,249,
0,294,911,142,327,248,
0,291,909,141,326,245,
0,287,885,140,323,243,
0,286,869,143,319,248,
0,283,855,141,317,246,
0,280,840,140,314,243,
0,278,827,139,312,242,
0,275,811,138,309,240,
0,273,892,137,344,238,
0,271,907,135,340,236,
0,275,911,135,337,234,
0,273,904,134,335,231,
0,270,880,132,332,231,
0,268,865,131,328,244,
0,265,851,131,326,243,
0,263,836,130,323,240,
0,261,824,129,319,238,
0,259,807,127,317,236,
0,257,897,127,359,234,
0,263,908,126,355,231,
0,276,911,126,352,231,
0,274,899,124,349,228,
0,271,876,123,346,227,
0,268,862,123,344,246,
0,266,847,122,340,243,
0,263,833,121,337,241,
0,262,819,120,334,240,
0,259,803,120,337,238,
0,257,901,119,356,236,
0,300,909,118,353,233,
0,296,911,117,350,231,
0,294,892,116,347,230,
0,291,873,119,344,234,
0,287,859,118,340,231,
0,286,844,116,337,230,
0,283,830,115,335,227,
0,280,817,115,332,226,
0,278,828,113,372,224,
0,275,903,113,368,223,
0,305,910,112,364,220,
0,302,909,111,359,219,
0,299,887,111,358,217,
0,295,871,127,354,221,
0,293,856,126,351,219,
0,291,841,125,348,217,
0,287,828,124,345,216,
0,286,815,123,342,214,
0,283,876,122,372,212,
0,280,905,121,368,210,
0,317,911,120,365,208,
0,313,909,120,361,209,
0,311,886,118,358,207,
0,307,870,134,355,206,
0,304,855,133,352,205,
0,302,841,131,349,204,
0,299,827,131,345,201,
0,295,814,129,343,199,
0,294,890,127,380,199,
0,292,907,127,376,198,
0,343,910,126,372,195,
0,339,899,131,369,212,
0,335,877,129,366,211,
0,332,862,145,363,220,
0,329,847,143,359,217,
0,326,833,142,356,216,
0,323,820,142,353,214,
0,319,807,140,351,212,
0,318,897,139,404,210,
0,337,908,137,399,208,
0,349,911,136,396,215,
0,345,903,135,391,215,
0,342,879,135,389,216,
0,338,864,135,385,214,
0,335,849,135,382,212,
0,332,835,134,379,210,
0,329,822,132,376,208,
0,327,809,131,371,207,
0,323,901,131,405,206,
0,368,909,130,401,204,
0,364,911,128,397,227,
0,359,897,127,393,225,
0,356,876,136,390,224,
0,352,861,143,386,221,
0,349,847,142,383,219,
0,346,832,141,379,217,
0,343,819,140,376,216,
0,339,807,139,372,214,
0,337,903,137,408,211,
0,373,910,136,404,210,
0,368,911,135,400,210,
0,365,894,135,396,207,
0,361,875,134,393,206,
0,357,860,132,390,204,
0,354,845,131,386,203,
0,351,831,130,383,201,
0,348,818,129,380,199,
0,344,808,128,415,198,
0,342,905,127,418,196,
0,361,911,126,414,195,
0,358,910,128,409,220,
0,354,886,127,406,217,
0,350,870,128,403,216,
0,347,856,127,399,214,
0,344,841,126,395,211,
0,340,828,125,391,210,
0,337,814,124,388,208,
0,335,862,123,417,207,
0,332,907,123,411,204,
0,369,911,121,407,203,
0,366,905,128,403,206,
0,362,880,127,399,204,
0,358,865,132,396,215,
0,355,851,131,391,212,
0,352,837,130,389,211,
0,348,824,129,385,209,
0,345,810,127,382,207,
0,343,888,127,418,206,
0,347,908,126,413,204,
0,353,911,125,408,203,
0,350,903,126,405,201,
0,347,879,124,401,218,
0,343,864,133,398,216,
0,339,849,131,393,214,
0,336,835,130,390,211,
0,334,822,129,387,209,
0,331,809,127,384,207,
0,327,896,127,401,206,
0,354,909,126,396,204,
0,350,911,125,391,205,
0,347,901,125,388,203,
0,344,878,125,385,205,
0,339,863,129,382,203,
0,336,847,128,379,201,
0,333,834,127,376,199,
0,331,821,126,372,198,
0,327,807,125,369,196,
0,324,899,124,399,195,
0,342,910,123,393,193,
0,339,911,124,391,195,
0,335,899,123,387,193,
0,332,877,127,384,216,
0,327,861,126,380,214,
0,326,847,124,376,211,
0,323,833,123,372,209,
0,319,819,123,369,207,
0,317,807,121,391,206,
0,315,905,120,391,204,
0,353,911,120,386,203,
0,350,911,120,383,211,
0,345,894,119,379,209,
0,343,874,135,376,216,
0,339,859,133,372,215,
0,335,845,131,369,212,
0,332,831,131,366,211,
0,329,818,129,363,209,
0,327,862,128,388,207,
0,323,907,127,384,206,
0,339,911,126,380,204,
0,335,911,127,376,206,
0,333,890,126,373,204,
0,329,872,126,369,202,
0,326,858,125,366,200,
0,323,844,124,363,199,
0,319,830,123,359,197,
0,318,816,121,357,195,
0,315,887,121,376,194,
0,312,908,120,371,192,
0,313,911,119,368,204,
0,312,907,119,364,202,
0,308,882,118,361,203,
0,306,867,125,358,199,
0,303,852,124,355,199,
0,300,838,123,352,196,
0,298,824,121,349,195,
0,295,812,121,346,193,
0,294,895,120,371,192,
0,295,909,119,368,190,
0,292,911,118,364,192,
0,290,901,120,359,191,
0,287,878,120,357,206,
0,286,863,127,353,204,
0,283,848,127,351,201,
0,280,834,126,348,199,
0,279,821,124,344,198,
0,276,807,124,343,196,
0,274,899,123,364,195,
0,291,910,121,359,193,
0,289,911,134,355,195,
0,286,895,131,352,193,
0,284,875,135,350,240,
0,281,860,134,347,238,
0,279,846,132,344,236,
0,275,831,131,340,231,
0,273,819,130,338,231,
0,271,806,129,356,228,
0,269,902,127,363,227,
0,281,911,127,359,225,
0,280,909,127,355,223,
0,276,887,125,352,221,
0,275,870,140,348,220,
0,271,856,139,345,219,
0,269,841,136,343,216,
0,267,828,135,339,215,
0,265,815,135,337,213,
0,263,850,134,355,211,
0,260,904,132,351,209,
0,286,911,131,348,207,
0,283,908,130,344,220,
0,280,883,129,340,219,
0,278,867,131,337,226,
0,275,853,130,335,224,
0,271,839,129,332,222,
0,270,825,127,329,220,
0,268,812,127,327,217,
0,265,884,126,344,216,
0,263,906,125,340,214,
0,268,911,124,336,227,
0,265,908,123,334,239,
0,263,883,123,331,237,
0,261,867,133,327,236,
0,259,852,131,324,233,
0,255,839,130,322,231,
0,255,825,129,319,228,
0,253,812,127,318,227,
0,251,894,127,337,225,
0,249,908,126,335,223,
0,248,912,125,331,221,
0,246,908,124,327,220,
0,243,883,123,324,233,
0,241,867,135,321,231,
0,240,852,133,319,228,
0,238,839,131,316,227,
0,236,824,131,314,224,
0,235,812,130,312,223,
0,232,899,128,324,220,
0,231,909,127,321,219,
0,230,912,127,318,222,
0,228,903,126,315,220,
0,227,880,142,312,227,
0,225,864,140,310,224,
0,224,849,139,307,223,
0,222,835,137,305,220,
0,220,822,136,303,219,
0,219,809,135,314,216,
0,217,903,134,326,215,
0,220,910,133,323,213,
0,217,912,132,319,211,
0,216,897,131,316,210,
0,215,876,151,313,231,
0,212,860,149,312,230,
0,211,846,147,308,227,
0,209,831,147,306,225,
0,207,819,145,304,223,
0,207,848,143,319,221,
0,205,904,143,316,219,
0,224,911,142,313,217,
0,222,911,140,310,230,
0,220,889,140,307,228,
0,217,871,150,304,240,
0,216,857,148,302,238,
0,214,843,147,300,236,
0,211,829,145,297,233,
0,210,816,143,295,231,
0,208,883,143,319,230,
0,207,906,142,316,227,
0,229,911,140,312,225,
0,227,907,140,310,227,
0,225,883,138,307,239,
0,223,867,145,304,240,
0,221,852,144,302,238,
0,219,839,143,299,236,
0,216,824,142,295,233,
0,215,812,140,295,231,
0,213,896,139,310,229,
0,258,908,138,307,227,
0,259,912,137,304,228,
0,255,911,135,300,227,
0,254,888,135,297,227,
0,252,870,140,295,224,
0,249,856,139,294,223,
0,248,841,137,291,221,
0,244,828,135,288,219,
0,243,815,135,287,217,
0,240,899,134,322,216,
0,243,908,133,319,214,
0,240,912,132,316,212,
0,238,902,131,312,211,
0,236,879,135,310,210,
0,234,864,133,307,209,
0,231,849,132,304,207,
0,231,835,131,302,205,
0,228,822,130,300,203,
0,226,809,129,303,201,
0,224,902,127,324,199,
0,237,910,127,321,199,
0,235,912,126,319,198,
0,232,896,125,316,195,
0,231,875,143,312,228,
0,228,860,143,310,226,
0,227,846,142,307,224,
0,224,831,140,305,222,
0,223,819,139,302,220,
0,221,839,137,327,217,
0,219,903,136,323,216,
0,226,910,135,319,214,
0,224,911,134,318,212,
0,222,889,133,313,211,
0,220,871,134,312,211,
0,219,857,132,308,210,
0,216,843,131,305,208,
0,215,829,131,303,207,
0,212,816,129,301,204,
0,211,880,127,319,203,
0,209,905,127,316,201,
0,231,911,126,314,199,
0,230,911,125,312,198,
0,227,883,124,307,212,
0,2,,909,87,283,231,
0,211,913,88,280,231,
0,210,9138,
0,204,828,89,271,236,
0,203,831,88,270,235,
0,201,900,88,286,231,
0,214,909,87,283,231,
0,211,913,88,280,231,
0,210,913,88,278,230,
0,208,896,87,275,228,
0,207,875,86,273,227,
0,205,860,86,271,225,
0,204,846,84,269,223,
0,201,831,84,267,221,
0,199,819,83,265,220,
0,199,899,83,286,218,
0,199,909,83,284,216,
0,209,913,82,281,240,
0,207,913,103,279,238,
0,205,897,103,275,236,
0,204,876,103,273,233,
0,201,860,102,271,231,
0,199,847,100,269,230,
0,198,832,99,267,227,
0,197,819,99,264,226,
0,195,899,98,283,224,
0,194,908,97,280,222,
0,227,913,96,278,255,
0,225,913,117,275,252,
0,223,896,115,273,249,
0,221,875,115,271,248,
0,219,860,114,268,246,
0,217,846,113,267,243,
0,215,831,112,263,240,
0,213,819,112,263,239,
0,211,897,111,260,236,
0,209,908,110,259,235,
0,207,911,121,255,273,
0,220,897,137,254,270,
0,217,876,161,252,304,
0,216,860,174,250,300,
0,214,846,172,248,296,
0,211,831,171,247,294,
0,209,819,169,244,291,
0,207,806,167,243,287,
0,207,900,166,241,286,
0,205,908,164,240,283,
0,203,903,163,238,280,
0,207,880,162,236,279,
0,205,864,201,235,297,
0,204,850,198,231,295,
0,201,835,196,231,291,
0,199,822,194,230,288,
0,198,809,192,227,286,
0,196,803,191,226,284,
0,195,902,188,224,281,
0,193,909,188,223,279,
0,199,896,186,221,276,
0,206,875,184,220,275,
0,205,860,216,218,302,
0,203,845,214,216,299,
0,199,831,211,216,295,
0,199,818,209,214,293,
0,197,806,207,212,290,
0,195,859,206,211,287,
0,194,904,204,209,285,
0,192,908,203,207,283,
0,191,888,201,206,280,
0,190,871,199,205,294,
0,188,856,223,204,319,
0,187,842,220,202,315,
0,184,828,219,201,312,
0,184,815,216,199,308,
0,182,802,215,199,306,
0,180,888,213,198,304,
0,179,906,211,197,300,
0,178,908,209,195,298,
0,193,884,207,193,295,
0,192,868,206,193,318,
0,190,854,228,191,315,
0,188,839,226,190,312,
0,187,826,224,188,308,
0,185,813,222,188,305,
0,184,799,220,187,303,
0,182,896,217,196,300,
0,180,907,216,195,297,
0,179,907,215,193,295,
0,203,881,212,191,292,
0,200,866,230,190,325,
0,199,851,228,188,321,
0,197,836,226,187,319,
0,195,823,224,185,316,
0,193,810,222,184,312,
0,192,798,220,184,310,
0,190,900,218,193,307,
0,188,908,216,192,304,
0,187,899,215,191,352,
0,212,877,212,188,348,
0,211,862,237,187,345,
0,209,847,233,185,342,
0,207,833,231,184,339,
0,205,820,230,183,335,
0,203,807,227,182,332,
0,201,809,225,194,328,
0,199,903,224,192,326,
0,198,908,222,191,323,
0,217,892,220,189,319,
0,227,873,219,187,318,
0,224,859,239,185,336,
0,222,844,236,184,334,
0,220,830,234,183,331,
0,218,816,231,182,327,
0,216,803,230,180,323,
0,215,866,227,192,321,
0,212,905,225,190,318,
0,211,908,224,188,315,
0,233,888,222,187,312,
0,231,871,220,185,331,
0,229,856,238,184,344,
0,227,841,236,182,340,
0,225,828,234,181,337,
0,223,814,231,179,334,
0,221,801,230,178,331,
0,219,889,228,212,327,
0,217,907,226,210,324,
0,216,908,224,208,321,
0,231,883,223,207,319,
0,228,867,220,204,339,
0,226,852,238,203,335,
0,224,839,236,201,332,
0,222,825,233,199,329,
0,220,812,231,198,327,
0,218,799,229,196,323,
0,216,897,227,213,319,
0,215,907,225,211,317,
0,212,906,224,209,315,
0,231,880,222,207,312,
0,230,865,233,205,341,
0,228,849,231,204,337,
0,226,835,228,201,334,
0,224,822,227,199,331,
0,222,809,224,199,327,
0,220,796,223,199,324,
0,217,900,221,207,321,
0,216,908,219,206,318,
0,215,904,217,204,316,
0,231,876,216,202,312,
0,230,862,230,199,319,
0,228,847,227,199,316,
0,226,833,225,197,313,
0,224,819,224,195,311,
0,222,807,221,194,307,
0,220,824,220,204,305,
0,218,903,217,203,303,
0,216,909,216,201,300,
0,231,900,214,199,297,
0,227,874,212,198,295,
0,226,859,220,195,319,
0,224,845,218,194,316,
0,222,831,216,193,313,
0,220,817,215,192,311,
0,217,804,212,190,308,
0,216,872,211,210,304,
0,214,905,209,207,302,
0,212,908,207,206,300,
0,230,892,206,204,297,
0,227,870,204,203,305,
0,225,855,214,201,307,
0,224,840,211,199,304,
0,222,827,210,198,302,
0,220,814,208,196,299,
0,217,801,206,195,295,
0,216,891,205,218,293,
0,214,907,204,216,291,
0,212,908,201,214,288,
0,243,888,199,212,286,
0,241,867,199,210,311,
0,239,852,224,208,307,
0,236,838,222,207,304,
0,234,824,220,205,302,
0,231,812,217,204,299,
0,230,799,216,203,296,
0,228,897,214,215,294,
0,226,908,211,212,291,
0,224,906,210,211,288,
0,243,883,208,209,286,
0,240,864,227,207,320,
0,239,849,225,206,317,
0,236,835,223,204,315,
0,234,822,222,202,312,
0,231,809,220,200,308,
0,230,797,217,211,305,
0,228,901,216,215,303,
0,226,909,214,212,300,
0,237,905,211,211,322,
0,263,881,210,209,319,
0,260,862,208,207,316,
0,258,847,207,205,313,
0,255,833,205,204,311,
0,254,820,204,202,307,
0,252,807,202,200,305,
0,249,849,200,278,302,
0,247,904,199,284,299,
0,259,911,197,281,295,
0,260,913,195,279,294,
0,258,903,194,276,291,
0,255,875,193,273,289,
0,254,860,192,271,287,
0,252,845,190,269,284,
0,249,831,188,267,282,
0,248,818,188,264,280,
0,244,888,185,313,277,
0,243,906,184,310,275,
0,249,911,183,307,273,
0,254,914,182,304,271,
0,252,907,180,302,268,
0,249,877,179,298,267,
0,248,862,178,295,264,
0,245,847,176,294,263,
0,243,833,175,291,261,
0,241,820,174,288,259,
0,239,896,173,286,255,
0,236,908,172,284,255,
0,235,911,170,281,253,
0,233,903,169,280,252,
0,231,879,179,278,312,
0,229,860,208,275,307,
0,227,845,207,272,304,
0,225,831,204,270,302,
0,224,818,203,268,299,
0,222,806,201,266,295,
0,220,899,199,263,293,
0,218,908,198,263,290,
0,216,902,196,260,287,
0,223,880,195,258,286,
0,221,864,228,255,319,
0,219,847,225,254,316,
0,217,831,224,252,312,
0,216,819,222,251,310,
0,214,806,220,248,307,
0,211,793,217,247,304,
0,210,901,216,244,301,
0,207,907,214,243,299,
0,209,890,211,241,295,
0,211,872,210,240,294,
0,209,859,240,238,326,
0,207,839,237,236,322,
0,206,825,235,234,319,
0,204,813,233,232,316,
0,203,799,231,231,313,
0,201,833,230,230,311,
0,199,903,227,227,307,
0,198,905,225,226,304,
0,207,886,224,225,302,
0,204,869,222,223,300,
0,203,855,241,222,331,
0,200,837,240,220,327,
0,199,824,238,217,324,
0,198,810,236,216,321,
0,196,798,233,215,318,
0,194,880,231,215,316,
0,192,905,229,214,312,
0,191,906,227,212,310,
0,214,885,225,210,307,
0,212,869,224,209,342,
0,210,854,235,207,340,
0,208,836,231,206,337,
0,207,823,231,204,334,
0,204,809,228,203,331,
0,203,797,227,201,327,
0,201,893,225,211,325,
0,199,907,222,209,321,
0,198,905,221,207,319,
0,225,883,219,206,316,
0,223,867,224,204,332,
0,221,852,234,203,327,
0,219,835,231,200,326,
0,217,822,230,199,323,
0,216,807,228,198,319,
0,214,796,226,196,317,
0,211,899,224,198,314,
0,209,908,222,197,311,
0,207,900,220,195,308,
0,231,879,219,194,305,
0,229,864,237,193,344,
0,227,849,235,192,339,
0,224,831,232,190,336,
0,223,818,231,188,333,
0,221,805,229,188,330,
0,219,792,227,201,327,
0,216,902,225,199,324,
0,216,908,223,198,320,
0,222,896,221,196,318,
0,226,876,219,195,315,
0,224,861,238,193,340,
0,222,843,236,192,336,
0,220,829,233,190,334,
0,219,816,231,188,331,
0,216,803,230,187,327,
0,215,849,228,204,324,
0,212,903,226,203,321,
0,211,908,224,200,318,
0,227,891,222,199,316,
0,224,872,220,198,312,
0,222,857,238,195,331,
0,220,839,236,195,327,
0,218,826,233,193,324,
0,216,813,231,191,321,
0,215,799,230,190,319,
0,213,883,227,193,316,
0,211,905,225,192,313,
0,209,905,224,190,310,
0,225,883,222,188,307,
0,224,867,220,187,316,
0,222,853,233,185,313,
0,220,835,231,184,310,
0,217,822,230,183,307,
0,216,808,227,182,304,
0,214,796,225,180,302,
0,212,894,224,199,300,
0,210,907,222,199,297,
0,208,901,220,197,295,
0,241,879,217,195,291,
0,239,864,229,193,316,
0,237,849,235,192,313,
0,235,831,233,191,310,
0,232,818,231,188,307,
0,231,805,229,187,304,
0,229,792,227,186,302,
0,227,899,225,193,300,
0,224,907,223,192,296,
0,223,896,221,190,294,
0,242,876,220,189,291,
0,240,860,240,188,320,
0,238,846,237,185,317,
0,236,829,235,184,315,
0,233,816,233,183,312,
0,231,803,231,182,308,
0,230,792,230,199,306,
0,227,902,227,198,303,
0,225,906,225,195,300,
0,249,888,223,194,297,
0,248,871,221,192,295,
0,247,856,239,191,315,
0,244,841,236,190,312,
0,242,824,234,188,309,
0,240,812,231,186,307,
0,238,799,231,184,304,
0,236,849,228,211,301,
0,233,903,227,209,298,
0,231,903,224,207,295,
0,241,881,222,206,292,
0,239,865,220,204,295,
0,236,851,240,202,316,
0,235,836,238,200,313,
0,231,820,236,199,311,
0,231,807,234,198,307,
0,228,795,231,195,305,
0,227,884,231,205,303,
0,225,905,228,204,300,
0,223,899,226,201,297,
0,247,878,224,199,294,
0,244,863,222,199,307,
0,242,848,239,196,304,
0,240,834,236,195,301,
0,238,817,235,193,299,
0,236,804,231,192,295,
0,233,792,231,192,294,
0,231,896,228,291,291,
0,230,908,227,289,288,
0,238,911,225,286,286,
0,249,911,223,284,283,
0,248,888,221,280,280,
0,245,871,219,279,279,
0,243,856,217,276,276,
0,240,839,216,273,275,
0,239,825,214,271,272,
0,236,812,212,291,271,
0,235,902,211,332,268,
0,242,910,209,329,267,
0,240,914,207,326,263,
0,255,914,206,323,262,
0,254,900,204,319,259,
0,252,877,203,318,257,
0,249,862,201,315,255,
0,248,844,199,312,254,
0,246,831,198,309,252,
0,243,855,196,341,249,
0,241,904,195,338,248,
0,247,911,193,335,247,
0,244,914,192,332,243,
0,243,914,191,329,242,
0,240,894,189,327,240,
0,238,874,188,323,239,
0,236,860,187,320,237,
0,235,842,185,317,236,
0,231,828,184,315,233,
0,231,887,183,352,231,
0,228,906,182,348,231,
0,246,911,180,344,229,
0,243,915,179,341,227,
0,241,912,177,338,225,
0,239,888,176,335,224,
0,237,871,175,332,222,
0,235,857,174,329,220,
0,233,839,172,326,219,
0,231,825,171,323,217,
0,229,896,170,367,216,
0,227,908,169,363,215,
0,248,912,167,359,213,
0,244,915,167,356,211,
0,242,911,165,353,209,
0,240,886,164,350,208,
0,238,870,163,347,207,
0,236,856,162,344,206,
0,233,838,161,340,204,
0,231,824,159,337,203,
0,231,900,158,379,201,
0,234,909,157,376,199,
0,259,913,156,371,199,
0,255,915,155,368,197,
0,254,909,154,364,195,
0,252,883,153,361,194,
0,249,867,152,359,193,
0,248,853,151,355,192,
0,245,835,150,352,191,
0,243,822,149,364,189,
0,241,903,147,379,188,
0,248,910,147,376,187,
0,246,914,146,371,185,
0,243,915,145,368,184,
0,240,905,143,365,183,
0,239,879,143,362,182,
0,236,864,142,359,180,
0,235,849,141,355,179,
0,232,831,140,352,178,
0,231,869,140,385,177,
0,229,905,138,381,176,
0,236,911,137,377,175,
0,233,915,136,374,174,
0,231,915,135,370,172,
0,230,899,135,367,171,
0,227,876,134,364,169,
0,225,860,133,360,168,
0,224,847,131,358,167,
0,222,830,131,353,167,
0,220,891,131,388,166,
0,219,907,129,384,164,
0,249,911,129,380,163,
0,246,915,127,376,163,
0,244,913,127,373,161,
0,241,890,126,370,159,
0,240,872,125,367,159,
0,238,858,124,364,158,
0,236,844,124,359,157,
0,233,827,123,356,156,
0,231,896,121,377,155,
0,230,908,121,374,154,
0,248,912,120,371,153,
0,244,915,120,367,152,
0,242,911,119,364,151,
0,240,884,118,359,150,
0,238,869,117,358,150,
0,236,855,116,354,148,
0,233,840,115,352,147,
0,231,824,115,348,146,
0,230,900,114,359,145,
0,248,909,113,355,144,
0,263,913,113,352,191,
0,259,915,112,349,188,
0,257,908,111,345,185,
0,255,881,111,344,184,
0,254,865,110,340,183,
0,251,851,109,337,181,
0,248,837,108,335,179,
0,247,820,108,348,178,
0,244,903,107,361,177,
0,254,911,107,359,175,
0,252,914,107,355,230,
0,249,914,105,352,227,
0,247,899,105,349,224,
0,244,876,104,346,222,
0,242,861,103,344,220,
0,240,847,103,340,218,
0,238,833,103,337,216,
0,236,867,102,337,215,
0,235,904,101,334,212,
0,246,911,100,331,211,
0,243,914,118,327,240,
0,240,911,116,326,237,
0,239,887,115,323,235,
0,236,871,114,320,231,
0,235,856,113,318,231,
0,233,841,112,316,228,
0,231,825,111,313,227,
0,229,888,111,311,225,
0,227,907,110,308,223,
0,225,911,109,306,221,
0,225,911,124,304,249,
0,222,893,123,302,248,
0,220,874,163,299,287,
0,219,859,162,297,285,
0,217,845,160,295,283,
0,216,831,159,292,280,
0,214,815,158,291,278,
0,212,894,156,287,275,
0,210,907,155,286,272,
0,208,905,153,284,271,
0,207,883,152,282,269,
0,205,867,152,280,290,
0,204,853,195,278,302,
0,202,839,192,275,300,
0,200,825,191,274,295,
0,199,812,189,271,294,
0,198,796,188,270,291,
0,196,898,185,268,289,
0,195,907,184,266,286,
0,193,900,183,263,319,
0,228,878,182,263,316,
0,225,863,180,260,312,
0,224,847,179,259,308,
0,222,834,177,257,306,
0,220,820,176,255,303,
0,218,807,174,254,300,
0,216,796,173,252,298,
0,215,902,172,279,295,
0,246,910,171,276,293,
0,243,913,169,274,291,
0,241,908,167,271,287,
0,238,883,167,270,286,
0,236,867,165,267,283,
0,234,853,163,265,280,
0,231,839,163,263,278,
0,230,825,161,261,275,
0,228,875,160,298,273,
0,227,905,159,335,271,
0,248,911,158,332,269,
0,246,915,157,327,267,
0,243,913,156,326,265,
0,241,889,154,323,263,
0,239,872,153,319,260,
0,237,857,152,318,258,
0,235,843,151,315,255,
0,233,829,150,312,254,
0,231,892,148,359,252,
0,229,907,147,355,251,
0,248,912,147,352,248,
0,246,915,145,348,247,
0,243,911,144,345,244,
0,241,888,143,342,243,
0,239,871,142,339,240,
0,237,856,142,336,239,
0,235,843,140,333,237,
0,232,828,140,331,236,
0,231,899,139,376,233,
0,229,908,139,371,231,
0,250,913,137,368,255,
0,248,915,135,364,252,
0,246,912,135,360,249,
0,243,887,134,358,248,
0,241,871,134,355,244,
0,239,856,132,352,242,
0,236,842,131,349,240,
0,235,828,131,345,239,
0,233,902,129,420,236,
0,248,909,139,415,235,
0,249,914,137,412,232,
0,248,915,135,408,231,
0,244,911,135,403,229,
0,242,883,134,400,227,
0,240,868,133,396,225,
0,238,855,131,393,224,
0,236,839,131,390,222,
0,234,827,130,387,220,
0,231,904,135,408,219,
0,265,911,135,404,217,
0,263,915,134,400,216,
0,260,915,132,397,214,
0,258,908,131,393,212,
0,255,881,130,390,211,
0,252,866,129,386,209,
0,251,851,128,384,207,
0,248,838,127,380,206,
0,247,844,127,403,204,
0,244,906,131,407,203,
0,244,911,129,403,201,
0,242,915,128,399,199,
0,240,916,127,395,199,
0,238,903,126,391,198,
0,236,878,125,388,196,
0,233,863,124,384,195,
0,231,849,124,382,193,
0,230,835,123,378,192,
0,228,883,121,399,191,
0,227,908,130,395,189,
0,227,912,128,391,188,
0,226,915,127,387,187,
0,224,915,127,384,185,
0,222,895,126,380,184,
0,220,874,124,377,183,
0,219,860,124,374,182,
0,216,845,122,371,180,
0,216,831,121,368,179,
0,214,894,120,384,178,
0,211,908,124,380,176,
0,210,913,123,376,176,
0,209,915,122,373,174,
0,207,913,121,369,172,
0,206,888,120,366,172,
0,204,871,120,364,171,
0,203,856,119,360,169,
0,200,843,118,358,167,
0,199,829,116,355,167,
0,198,899,116,391,166,
0,196,910,124,387,165,
0,195,914,123,384,187,
0,193,915,121,380,185,
0,192,910,120,377,184,
0,191,883,120,374,182,
0,189,867,119,370,180,
0,188,854,118,367,179,
0,186,839,116,364,177,
0,185,825,115,361,176,
0,184,902,121,387,175,
0,225,911,120,382,173,
0,223,915,119,379,172,
0,221,915,118,375,171,
0,219,905,117,371,169,
0,217,880,116,368,167,
0,215,864,115,365,166,
0,213,850,114,361,165,
0,211,836,113,359,163,
0,209,849,112,361,163,
0,207,903,120,359,162,
0,222,911,119,355,160,
0,220,915,117,352,201,
0,217,915,116,348,199,
0,216,899,115,345,198,
0,214,876,115,344,196,
0,211,861,113,340,194,
0,209,847,112,337,192,
0,207,833,112,335,192,
0,207,883,111,353,190,
0,204,905,111,349,188,
0,219,912,110,345,187,
0,217,915,109,342,189,
0,216,912,108,339,188,
0,214,887,108,336,186,
0,211,871,107,334,184,
0,209,856,105,331,183,
0,207,842,105,327,182,
0,206,828,104,326,180,
0,204,894,103,335,179,
0,209,908,120,333,177,
0,241,913,119,329,199,
0,239,915,118,327,198,
0,236,910,116,323,195,
0,235,883,115,321,194,
0,231,867,115,319,192,
0,230,854,113,316,191,
0,228,839,113,315,189,
0,226,825,112,312,188,
0,224,899,111,351,185,
0,230,909,111,347,184,
0,228,914,111,344,183,
0,225,915,110,340,182,
0,224,905,109,337,180,
0,222,880,108,334,179,
0,220,864,107,332,177,
0,218,850,106,328,176,
0,216,836,105,326,174,
0,215,823,104,324,173,
0,212,902,134,356,172,
0,252,910,132,353,170,
0,249,915,131,349,169,
0,247,915,130,346,167,
0,244,902,128,344,167,
0,243,877,127,340,165,
0,240,862,127,337,164,
0,238,847,126,335,163,
0,236,834,124,332,161,
0,234,853,124,364,160,
0,231,904,130,363,159,
0,246,911,129,359,158,
0,243,915,127,355,157,
0,240,914,127,352,156,
0,239,894,126,348,155,
0,236,874,124,345,153,
0,233,859,124,343,153,
0,231,845,122,339,152,
0,230,831,121,337,151,
0,228,886,120,359,150,
0,227,906,134,356,149,
0,271,912,131,353,147,
0,268,915,131,349,147,
0,266,912,130,346,147,
0,263,887,128,344,145,
0,262,871,127,340,144,
0,259,856,126,337,143,
0,255,842,125,335,142,
0,254,828,124,332,141,
0,252,896,123,377,140,
0,262,908,134,374,140,
0,284,913,132,370,167,
0,280,915,131,366,166,
0,278,909,129,363,163,
0,275,883,129,359,162,
0,272,867,127,356,161,
0,270,853,127,353,159,
0,268,839,126,350,158,
0,265,825,124,348,157,
0,263,899,124,367,156,
0,269,909,135,363,154,
0,267,914,134,359,165,
0,263,915,132,355,163,
0,262,907,131,352,162,
0,259,880,130,350,160,
0,257,865,129,347,159,
0,255,851,127,344,158,
0,252,836,127,340,156,
0,251,824,126,337,155,
0,248,903,129,336,154,
0,266,910,127,334,152,
0,263,915,127,332,200,
0,261,915,126,327,199,
0,259,902,124,325,197,
0,255,877,124,323,195,
0,255,862,123,319,193,
0,252,847,121,318,192,
0,249,834,120,315,190,
0,248,864,120,353,188,
0,246,905,129,352,187,
0,248,911,127,349,185,
0,246,915,127,345,184,
0,243,915,126,342,183,
0,242,896,125,339,181,
0,240,875,124,336,179,
0,238,860,123,3StartUp!
125,281,910,175,300,243,
0,287,906,174,297,241,
0,285,888,173,295,240,
0,284,876,175,294,239,
0,281,864,173,291,238,
0,280,854,172,291,236,
0,279,843,172,287,236,
0,276,831,170,287,234,
0,275,822,169,285,233,
0,273,812,167,284,231,
0,271,888,167,308,230,
0,270,907,166,305,228,
0,268,911,164,302,227,
0,265,908,163,300,225,
0,263,885,163,297,248,
0,262,868,167,295,259,
0,259,854,166,292,257,
0,257,836,164,289,255,
0,255,824,163,287,253,
0,254,809,162,284,251,
0,252,896,161,312,248,
0,251,908,159,310,246,
0,248,912,158,307,243,
0,247,908,157,304,241,
0,244,882,156,302,240,
0,243,867,155,299,238,
0,241,852,155,296,236,
0,240,835,153,294,233,
0,238,821,152,291,231,
0,236,808,152,291,231,
0,235,904,152,324,230,
0,233,911,151,321,227,
0,231,914,149,319,226,
0,265,909,148,316,224,
0,263,883,163,313,223,
0,260,867,162,311,221,
0,257,853,160,307,220,
0,255,835,159,304,217,
0,254,822,158,302,216,
0,251,824,156,349,216,
0,249,903,156,353,214,
0,247,910,154,350,212,
0,263,913,152,347,211,
0,263,905,152,344,209,
1,261,880,175,340,207,
1,259,865,173,337,206,
2,255,851,172,335,205,
2,254,833,170,331,204,
3,252,819,168,327,202,
3,250,875,167,384,201,
4,248,905,166,378,199,
4,246,911,164,374,199,
5,267,912,163,371,196,
5,263,896,162,367,199,
6,262,876,182,364,229,
6,259,860,180,360,227,
6,257,846,179,358,225,
6,255,829,177,354,223,
6,253,816,176,352,221,
7,251,891,175,384,220,
7,248,907,173,380,217,
7,248,911,172,376,216,
7,281,911,170,372,214,
7,279,888,168,369,247,
7,276,871,167,366,243,
7,274,857,166,363,241,
7,271,843,165,359,240,
7,269,825,163,355,238,
7,267,812,163,352,236,
7,264,897,161,376,233,
7,263,908,159,371,231,
7,260,911,159,368,230,
7,257,908,157,364,227,
7,255,883,174,361,240,
7,253,867,184,359,238,
7,252,852,182,355,236,
7,249,839,180,352,233,
7,247,822,179,348,231,
7,245,808,177,346,230,
7,243,900,176,352,228,
7,242,909,175,349,226,
6,240,911,173,346,224,
6,238,901,172,343,222,
6,236,878,185,340,228,
6,235,863,184,337,226,
6,232,847,182,335,224,
6,231,834,180,332,222,
6,230,817,179,328,220,
6,227,828,177,371,219,
6,226,903,176,368,217,
6,224,910,174,364,216,
6,228,911,173,361,214,
6,227,895,171,358,211,
6,225,875,183,355,235,
6,223,860,180,352,232,
5,221,846,179,348,231,
5,220,831,177,345,228,
5,218,815,176,342,227,
5,216,876,175,367,225,
5,215,905,174,364,223,
5,214,911,172,359,221,
4,214,910,171,356,220,
5,211,888,169,353,219,
4,210,871,189,351,238,
4,208,856,187,348,236,
4,207,841,185,344,233,
4,206,828,184,342,231,
4,204,812,183,338,230,
4,203,892,181,353,227,
4,201,907,179,350,226,
4,205,911,178,347,224,
4,209,908,177,344,222,
4,207,884,175,340,241,
4,206,868,209,337,239,
4,204,854,207,335,236,
3,202,839,205,332,235,
4,199,825,203,329,232,
3,199,809,201,327,231,
3,198,897,199,335,229,
3,196,908,198,332,227,
3,195,911,196,328,225,
3,204,904,195,326,223,
3,202,880,195,323,221,
3,199,864,193,321,219,
3,199,850,192,318,217,
3,197,836,191,316,216,
3,195,819,189,313,214,
3,194,807,188,312,212,
3,193,901,186,316,211,
3,191,910,184,312,209,
3,190,911,184,310,207,
3,196,899,182,307,206,
3,195,877,183,305,238,
3,193,862,180,303,236,
3,192,847,179,300,233,
3,190,833,178,299,231,
3,188,816,176,295,229,
3,187,835,176,330,227,
2,186,903,174,327,225,
3,184,910,172,323,223,
3,190,911,172,320,222,
2,199,892,170,318,220,
2,198,874,194,315,248,
2,196,859,192,312,247,
2,195,844,191,310,243,
2,193,831,189,307,241,
2,192,814,188,305,240,
2,190,880,186,318,238,
2,188,905,184,315,236,
2,187,911,183,312,233,
1,195,911,182,310,231,
1,193,889,180,307,230,
2,191,871,197,304,241,
1,190,857,195,301,239,
2,188,843,193,299,236,
1,186,829,192,295,235,
1,185,813,190,294,231,
1,184,893,189,303,231,
1,183,908,187,300,228,
1,182,911,185,297,227,
1,204,910,184,295,225,
1,201,886,183,292,236,
1,199,870,199,290,263,
1,198,856,199,288,261,
1,195,841,197,286,259,
1,194,828,195,284,255,
1,192,811,193,282,254,
1,192,898,192,300,252,
1,190,909,190,297,249,
1,193,912,189,295,248,
1,216,909,188,292,246,
1,212,883,221,290,243,
1,211,868,229,287,241,
1,208,854,227,285,239,
1,207,839,225,283,237,
1,205,825,223,281,235,
1,204,809,221,279,233,
1,202,902,220,298,231,
1,199,910,217,295,230,
1,199,913,216,293,227,
1,205,905,214,290,226,
1,203,881,213,287,250,
1,201,865,211,286,248,
1,199,851,209,283,245,
0,198,837,207,281,243,
1,196,824,206,279,241,
0,195,851,205,279,239,
0,193,903,203,291,236,
0,192,911,201,288,235,
0,190,913,199,286,232,
1,209,900,199,284,231,
0,207,878,211,281,268,
0,205,862,209,279,263,
0,204,847,207,276,262,
0,202,834,206,275,259,
0,199,820,204,272,257,
0,199,887,201,292,255,
0,197,906,199,289,253,
0,195,911,199,287,251,
0,206,912,198,284,248,
0,203,896,195,282,247,
0,200,875,199,280,280,
0,199,860,196,277,276,
0,198,846,195,275,274,
0,196,831,194,272,271,
0,195,819,192,271,270,
0,193,894,191,294,267,
0,192,908,190,291,264,
0,190,911,188,288,263,
0,216,908,187,286,260,
0,214,883,185,284,263,
0,211,867,185,281,280,
0,209,852,184,279,276,
0,207,839,183,276,274,
0,206,825,181,274,271,
0,204,812,180,271,270,
0,203,899,179,302,267,
0,201,909,177,299,264,
0,199,912,176,295,263,
0,209,907,175,294,260,
0,207,882,174,291,275,
0,204,867,191,289,272,
0,203,852,189,286,270,
0,200,838,187,284,267,
0,199,824,185,281,263,
0,198,811,184,280,263,
0,196,902,183,296,260,
0,194,910,182,295,258,
0,193,913,179,291,255,
0,211,903,178,289,254,
0,209,880,196,287,263,
0,207,864,193,284,259,
0,205,849,192,281,257,
0,203,835,191,280,255,
0,201,822,188,278,253,
0,199,808,188,279,251,
0,198,904,185,295,248,
0,196,911,184,294,247,
0,195,911,183,291,244,
0,222,896,182,287,243,
0,220,876,179,286,267,
0,217,860,178,284,263,
0,216,846,176,281,261,
0,214,831,175,279,259,
0,212,819,174,276,255,
0,211,846,172,293,254,
0,208,906,172,289,252,
0,207,911,170,287,249,
0,228,911,169,284,248,
0,225,889,167,281,246,
0,224,872,192,280,243,
0,221,857,190,277,241,
0,220,844,188,275,240,
0,217,830,187,273,238,
0,216,816,185,271,236,
0,214,883,184,278,233,
0,211,908,183,275,231,
0,210,911,180,271,230,
0,217,910,179,270,228,
0,216,886,178,268,243,
0,213,870,195,265,254,
0,211,855,193,263,251,
0,209,841,192,262,248,
0,207,827,190,260,246,
0,206,814,188,259,244,
0,204,894,187,271,241,
0,203,909,185,268,240,
0,200,912,184,265,238,
0,231,908,182,263,236,
0,229,883,181,260,254,
0,227,867,192,259,251,
0,224,852,191,255,248,
0,223,839,189,255,246,
0,220,825,187,253,243,
0,219,812,185,252,241,
0,217,899,184,271,240,
0,216,910,183,268,238,
0,214,913,182,265,236,
0,222,904,180,263,233,
0,220,880,203,262,248,
0,217,865,199,259,244,
0,216,851,198,257,242,
0,214,836,196,255,240,
0,212,823,195,253,238,
0,211,809,193,255,236,
0,209,903,192,260,233,
0,207,911,190,257,231,
0,207,912,188,255,231,
0,230,900,187,253,228,
0,228,877,199,251,255,
0,225,862,198,249,253,
0,224,847,195,248,250,
0,221,834,193,246,248,
0,220,820,192,243,246,
0,217,856,191,257,243,
0,216,904,189,255,241,
0,215,911,188,252,240,
0,238,912,185,249,238,
0,235,897,184,248,236,
0,233,876,201,246,248,
0,231,861,199,243,245,
0,228,847,197,242,242,
0,227,832,195,240,240,
0,224,819,194,239,238,
0,223,887,192,255,236,
0,221,906,191,252,234,
0,219,911,189,250,232,
0,240,910,188,248,231,
0,238,886,185,246,252,
0,236,870,188,243,263,
0,232,856,186,241,260,
0,231,841,184,240,257,
0,229,827,183,238,255,
0,227,814,182,236,253,
0,225,896,180,252,251,
0,223,908,179,250,248,
0,221,913,177,248,247,
0,235,908,176,245,244,
0,231,883,177,243,270,
0,230,867,209,241,267,
0,227,852,207,239,263,
0,225,839,204,238,262,
0,224,824,203,236,259,
0,222,812,201,234,257,
0,220,899,199,244,255,
0,218,911,198,243,252,
0,216,912,196,240,251,
0,227,902,195,238,248,
0,225,879,211,236,295,
0,224,863,209,235,292,
0,221,848,207,232,289,
0,220,835,206,231,286,
0,217,822,204,230,284,
0,216,809,202,248,281,
0,214,903,199,248,279,
0,212,911,199,245,276,
0,211,911,197,243,274,
0,219,893,195,240,271,
0,216,874,199,239,281,
0,215,859,198,236,279,
0,212,845,195,235,276,
0,211,831,194,233,273,
0,209,818,192,231,271,
0,207,856,191,254,268,
0,206,904,189,252,266,
0,204,911,188,249,263,
0,212,910,187,247,262,
0,210,885,184,244,259,
0,208,870,204,243,273,
0,206,855,203,240,271,
0,204,840,201,239,268,
0,203,827,199,236,265,
0,200,814,198,235,263,
0,199,888,195,252,262,
0,198,906,194,250,259,
0,196,911,192,248,257,
0,198,904,191,246,255,
0,195,880,190,243,274,
0,194,864,207,241,271,
0,193,850,206,240,269,
0,191,836,203,238,267,
0,190,823,201,236,263,
0,188,809,199,233,262,
0,187,896,198,263,259,
0,185,908,196,261,257,
0,184,911,195,259,255,
0,188,904,193,255,252,
0,186,880,193,254,270,
0,184,864,204,252,267,
0,184,850,202,249,265,
0,182,835,199,248,263,
0,180,823,199,246,259,
0,179,809,197,243,257,
0,178,900,195,252,255,
0,176,909,193,249,253,
0,176,911,192,248,251,
0,176,896,191,244,249,
0,175,876,189,243,263,
0,174,860,188,240,260,
0,172,846,185,239,258,
0,172,831,184,237,255,
0,170,819,183,235,254,
0,169,809,182,268,251,
0,167,903,179,270,249,
0,177,910,179,268,248,
0,192,911,177,265,245,
0,203,892,176,263,243,
0,200,873,199,260,271,
0,199,859,196,258,269,
0,197,844,195,255,267,
0,195,831,192,254,263,
0,193,817,191,252,262,
0,192,865,190,275,259,
0,190,905,188,271,257,
0,189,911,186,270,255,
0,217,910,184,267,252,
0,215,886,184,264,250,
0,212,870,207,263,276,
0,211,855,206,260,273,
0,209,840,204,258,271,
0,207,827,201,255,269,
0,205,814,199,254,266,
0,204,889,198,270,263,
0,201,906,196,268,262,
0,199,911,195,265,259,
0,222,908,193,263,257,
0,220,883,192,260,265,
0,217,867,209,259,263,
0,216,853,207,255,260,
0,214,839,205,254,258,
0,211,825,203,252,255,
0,209,812,201,250,253,
0,207,896,199,257,251,
0,206,908,198,255,248,
0,204,911,196,253,247,
0,220,900,195,251,244,
0,217,878,203,248,257,
0,216,862,205,247,255,
0,214,847,204,244,252,
0,212,834,201,243,250,
0,210,820,199,240,248,
0,208,807,198,239,246,
0,207,900,196,255,243,
0,205,909,195,252,241,
0,203,911,193,250,240,
0,231,894,192,248,238,
0,230,875,205,246,273,
0,227,860,203,243,271,
0,225,845,201,241,268,
0,224,831,199,240,265,
0,221,818,198,238,263,
0,220,819,195,255,260,
0,217,903,194,252,258,
0,216,910,193,250,255,
0,217,913,192,248,254,
0,225,893,190,245,252,
0,224,873,202,243,249,
0,222,859,199,241,248,
0,220,844,199,239,246,
0,217,831,197,238,243,
0,216,818,195,236,241,
0,214,871,193,259,239,
0,212,905,192,257,238,
0,210,911,190,254,236,
0,213,911,189,252,233,
0,211,883,187,249,236,
0,209,868,205,248,266,
0,207,854,203,246,263,
0,206,839,201,243,262,
0,204,825,199,241,259,
0,201,812,198,240,255,
0,199,891,196,263,254,
0,199,907,194,262,252,
0,198,911,193,259,249,
0,216,910,192,257,248,
0,213,881,190,254,270,
0,211,866,204,252,267,
0,209,851,201,249,263,
0,207,838,199,248,262,
0,206,824,199,246,259,
0,204,811,196,244,257,
0,202,897,195,273,255,
0,199,908,193,271,252,
0,199,911,192,268,250,
0,209,906,190,266,248,
0,207,878,200,263,252,
0,206,862,203,262,249,
0,204,847,201,259,248,
0,203,833,199,257,246,
0,199,820,198,255,243,
0,199,807,195,253,241,
0,196,901,194,256,239,
0,195,909,193,255,237,
0,194,911,192,252,235,
0,203,901,190,251,233,
0,201,874,199,248,281,
0,199,859,197,246,279,
0,198,844,195,244,276,
0,196,831,193,242,274,
0,195,817,192,240,271,
0,193,827,190,254,268,
0,191,903,188,252,266,
0,190,911,187,249,263,
0,212,911,185,248,262,
0,225,896,184,246,259,
0,223,871,209,243,268,
0,221,856,207,241,265,
0,219,841,206,239,263,
0,217,828,204,237,260,
0,215,815,202,236,258,
0,213,876,199,257,255,
0,211,905,199,255,254,
0,209,911,196,252,252,
0,238,911,195,250,249,
0,235,889,193,248,263,
0,231,867,212,246,286,
0,230,854,211,243,284,
0,228,839,209,241,280,
0,227,825,207,240,279,
0,224,812,205,238,275,
0,222,892,203,263,273,
0,220,907,201,260,271,
0,219,911,199,257,268,
0,238,910,198,255,266,
0,236,886,196,254,270,
0,233,865,214,251,268,
0,231,851,211,248,265,
0,230,838,209,247,263,
0,227,824,207,244,261,
0,225,811,206,243,259,
0,224,898,204,260,255,
0,222,908,202,258,254,
0,220,912,200,255,252,
0,230,907,199,254,249,
0,228,882,209,252,265,
0,226,863,207,249,263,
0,224,848,206,247,260,
0,222,834,204,245,258,
0,220,820,203,243,255,
0,217,807,200,242,254,
0,216,901,199,248,251,
0,215,910,197,247,248,
0,212,911,195,244,247,
0,231,902,194,243,244,
0,230,874,214,240,252,
0,227,859,211,238,250,
0,225,845,210,236,248,
0,224,831,208,235,246,
0,222,817,206,231,243,
0,220,835,204,248,241,
0,217,903,203,246,239,
0,216,910,201,243,237,
0,226,911,199,241,236,
0,224,892,198,239,233,
0,222,870,208,237,278,
0,220,856,206,235,275,
0,217,841,204,232,273,
0,216,828,203,231,270,
0,215,814,201,230,268,
0,211,880,199,255,265,
0,211,905,198,254,263,
0,208,911,195,252,261,
0,228,911,194,249,259,
0,226,888,193,248,263,
0,224,867,224,245,270,
0,222,853,223,243,267,
0,220,839,220,240,264,
0,218,825,219,239,263,
0,216,812,216,237,260,
0,214,893,215,253,258,
0,212,908,212,251,255,
0,210,911,211,249,253,
0,221,908,209,247,251,
0,219,884,207,244,259,
0,216,864,206,243,255,
0,215,849,204,240,254,
0,213,836,203,238,252,
0,211,822,201,236,249,
0,209,809,199,235,248,
0,207,898,198,250,246,
0,206,908,196,248,243,
0,204,911,195,246,241,
0,231,903,193,243,239,
0,230,879,209,242,279,
0,227,860,207,240,275,
0,225,846,206,237,273,
0,224,831,204,235,271,
0,222,819,201,233,268,
0,220,806,199,236,266,
0,217,902,198,244,263,
0,216,910,196,242,260,
0,214,911,195,240,259,
0,230,897,193,239,255,
0,227,876,206,236,255,
0,225,857,204,235,252,
0,224,843,202,231,251,
0,222,830,200,231,248,
0,220,816,199,228,246,
0,218,843,198,261,244,
0,216,903,195,258,242,
0,214,910,193,255,240,
0,243,911,220,253,238,
0,240,891,218,252,236,
0,238,873,220,249,273,
0,236,855,218,248,271,
0,233,840,216,244,268,
0,231,827,215,243,265,
0,230,813,212,240,263,
0,228,883,211,249,262,
0,225,905,208,247,259,
0,224,911,207,244,255,
0,233,911,206,243,254,
0,231,888,204,240,276,
0,228,871,212,239,283,
0,227,853,211,236,280,
0,225,839,209,235,278,
0,223,825,207,232,275,
0,221,812,206,231,272,
0,219,894,204,240,271,
0,216,907,201,239,268,
0,216,911,199,236,265,
0,219,909,199,235,263,
0,216,884,197,232,280,
0,215,868,211,231,278,
0,213,850,209,228,275,
0,211,836,207,227,272,
0,209,823,206,225,270,
0,207,809,204,224,268,
0,206,899,202,245,265,
0,204,909,199,243,263,
0,203,912,199,240,260,
0,216,907,197,238,258,
0,215,881,211,236,307,
0,213,866,209,235,304,
0,211,847,207,231,300,
0,209,834,206,231,297,
0,207,820,204,228,295,
0,206,807,203,244,292,
0,204,903,201,248,290,
0,202,910,199,246,287,
0,201,913,198,244,284,
0,212,905,195,242,281,
0,211,881,209,240,280,
0,208,865,207,238,277,
0,207,847,206,236,275,
0,205,833,204,234,273,
0,204,820,202,231,271,
0,201,860,200,253,268,
0,199,904,199,251,266,
0,198,911,197,248,263,
0,205,912,195,246,262,
0,204,899,193,244,259,
0,201,877,222,242,257,
0,199,861,220,240,255,
0,198,843,217,238,253,
0,196,830,216,236,251,
0,195,816,214,233,249,
0,193,888,212,252,248,
0,192,906,211,250,246,
0,190,911,208,248,243,
0,204,911,207,246,241,
0,201,891,204,243,243,
0,199,873,204,242,241,
0,198,858,203,240,239,
0,196,841,201,237,237,
0,195,827,199,236,236,
0,193,814,198,233,233,
0,192,896,196,248,231,
0,190,908,195,246,230,
0,188,911,193,243,228,
0,203,908,192,241,226,
0,201,884,191,240,267,
0,199,868,199,238,263,
0,198,854,199,236,261,
0,195,836,196,233,259,
0,194,823,195,231,255,
0,192,809,193,230,254,
0,191,899,192,268,252,
0,189,908,190,265,249,
0,188,911,188,263,248,
0,199,906,187,260,245,
0,198,881,204,259,268,
0,196,865,203,255,264,
0,195,851,200,254,263,
0,193,833,199,252,259,
0,191,820,198,249,258,
0,190,807,195,255,255,
0,188,903,194,255,254,
0,187,910,192,253,251,
0,199,912,191,251,248,
0,210,899,189,249,247,
0,207,877,192,248,244,
0,206,862,190,245,243,
0,204,847,189,243,240,
0,203,830,187,240,239,
0,200,816,185,239,236,
0,199,860,184,263,235,
0,198,904,183,260,233,
0,195,911,182,258,231,
0,222,911,180,255,228,
0,220,890,179,254,227,
0,217,872,235,252,270,
0,216,857,231,249,268,
0,214,844,230,248,265,
0,211,826,227,244,263,
0,209,813,226,243,260,
0,207,888,224,251,258,
0,207,906,222,248,255,
0,204,911,220,246,254,
0,219,910,218,244,251,
0,216,888,216,243,281,
0,215,871,216,240,281,
0,212,856,215,239,278,
0,211,842,212,236,275,
0,209,825,211,234,273,
0,207,812,209,232,271,
0,206,896,207,263,268,
0,204,908,206,260,265,
0,201,911,204,258,263,
0,216,909,203,255,261,
0,214,884,201,254,259,
0,211,868,204,252,257,
0,210,854,203,249,255,
0,207,839,201,248,253,
0,207,823,199,245,251,
0,204,809,198,243,249,
0,203,900,196,260,247,
0,201,909,195,257,245,
0,199,911,194,255,243,
0,207,906,192,254,240,
0,206,881,199,252,295,
0,204,865,198,249,292,
0,202,851,196,248,289,
0,199,837,195,245,287,
0,199,820,193,243,284,
0,197,818,191,255,281,
0,195,903,190,255,280,
0,194,910,188,252,276,
0,205,913,187,251,275,
0,211,903,185,248,271,
0,210,879,206,247,273,
0,207,864,204,244,271,
0,206,849,202,242,268,
0,204,831,199,240,267,
0,203,818,199,238,263,
0,201,872,198,243,262,
0,199,905,195,241,259,
0,198,911,194,239,258,
0,222,912,192,237,255,
0,219,895,191,236,255,
0,217,875,211,233,292,
0,216,860,209,231,289,
0,214,846,207,230,287,
0,211,828,205,228,284,
0,209,815,204,226,281,
0,208,891,201,263,280,
0,206,907,199,260,276,
0,204,911,199,258,275,
0,219,910,197,255,271,
0,217,888,195,254,270,
0,216,871,210,252,267,
0,214,856,207,249,264,
0,211,843,206,248,263,
0,209,825,204,246,260,
0,207,812,203,243,259,
0,206,897,201,249,255,
0,204,908,199,248,254,
0,203,911,198,246,252,
0,219,908,196,243,250,
0,216,883,199,241,254,
0,215,868,204,240,251,
0,212,853,201,238,249,
0,211,839,199,236,247,
0,209,822,199,234,244,
0,207,809,196,231,243,
0,206,900,195,248,241,
0,204,910,193,247,239,
0,202,912,192,244,238,
0,220,907,190,243,236,
0,219,882,206,240,288,
0,216,866,204,238,286,
0,215,851,202,236,283,
0,213,838,200,235,280,
0,211,820,199,232,278,
0,209,824,198,263,275,
0,207,903,195,259,273,
0,206,910,194,257,271,
0,204,911,192,255,268,
0,234,897,191,253,265,
0,231,876,211,251,263,
0,230,861,209,248,261,
0,227,846,207,247,259,
0,225,831,206,244,257,
0,224,816,204,243,255,
0,222,873,203,255,252,
0,220,905,200,252,251,
0,218,911,199,249,248,
0,222,911,198,248,247,
0,227,888,195,246,244,
0,225,871,207,243,253,
0,223,857,206,241,251,
0,220,843,204,240,248,
0,219,829,203,238,246,
0,217,812,200,236,244,
0,216,891,199,251,242,
0,214,907,198,248,240,
0,211,911,196,246,238,
0,225,909,194,244,236,
0,222,884,192,242,235,
0,220,869,212,240,270,
0,218,855,211,238,267,
0,216,839,209,236,264,
0,215,827,207,234,263,
0,212,810,205,231,260,
0,211,897,204,248,257,
0,209,908,202,247,255,
0,207,911,199,244,254,
0,219,905,199,242,252,
0,216,881,216,240,263,
0,214,865,219,238,260,
0,212,851,217,236,258,
0,210,836,215,234,255,
0,208,824,214,231,254,
0,207,807,211,238,252,
0,205,901,209,259,249,
0,204,910,207,257,248,
0,201,911,206,255,246,
0,222,900,204,253,243,
0,219,878,216,251,248,
0,216,863,214,248,245,
0,215,847,212,247,243,
0,212,834,211,244,241,
0,211,820,209,243,239,
0,209,835,207,260,237,
0,207,903,206,257,235,
0,206,910,204,255,233,
0,204,913,202,253,231,
0,211,902,199,251,230,
0,209,879,214,248,263,
0,207,864,211,247,262,
0,206,848,209,244,259,
0,204,835,207,243,257,
0,203,821,206,240,255,
0,200,879,204,259,252,
0,199,905,203,257,250,
0,198,911,201,255,248,
0,216,911,199,252,246,
0,215,890,198,250,243,
0,211,872,209,248,248,
0,210,857,207,246,245,
0,207,844,205,244,243,
0,207,830,204,242,240,
0,204,816,201,240,239,
0,203,892,199,240,237,
0,201,907,199,238,235,
0,199,911,196,236,233,
0,217,908,195,234,231,
0,216,883,194,231,231,
0,213,867,220,231,269,
0,211,852,217,228,267,
0,209,839,216,227,264,
0,207,825,214,225,262,
0,206,812,211,224,260,
0,204,897,210,230,257,
0,202,908,208,227,255,
0,200,911,207,226,253,
0,212,905,205,224,251,
0,210,880,203,223,249,
0,207,865,203,220,247,
0,206,851,200,219,244,
0,204,836,199,217,242,
0,203,824,198,216,240,
0,200,810,196,215,239,
0,199,901,195,231,236,
0,198,910,193,228,235,
0,196,911,192,227,232,
0,215,900,190,224,231,
0,212,878,202,223,268,
0,210,862,206,221,263,
0,207,848,204,220,262,
0,207,834,203,217,259,
0,204,820,201,216,257,
0,203,807,199,218,255,
0,201,903,198,241,253,
0,199,911,196,239,251,
0,198,911,195,236,248,
0,221,896,193,235,247,
0,219,876,212,232,283,
0,216,860,209,231,280,
0,214,846,207,229,277,
0,212,831,206,227,275,
0,211,819,204,225,271,
0,209,830,203,242,270,
0,207,905,201,240,268,
0,206,911,199,237,265,
0,216,911,198,236,263,
0,214,889,196,233,260,
0,211,871,216,231,275,
0,209,857,214,230,271,
0,207,843,211,227,269,
0,206,829,210,225,267,
0,204,816,208,224,263,
0,203,876,207,248,262,
0,200,907,205,245,259,
0,199,911,204,243,257,
0,204,907,201,240,255,
0,201,883,199,239,271,
0,199,867,205,236,305,
0,198,852,203,235,301,
0,196,839,201,233,299,
0,195,825,199,231,295,
0,193,812,198,229,293,
0,192,892,196,242,291,
0,190,909,195,240,287,
0,188,911,193,237,286,
0,207,904,192,236,283,
0,206,880,190,233,308,
0,204,864,212,231,305,
0,202,849,209,230,302,
0,199,835,208,227,299,
0,199,823,207,226,295,
0,197,809,204,224,294,
0,195,897,203,245,291,
0,194,910,201,243,288,
0,192,911,199,240,286,
0,192,894,198,238,284,
0,190,876,212,236,299,
0,188,860,210,235,295,
0,187,845,207,231,293,
0,185,831,206,231,291,
0,184,817,204,229,287,
0,183,806,203,230,286,
0,182,900,200,241,283,
0,179,910,199,238,280,
0,179,909,198,236,278,
0,188,886,195,234,275,
0,187,870,216,231,273,
0,184,855,214,231,271,
0,184,840,211,228,268,
0,182,827,209,227,267,
0,180,814,207,225,263,
0,179,825,206,239,262,
0,177,906,204,237,260,
0,176,911,203,234,258,
0,207,904,200,231,255,
0,204,880,199,231,254,
0,202,865,203,228,288,
0,199,850,200,227,286,
0,198,836,199,225,282,
0,196,823,197,223,280,
0,195,809,195,221,278,
0,193,873,194,242,275,
0,192,907,192,240,272,
0,190,910,191,238,270,
0,190,896,190,236,268,
0,188,875,188,233,278,
0,187,860,198,231,287,
0,184,846,195,230,284,
0,184,831,193,228,280,
0,182,819,192,226,278,
0,180,806,190,224,276,
0,179,891,188,255,273,
0,177,908,187,254,271,
0,176,908,185,252,269,
0,179,887,184,249,267,
0,178,871,183,248,264,
0,177,856,199,245,262,
0,175,841,196,243,260,
0,174,828,194,241,257,
0,172,815,193,239,255,
0,171,802,192,237,254,
0,169,897,190,257,251,
0,168,909,188,255,249,
0,167,906,187,252,248,
0,180,883,185,249,246,
0,179,867,217,248,284,
0,177,852,215,246,281,
0,176,838,212,243,279,
0,175,824,211,241,275,
0,173,812,208,240,273,
0,172,799,207,239,271,
0,170,900,205,238,268,
0,169,909,204,236,266,
0,174,901,202,233,263,
0,180,878,199,231,262,
0,179,863,208,230,259,
0,177,847,207,227,257,
0,176,834,204,226,255,
0,174,820,203,224,253,
0,172,807,201,223,251,
0,172,831,199,252,248,
0,169,903,198,249,247,
0,172,910,196,248,244,
0,173,899,195,244,242,
0,171,877,193,243,240,
0,170,862,207,240,286,
0,168,847,206,239,284,
0,167,833,204,237,280,
0,166,820,202,235,278,
0,164,807,199,233,275,
0,163,878,199,244,272,
0,163,905,197,242,270,
0,161,910,195,240,268,
0,179,895,194,238,265,
0,177,875,192,236,284,
0,176,860,206,233,293,
0,174,846,204,231,290,
0,172,831,202,230,287,
0,171,818,199,228,284,
0,169,806,199,226,281,
0,167,893,197,244,280,
0,167,907,195,243,276,
0,165,910,193,240,275,
0,195,894,192,238,271,
0,193,875,191,236,311,
0,192,860,214,234,307,
0,190,845,212,231,304,
0,188,831,209,230,301,
0,187,817,207,228,297,
0,185,805,207,227,295,
0,184,898,204,240,292,
0,182,908,203,238,291,
0,181,911,201,236,287,
0,205,891,199,233,285,
0,203,873,208,231,284,
0,201,857,207,230,281,
0,199,844,204,228,280,
0,198,830,203,226,277,
0,195,816,200,224,274,
0,194,803,199,230,271,
0,192,902,198,233,270,
0,191,910,196,231,268,
0,190,910,195,229,265,
0,220,887,193,227,263,
0,217,870,220,225,262,
0,216,856,218,224,259,
0,214,841,216,222,257,
0,211,828,214,220,255,
0,209,814,211,219,253,
0,207,847,210,236,251,
0,206,904,208,233,249,
0,204,910,207,231,248,
0,212,908,205,229,245,
0,210,883,203,227,243,
0,208,867,220,225,284,
0,207,852,217,224,280,
0,205,839,216,222,278,
0,203,825,214,220,275,
0,201,812,211,218,272,
0,199,884,210,239,270,
0,198,906,207,236,268,
0,196,911,207,234,265,
0,212,903,204,231,263,
0,209,879,203,231,287,
0,207,864,222,228,294,
0,206,849,220,227,291,
0,204,835,218,224,287,
0,203,822,216,223,285,
0,200,809,214,221,283,
0,199,894,211,248,280,
0,198,907,210,247,278,
0,195,911,208,244,275,
0,205,896,207,241,273,
0,204,876,205,240,300,
0,201,860,214,238,295,
0,199,846,211,236,294,
0,198,831,209,233,291,
0,196,819,207,231,287,
0,195,806,206,230,285,
0,193,899,204,242,283,
0,192,908,203,240,280,
0,190,910,201,239,278,
0,196,887,199,236,275,
0,195,871,215,234,292,
0,193,856,212,231,289,
0,191,841,210,230,287,
0,190,828,208,228,284,
0,188,815,206,227,281,
0,186,802,204,249,279,
0,184,902,203,248,276,
0,184,909,201,246,274,
0,188,910,199,243,271,
0,193,883,198,241,270,
0,192,867,217,240,295,
0,191,852,215,237,292,
0,189,839,213,236,289,
0,187,824,211,233,287,
0,185,812,209,231,284,
0,184,850,207,255,281,
0,182,903,206,252,279,
0,181,910,204,249,276,
0,197,904,202,248,273,
0,195,876,200,245,271,
0,193,862,221,243,280,
0,192,847,219,241,278,
0,190,833,217,239,275,
0,188,819,216,237,273,
0,186,807,212,236,271,
0,185,885,211,248,268,
0,184,905,209,246,266,
0,182,910,207,243,263,
0,196,904,206,241,262,
0,195,876,204,239,287,
0,192,861,220,237,284,
0,191,847,219,235,281,
0,189,833,216,233,280,
0,187,819,215,231,276,
0,185,807,212,230,274,
0,184,895,211,252,271,
0,183,908,209,249,269,
0,182,911,207,248,267,
0,187,902,206,245,263,
0,185,873,206,243,291,
0,184,859,212,240,287,
0,182,845,211,239,285,
0,180,831,208,236,283,
0,179,817,207,235,280,
0,177,805,205,233,278,
0,176,899,204,243,275,
0,175,909,201,240,272,
0,174,911,199,239,270,
0,185,888,199,236,268,
0,184,871,203,234,287,
0,182,856,201,231,284,
0,180,843,199,231,281,
0,179,828,198,228,280,
0,177,816,195,227,277,
0,176,806,194,258,274,
0,174,903,192,263,271,
0,174,910,191,261,269,
0,184,911,190,259,267,
0,191,893,188,256,264,
0,189,870,211,254,263,
0,187,856,209,252,260,
0,185,841,207,249,258,
0,184,828,206,248,255,
0,182,814,204,246,254,
0,180,864,202,249,252,
0,179,905,199,247,249,
0,177,911,199,244,248,
0,211,910,197,243,246,
0,207,882,195,241,243,
0,206,867,214,239,273,
0,204,852,212,236,271,
0,203,838,210,235,268,
0,200,824,208,233,266,
0,199,812,206,231,263,
0,197,888,204,252,260,
0,195,907,203,249,259,
0,193,911,201,247,255,
0,206,909,199,244,254,
0,204,881,198,243,276,
0,202,865,209,240,273,
0,199,851,207,238,271,
0,199,837,205,236,268,
0,196,824,204,235,266,
0,195,810,201,231,263,
0,193,896,199,247,261,
0,192,908,198,244,259,
0,190,911,196,243,255,
0,201,903,195,240,254,
0,199,876,199,238,289,
0,198,860,207,236,286,
0,196,846,205,233,283,
0,195,831,204,231,280,
0,193,819,201,230,278,
0,191,806,199,228,275,
0,190,900,198,247,272,
0,188,909,196,244,270,
0,187,911,195,243,268,
0,213,896,193,240,265,
0,211,871,221,238,298,
0,209,856,219,236,295,
0,207,843,216,234,292,
0,206,828,215,231,289,
0,204,816,213,231,287,
0,201,816,211,257,284,
0,199,903,209,254,281,
0,199,911,207,252,280,
0,198,911,206,249,276,
0,196,891,204,248,274,
0,195,869,205,246,271,
0,193,855,204,243,270,
0,192,840,201,241,268,
0,190,827,199,239,265,
0,188,814,198,237,263,
0,187,870,196,252,261,
0,185,905,195,249,258,
0,184,911,193,248,255,
0,224,910,192,246,254,
0,222,886,190,243,255,
0,220,866,207,241,276,
0,217,851,206,239,273,
0,216,837,204,237,271,
0,214,824,201,235,268,
0,212,811,199,233,267,
0,210,890,198,249,263,
0,207,907,196,247,262,
0,207,911,195,244,259,
0,207,907,193,243,257,
0,206,882,192,240,285,
0,204,863,216,239,281,
0,203,848,215,236,279,
0,200,835,213,233,276,
0,199,821,211,231,274,
0,198,807,209,231,271,
0,195,896,207,243,270,
0,194,908,206,241,267,
0,192,911,204,240,263,
0,198,902,202,238,262,
0,195,878,215,236,304,
0,194,860,216,233,301,
0,192,845,214,231,297,
0,191,831,212,230,295,
0,189,817,210,227,292,
0,188,805,208,227,290,
0,186,900,207,243,287,
0,184,909,204,240,284,
0,184,911,203,239,282,
0,184,892,201,236,280,
0,183,873,211,235,279,
0,182,856,209,231,276,
0,179,841,207,230,274,
0,179,827,205,228,271,
0,177,814,204,226,270,
0,176,822,202,243,268,
0,174,903,199,240,265,
0,172,910,198,238,262,
0,199,910,196,236,260,
0,197,887,195,234,258,
0,195,871,216,231,302,
0,193,852,215,230,299,
0,192,838,212,228,295,
0,190,824,211,227,293,
0,188,811,209,224,291,
0,187,873,207,248,287,
0,185,905,205,246,285,
0,184,911,204,243,283,
0,202,908,202,241,280,
0,199,883,199,240,281,
0,198,867,212,238,294,
0,196,849,210,235,291,
0,195,835,208,233,287,
0,193,822,207,231,286,
0,192,809,205,230,283,
0,190,891,204,243,280,
0,188,907,201,241,278,
0,186,911,199,240,275,
0,204,903,198,238,273,
0,203,880,196,236,287,
0,200,864,221,233,284,
0,199,846,219,231,281,
0,197,831,217,229,279,
0,195,819,215,227,276,
0,193,806,213,226,274,
0,192,897,211,246,271,
0,190,908,209,243,269,
0,188,911,207,241,267,
0,190,899,206,240,263,
0,189,877,215,238,313,
0,187,862,212,235,310,
0,185,844,210,232,307,
0,184,831,208,231,304,
0,183,817,207,229,301,
0,181,804,205,230,299,
0,179,901,203,236,295,
0,178,910,201,233,293,
0,176,911,199,231,291,
0,192,897,198,230,287,
0,191,876,209,228,323,
0,189,861,207,226,319,
0,188,843,206,224,318,
0,185,830,204,222,314,
0,184,816,202,220,312,
0,183,834,200,248,308,
0,181,903,199,246,306,
0,179,910,196,243,303,
0,193,911,195,241,300,
0,191,890,193,239,297,
0,189,873,211,238,295,
0,188,858,208,236,294,
0,185,840,207,233,291,
0,184,827,205,231,289,
0,183,814,203,229,287,
0,182,879,201,252,284,
0,179,905,199,249,281,
0,178,911,198,248,279,
0,190,909,196,246,276,
0,188,885,195,243,292,
0,187,869,204,241,311,
0,184,855,203,240,307,
0,184,837,201,237,304,
0,182,824,199,235,302,
0,180,810,198,233,299,
0,179,892,196,251,295,
0,177,907,195,249,294,
0,176,911,193,247,291,
0,208,905,191,244,287,
0,207,880,190,243,316,
0,205,865,210,240,312,
0,203,851,208,239,309,
0,201,833,207,236,306,
0,199,819,205,234,304,
0,198,807,203,231,301,
0,196,897,201,243,298,
0,194,908,199,241,295,
0,192,911,198,239,292,
0,199,900,196,237,290,
0,196,878,212,235,319,
0,195,862,209,233,317,
0,193,848,207,231,313,
0,192,831,206,229,311,
0,190,817,204,227,307,
0,188,804,203,236,305,
0,187,902,200,244,303,
0,185,910,199,243,300,
0,184,911,197,240,297,
0,197,894,195,238,294,
0,195,875,198,236,291,
0,193,859,195,235,289,
0,192,845,194,232,287,
0,191,828,192,230,284,
0,189,815,191,228,282,
0,187,839,190,251,280,
0,185,903,188,248,278,
0,184,910,187,246,275,
0,206,910,185,243,272,
0,204,888,184,241,271,
0,201,871,206,240,279,
0,199,856,204,238,275,
0,199,841,202,236,273,
0,197,824,200,233,271,
0,195,812,199,231,268,
0,193,880,198,241,267,
0,192,905,195,239,264,
0,190,911,194,237,263,
0,193,908,192,235,259,
0,191,883,191,233,275,
0,190,867,199,231,273,
0,188,852,199,230,270,
0,186,835,197,227,268,
0,185,822,195,225,265,
0,184,809,193,224,263,
0,182,893,192,248,262,
0,180,907,191,246,259,
0,179,911,189,243,257,
0,198,903,187,241,254,
0,196,879,185,240,281,
0,195,864,201,237,278,
0,192,849,199,236,275,
0,191,831,198,233,273,
0,190,819,196,231,271,
0,188,806,194,230,268,
0,186,898,193,239,266,
0,184,908,192,237,263,
0,183,911,190,235,262,
0,195,897,188,233,259,
0,193,876,211,231,284,
0,192,861,208,229,281,
0,190,847,207,227,279,
0,188,830,205,225,276,
0,187,816,203,223,273,
0,185,803,201,241,271,
0,184,902,199,249,269,
0,183,910,199,248,267,
0,184,911,197,246,264,
0,198,893,195,243,262,
0,196,875,208,241,260,
0,194,859,206,239,259,
0,192,845,204,237,255,
0,191,828,203,235,254,
0,189,814,201,233,252,
0,188,847,199,248,250,
0,186,903,198,244,248,
0,184,910,196,243,247,
0,206,910,194,240,244,
0,204,888,192,238,242,
0,201,871,224,236,275,
0,199,856,221,235,271,
0,198,843,219,232,270,
0,196,824,217,231,267,
0,195,812,216,228,264,
0,193,883,214,242,263,
0,192,906,211,240,260,
0,190,911,210,238,258,
0,204,908,207,236,255,
0,201,883,206,233,280,
0,199,867,217,231,279,
0,198,853,216,230,275,
0,196,839,214,228,273,
0,195,822,211,226,271,
0,193,808,210,224,268,
0,192,894,208,268,266,
0,190,907,207,264,263,
0,188,911,205,263,262,
0,215,903,203,260,259,
0,212,879,202,258,269,
0,211,864,216,255,266,
0,209,849,214,254,263,
0,207,835,212,252,262,
0,206,819,211,249,259,
0,204,806,209,248,257,
0,201,899,207,248,255,
0,199,908,206,247,252,
0,199,911,204,244,251,
0,216,899,201,243,248,
0,214,877,211,241,279,
0,211,862,209,239,275,
0,210,847,207,237,273,
0,207,833,206,235,271,
0,206,817,204,232,268,
0,204,804,203,240,265,
0,203,902,201,240,263,
0,201,910,199,238,262,
0,199,911,198,236,259,
0,206,891,195,234,257,
0,204,873,210,231,276,
0,202,858,207,231,274,
0,199,844,206,228,271,
0,199,830,204,227,269,
0,197,814,203,224,267,
0,195,856,201,236,264,
0,193,904,199,234,262,
0,192,910,198,231,260,
0,191,910,196,230,257,
0,200,886,194,228,255,
0,199,870,214,227,295,
0,197,856,212,224,291,
0,195,841,211,223,289,
0,194,828,208,221,287,
0,192,811,207,219,284,
0,191,886,205,241,281,
0,189,906,204,239,279,
0,188,911,201,237,276,
0,188,908,199,235,274,
0,185,883,198,233,281,
0,184,867,206,231,280,
0,183,852,204,230,277,
0,181,839,201,227,275,
0,179,825,199,225,272,
0,178,808,199,224,270,
0,177,895,197,248,268,
0,176,908,195,246,265,
0,174,911,194,243,263,
0,180,903,192,241,261,
0,178,880,192,239,262,
0,177,864,204,237,259,
0,176,850,201,236,258,
0,174,836,199,233,255,
0,172,823,199,231,254,
0,171,807,197,229,252,
0,170,899,195,250,249,
0,168,908,193,248,248,
0,167,911,192,246,246,
0,185,897,191,243,243,
0,184,876,204,241,271,
0,182,861,202,240,268,
0,180,847,199,238,265,
0,179,832,199,236,263,
0,177,819,198,234,261,
0,176,807,195,244,259,
0,174,903,194,241,255,
0,172,910,192,240,255,
0,172,911,191,238,252,
0,192,892,189,236,250,
0,189,873,193,233,255,
0,188,859,191,231,252,
0,186,844,190,230,249,
0,184,830,188,228,248,
0,183,817,187,226,246,
0,182,862,185,255,243,
0,179,904,184,253,241,
0,179,911,183,251,240,
0,183,910,181,248,238,
0,204,888,179,247,236,
0,203,871,201,244,252,
0,199,856,199,243,250,
0,199,842,198,240,248,
0,197,828,196,239,246,
0,195,816,195,236,243,
0,193,888,193,253,241,
0,192,907,192,250,239,
0,191,911,190,248,237,
0,210,908,188,246,236,
0,207,883,187,244,233,
0,205,868,199,242,262,
0,203,854,198,240,259,
0,201,839,195,238,257,
0,199,825,193,236,255,
0,198,812,192,234,253,
0,196,896,191,258,251,
0,195,908,189,255,248,
0,193,911,188,254,247,
0,213,904,185,251,244,
0,211,880,184,249,268,
0,208,864,203,247,263,
0,207,850,200,245,262,
0,205,836,199,243,259,
0,203,823,197,241,257,
0,201,809,195,239,255,
0,199,900,194,249,252,
0,198,909,192,248,250,
0,196,911,191,245,248,
0,213,899,190,243,246,
0,211,876,188,241,284,
0,208,861,197,239,280,
0,207,847,195,237,277,
0,205,833,193,235,275,
0,203,819,192,233,271,
0,201,807,191,231,270,
0,199,903,189,272,268,
0,198,910,188,270,265,
0,196,911,186,268,263,
0,206,893,184,265,261,
0,204,875,192,263,273,
0,203,859,190,261,270,
0,200,845,188,259,268,
0,199,831,187,257,265,
0,197,818,185,255,263,
0,195,805,184,259,260,
0,194,904,183,255,258,
0,192,911,181,254,255,
0,199,910,179,252,254,
0,209,888,178,249,252,
0,207,871,199,248,284,
0,205,856,198,246,280,
0,204,841,195,243,278,
0,201,828,194,241,275,
0,199,815,192,240,272,
0,199,860,191,241,270,
0,196,907,190,239,268,
0,195,911,188,237,265,
0,206,908,187,235,263,
0,204,883,184,233,261,
0,201,867,198,231,262,
0,199,853,195,230,259,
0,198,839,193,227,257,
0,196,825,192,226,255,
0,195,812,191,224,252,
0,193,897,189,244,250,
0,192,908,187,241,248,
0,190,911,185,239,247,
0,204,905,184,237,244,
0,203,880,183,235,265,
0,199,865,199,233,263,
0,199,851,196,231,259,
0,197,836,195,230,257,
0,195,824,193,227,255,
0,193,810,192,225,252,
0,192,900,190,240,250,
0,190,909,188,238,248,
0,189,911,187,236,247,
0,196,899,185,233,244,
0,194,877,193,231,268,
0,192,862,198,230,265,
0,191,847,195,227,262,
0,189,833,194,226,259,
0,188,820,192,224,257,
0,185,807,191,223,255,
0,184,903,189,245,253,
0,184,910,188,243,251,
0,182,912,186,240,248,
0,207,897,184,239,247,
0,206,876,216,236,271,
0,204,860,213,234,268,
0,201,847,211,231,265,
0,199,831,209,231,263,
0,199,819,207,228,260,
0,196,814,206,251,259,
0,195,905,204,248,255,
0,193,911,202,246,254,
0,195,910,199,243,252,
0,206,886,199,242,249,
0,204,870,215,240,273,
0,201,856,212,238,271,
0,199,841,211,236,268,
0,199,828,209,233,265,
0,196,814,207,231,263,
0,195,866,205,258,261,
0,193,907,204,255,259,
0,192,911,202,252,255,
0,209,907,199,250,254,
0,207,882,199,248,253,
0,206,867,199,246,280,
0,203,852,199,244,276,
0,201,838,197,242,273,
0,199,824,195,240,271,
0,198,812,194,239,268,
0,196,889,192,255,267,
0,195,908,191,252,263,
0,193,911,189,250,262,
0,199,903,188,248,259,
0,198,879,187,246,285,
0,196,864,199,243,281,
0,195,849,196,242,279,
0,193,835,195,240,275,
0,192,822,193,238,273,
0,190,808,192,236,271,
0,188,896,190,255,268,
0,187,910,188,254,267,
0,185,911,187,252,263,
0,187,899,185,249,262,
0,185,877,187,248,275,
0,184,862,188,245,272,
0,182,847,187,243,270,
0,180,833,185,241,267,
0,179,819,184,239,264,
0,177,807,182,238,263,
0,176,900,180,255,260,
0,175,910,179,254,258,
0,174,911,178,252,255,
0,176,892,176,249,254,
0,175,873,201,247,252,
0,173,859,199,245,249,
0,172,844,197,243,248,
0,170,831,195,241,244,
0,168,817,193,239,243,
0,167,820,192,251,241,
0,167,903,191,248,239,
0,166,911,189,246,237,
0,182,910,188,243,236,
0,179,886,186,242,233,
0,177,870,193,240,233,
0,176,856,192,238,231,
0,175,841,190,236,230,
0,173,828,188,233,227,
0,172,814,186,231,226,
0,171,871,184,249,224,
0,169,905,184,248,223,
0,167,911,182,244,221,
0,184,908,180,243,220,
0,182,883,179,240,223,
0,180,867,185,238,250,
0,179,853,184,236,248,
0,177,839,182,235,244,
0,176,825,180,232,243,
0,174,812,179,231,240,
0,172,891,177,253,239,
0,172,907,176,251,236,
0,169,911,175,248,235,
0,187,905,173,246,232,
0,184,880,172,244,251,
0,184,865,187,241,248,
0,182,851,185,240,246,
0,179,836,183,238,243,
0,178,824,182,236,241,
0,176,809,179,234,239,
0,175,897,179,241,237,
0,174,908,177,239,235,
0,172,912,176,236,233,
0,192,900,174,235,231,
0,190,878,180,233,263,
0,188,862,180,231,260,
0,186,847,179,229,257,
0,184,834,176,227,255,
0,183,820,175,225,252,
0,182,807,174,225,251,
0,180,901,172,235,248,
0,179,909,172,233,246,
0,177,911,170,231,243,
0,215,892,168,228,241,
0,212,873,188,227,259,
0,211,859,187,225,257,
0,208,844,184,223,255,
0,207,831,183,222,252,
0,205,817,181,220,249,
0,203,830,179,220,248,
0,201,903,179,219,246,
0,199,911,177,217,243,
0,220,910,176,215,241,
0,220,887,175,214,240,
0,217,871,190,211,248,
0,216,856,188,211,245,
0,214,841,186,209,243,
0,211,828,184,207,240,
0,209,815,183,206,238,
0,207,875,181,212,236,
0,206,905,179,210,235,
0,204,911,178,208,232,
0,231,905,177,207,231,
0,230,881,176,205,240,
0,227,866,192,204,263,
0,225,851,191,202,260,
0,224,838,189,200,258,
0,221,824,187,199,255,
0,219,811,185,198,253,
0,217,892,184,197,251,
0,216,907,183,195,248,
0,214,911,181,195,246,
0,224,900,179,193,244,
0,222,878,178,192,281,
0,220,862,199,191,278,
0,217,847,198,190,275,
0,216,833,196,188,273,
0,214,820,193,187,270,
0,211,807,192,186,268,
0,210,897,191,185,265,
0,208,908,189,184,263,
0,207,911,188,183,260,
0,223,893,186,182,258,
0,221,875,204,180,291,
0,219,859,201,179,288,
0,217,845,199,178,286,
0,215,831,198,177,283,
0,213,817,195,176,280,
0,211,804,194,175,278,
0,209,901,192,174,275,
0,207,909,191,172,273,
0,206,911,190,172,271,
0,247,888,188,171,268,
0,244,872,210,169,299,
0,242,857,207,168,295,
0,240,843,206,167,293,
0,238,830,204,167,290,
0,236,816,201,166,287,
0,233,835,199,166,284,
0,231,903,199,164,282,
0,230,910,197,163,280,
0,246,911,195,163,277,
0,243,886,194,161,275,
0,241,870,219,160,289,
0,239,856,216,159,287,
0,236,841,214,158,284,
0,234,828,212,158,281,
0,231,814,211,157,279,
0,231,880,208,156,276,
0,228,905,207,155,274,
0,226,911,206,155,271,
0,249,911,204,153,269,
0,247,883,201,152,286,
0,244,867,222,152,307,
0,242,853,220,151,305,
0,240,839,217,150,302,
0,237,825,216,148,300,
0,236,812,213,147,295,
0,233,893,211,151,294,
0,231,907,210,149,291,
0,230,911,207,147,288,
0,246,905,206,147,286,
0,243,880,205,146,284,
0,242,865,219,145,281,
0,240,851,217,143,280,
0,238,836,215,143,276,
0,235,823,213,142,274,
0,233,809,211,142,271,
0,231,898,209,161,269,
0,229,909,207,159,267,
0,227,911,206,159,265,
0,237,897,204,157,263,
0,235,876,216,156,288,
0,233,861,214,155,286,
0,231,847,211,153,283,
0,228,831,209,152,280,
0,227,819,207,151,278,
0,225,806,206,163,275,
0,223,901,204,172,272,
0,221,909,203,170,270,
0,220,911,201,168,268,
0,230,888,199,167,265,
0,227,871,215,166,271,
0,225,856,212,164,269,
0,224,842,210,163,267,
0,222,828,208,162,263,
0,219,816,207,160,262,
0,217,844,204,176,259,
0,216,904,203,175,257,
0,214,910,201,173,255,
0,213,911,199,172,253,
0,211,884,198,170,251,
0,210,868,199,168,292,
0,207,854,198,167,289,
0,206,839,196,166,287,
0,205,826,194,164,284,
0,203,813,192,163,282,
0,201,882,191,167,279,
0,199,905,190,167,276,
0,199,911,188,166,275,
0,211,908,187,164,271,
0,209,880,185,163,287,
0,207,865,204,161,300,
0,206,850,201,159,297,
0,204,836,199,159,295,
0,202,823,199,158,292,
0,199,809,196,156,290,
0,199,894,195,159,287,
0,196,908,193,159,284,
0,195,911,192,158,281,
0,201,908,190,156,280,
0,199,879,189,155,303,
0,198,864,214,153,300,
0,196,849,212,152,297,
0,195,835,210,152,295,
0,193,822,208,150,291,
0,192,809,207,150,289,
0,190,899,204,148,286,
0,188,908,203,147,284,
0,187,911,201,147,281,
0,209,903,199,145,279,
0,207,876,233,144,276,
0,205,860,230,143,274,
0,203,846,228,142,271,
0,201,831,226,141,270,
0,199,819,224,140,268,
0,198,806,222,140,265,
0,196,902,220,140,263,
0,194,910,217,138,260,
0,193,911,216,137,258,
0,193,896,215,136,255,
0,192,871,233,135,273,
0,190,856,231,135,271,
0,188,843,228,134,268,
0,187,828,227,134,265,
0,185,816,224,132,263,
0,184,850,222,132,262,
0,183,903,220,131,258,
0,181,911,219,131,255,
0,190,911,216,130,254,
0,188,891,215,129,252,
0,186,869,241,128,312,
0,184,855,239,127,309,
0,183,840,236,127,305,
0,181,827,235,126,303,
0,179,814,232,126,300,
0,178,886,231,125,297,
0,177,906,228,124,295,
0,176,911,227,124,291,
0,205,911,225,123,289,
0,204,888,223,123,317,
0,201,867,239,121,327,
0,199,853,236,120,323,
0,198,839,235,120,320,
0,196,825,232,120,318,
0,195,812,231,119,315,
0,193,896,228,120,312,
0,191,908,226,119,309,
0,190,911,224,119,306,
0,224,909,223,118,304,
0,222,884,222,117,345,
0,220,864,248,116,340,
0,217,851,246,115,337,
0,216,836,243,115,334,
0,214,823,241,114,331,
0,212,809,240,113,327,
0,210,899,237,113,324,
0,207,908,236,112,321,
0,206,911,233,112,319,
0,239,906,231,111,316,
0,236,881,259,110,349,
0,235,862,255,110,345,
0,231,847,252,109,342,
0,230,833,251,108,339,
0,228,820,248,108,335,
0,227,807,247,107,332,
0,224,903,243,107,328,
0,222,910,241,105,326,
0,225,912,240,105,323,
0,254,901,238,104,319,
0,252,878,263,103,336,
0,249,859,262,103,334,
0,247,845,259,103,330,
0,244,831,257,102,327,
0,243,817,255,102,324,
0,240,860,252,101,321,
0,238,904,249,100,318,
0,236,911,248,99,316,
0,278,911,246,99,312,
0,275,896,243,99,311,
0,274,876,271,98,363,
0,271,860,268,97,359,
0,268,846,265,97,355,
0,266,831,263,96,352,
0,263,819,262,96,348,
0,262,849,259,96,345,
0,259,904,257,95,342,
0,257,910,255,95,339,
0,255,913,253,94,336,
0,304,905,251,94,333,
0,300,880,254,93,380,
0,297,865,252,92,377,
0,295,850,249,92,374,
0,292,836,247,92,369,
0,290,823,246,91,366,
0,287,809,244,90,363,
0,286,900,242,90,359,
0,283,909,240,89,356,
0,280,912,238,89,353,
0,351,905,236,88,350,
0,347,880,249,88,391,
0,344,868,271,88,386,
0,339,854,268,87,382,
0,336,839,265,86,379,
0,334,826,263,86,375,
0,331,813,261,86,371,
0,327,895,259,85,368,
0,324,908,257,84,365,
0,322,911,255,84,362,
0,374,909,253,83,359,
0,368,884,251,83,380,
0,364,869,278,83,402,
0,360,854,275,82,398,
0,357,839,272,81,393,
0,353,826,271,81,390,
0,351,816,268,81,386,
0,348,873,265,80,383,
0,344,905,263,79,379,
0,341,911,262,79,376,
0,387,911,259,79,373,
0,383,891,257,79,369,
0,379,873,289,78,422,
0,375,857,287,78,416,
0,371,844,284,77,412,
0,368,830,282,77,408,
0,365,816,280,76,404,
0,361,865,278,76,400,
0,359,905,275,76,396,
0,355,911,272,76,392,
0,352,911,271,75,390,
0,388,900,268,75,385,
0,384,878,293,74,451,
0,380,862,290,73,446,
0,376,847,287,73,441,
0,373,833,285,72,438,
0,369,820,282,71,433,
0,366,807,280,71,429,
0,364,902,278,71,424,
0,360,910,275,71,421,
0,358,911,273,71,417,
0,396,899,271,70,413,
0,391,877,284,70,451,
0,387,862,287,70,446,
0,384,847,286,70,441,
0,380,837,283,69,436,
0,377,824,280,68,432,
0,374,810,278,68,428,
0,370,896,275,67,423,
0,367,908,273,67,420,
0,364,911,271,67,417,
0,399,908,269,67,413,
0,396,882,268,66,430,
0,391,867,289,66,433,
0,388,852,286,65,429,
0,384,838,284,65,425,
0,381,824,281,65,421,
0,377,812,279,64,416,
0,374,895,276,63,412,
0,370,906,274,63,408,
0,367,911,271,63,405,
0,413,909,270,63,401,
0,408,885,268,63,413,
0,403,870,281,63,435,
0,399,855,280,62,431,
0,395,840,276,62,427,
0,391,827,275,61,422,
0,388,814,272,61,418,
0,385,875,271,61,414,
0,382,905,268,60,409,
0,378,911,265,60,406,
0,375,911,263,60,402,
0,387,888,262,60,399,
0,384,876,270,59,430,
0,380,860,268,59,424,
0,376,846,265,59,421,
0,373,831,263,58,416,
0,369,819,261,57,414,
0,367,806,259,57,409,
0,364,902,257,57,406,
0,359,909,255,56,401,
0,358,909,254,56,398,
0,364,887,252,56,394,
0,359,871,271,56,422,
0,356,856,268,56,417,
0,353,841,265,56,412,
0,351,828,263,55,408,
0,348,818,261,55,404,
0,344,805,259,55,401,
0,342,897,257,88,397,
0,339,908,255,87,393,
0,336,911,252,86,391,
0,358,902,251,85,387,
0,354,878,248,84,384,
0,351,863,248,83,380,
0,348,848,246,83,377,
0,345,835,243,82,374,
0,342,820,241,82,370,
0,339,807,240,96,368,
0,335,896,238,172,364,
0,333,908,236,169,361,
0,330,911,235,167,358,
0,327,902,232,167,355,
0,324,879,231,166,359,
0,322,864,230,163,355,
0,319,848,228,163,352,
0,316,835,227,161,349,
0,314,822,225,159,346,
0,312,806,224,185,344,
0,310,900,222,216,340,
0,307,909,220,214,337,
0,304,910,219,211,335,
0,304,889,217,209,332,
0,302,872,224,207,331,
0,300,857,222,206,327,
0,297,844,220,204,326,
0,295,830,217,203,323,
0,293,816,216,201,319,
0,291,816,215,235,318,
0,288,903,213,231,316,
0,286,910,211,229,313,
0,284,911,209,227,311,
0,299,889,208,225,308,
0,295,872,225,223,310,
0,293,857,224,221,307,
0,291,843,222,220,304,
0,287,829,220,217,303,
0,285,816,217,216,300,
0,283,876,216,214,297,
0,281,905,215,212,295,
0,279,911,212,211,294,
0,278,910,211,209,291,
0,293,888,209,207,289,
0,289,871,224,206,297,
0,287,856,221,204,295,
0,284,842,220,203,292,
0,282,828,217,201,289,
0,280,815,216,199,287,
0,278,890,214,198,285,
0,275,907,212,196,283,
0,273,911,211,195,281,
0,331,905,209,194,280,
0,331,880,207,192,286,
0,327,865,247,191,329,
0,323,851,244,190,326,
0,321,836,242,188,323,
0,318,823,240,187,319,
0,315,810,238,185,317,
0,312,897,236,184,314,
0,310,908,233,183,312,
0,307,911,231,182,309,
0,371,901,230,180,306,
0,365,878,228,179,353,
0,361,863,259,178,354,
0,358,847,257,177,351,
0,355,834,255,176,348,
0,352,820,252,174,344,
0,348,807,250,173,340,
0,345,900,248,172,337,
0,342,909,246,171,335,
0,339,911,244,169,332,
0,415,894,242,167,329,
0,409,875,257,167,390,
0,406,859,276,166,384,
0,401,845,273,165,380,
0,398,831,271,163,376,
0,393,817,269,163,372,
0,390,805,267,161,368,
0,387,903,263,160,365,
0,384,910,262,159,361,
0,380,909,260,158,359,
0,463,886,258,157,355,
0,457,870,297,156,412,
0,451,855,293,155,407,
0,448,840,291,154,402,
0,443,827,287,153,398,
0,439,814,286,152,394,
0,434,809,283,152,391,
0,430,905,280,150,387,
0,425,911,278,149,384,
0,435,908,276,148,380,
0,505,883,273,147,376,
0,497,867,286,146,433,
0,492,852,283,145,428,
0,487,839,280,144,423,
0,481,824,278,143,419,
0,476,812,275,143,415,
0,472,864,273,142,411,
0,467,907,271,140,407,
0,463,911,269,140,403,
0,516,905,267,139,399,
0,547,880,264,137,411,
0,539,865,302,136,449,
0,532,851,298,135,444,
0,527,836,295,135,440,
0,520,823,293,135,435,
0,515,809,291,134,431,
0,510,897,287,133,425,
0,504,908,286,131,422,
0,499,911,284,131,418,
0,591,905,281,130,414,
0,583,880,279,129,474,
0,574,865,308,128,466,
0,568,851,305,127,460,
0,561,836,302,127,455,
0,555,823,300,126,450,
0,548,810,296,125,446,
0,543,901,295,124,441,
0,536,910,291,123,437,
0,531,911,289,123,433,
0,620,903,287,122,429,
0,610,880,307,121,484,
0,600,864,315,120,478,
0,593,849,312,120,472,
0,587,835,308,119,467,
0,580,822,305,118,462,
0,574,808,303,118,457,
0,568,903,300,116,452,
0,561,910,298,115,448,
0,555,911,295,115,444,
0,611,892,293,115,440,
0,604,873,316,113,499,
0,594,859,313,113,492,
0,587,844,310,112,486,
0,580,830,307,112,480,
0,574,817,304,111,476,
0,568,821,302,110,471,
0,561,905,299,110,465,
0,555,911,295,108,461,
0,550,911,294,108,456,
0,590,889,291,107,452,
0,583,871,321,107,510,
0,575,857,317,106,504,
0,568,843,315,105,497,
0,561,830,312,104,492,
0,555,816,308,103,487,
0,550,873,306,103,481,
0,543,907,304,103,477,
0,537,911,301,102,472,
0,544,909,299,102,467,
0,543,884,295,100,463,
0,537,868,317,100,459,
0,531,854,313,99,455,
0,527,839,312,99,449,
0,521,825,308,98,446,
0,515,812,305,97,441,
0,511,891,303,97,437,
0,505,907,300,96,433,
0,500,911,297,96,430,
0,506,908,295,96,425,
0,515,889,294,95,422,
0,510,872,297,94,480,
0,504,857,295,94,474,
0,499,843,292,93,470,
0,494,829,289,92,465,
0,489,816,287,92,460,
0,484,851,286,92,455,
0,481,904,284,91,451,
0,476,910,281,90,447,
0,472,910,280,89,443,
0,498,888,277,89,438,
0,492,871,308,88,503,
0,487,856,305,88,497,
0,481,842,302,88,492,
0,476,831,299,88,486,
0,472,818,296,87,481,
0,467,806,294,86,476,
0,463,901,291,86,472,
0,459,909,289,85,467,
0,455,911,287,84,463,
0,499,896,284,84,459,
0,494,875,290,83,505,
0,489,860,299,83,499,
0,484,846,295,83,494,
0,480,831,294,82,488,
0,475,819,291,81,483,
0,470,806,289,81,478,
0,464,899,286,80,473,
0,460,907,284,80,468,
0,455,911,281,79,463,
0,520,903,280,79,460,
0,514,879,277,79,517,
0,508,864,275,78,511,
0,503,849,273,78,505,
0,497,835,271,77,499,
0,492,822,270,77,495,
0,487,808,268,76,489,
0,483,893,265,76,484,
0,478,907,263,76,480,
0,473,911,262,75,475,
0,523,902,259,75,470,
0,525,878,258,74,476,
0,519,863,281,73,498,
0,513,852,280,73,492,
0,508,838,276,72,487,
0,503,824,275,72,481,
0,497,811,272,71,477,
0,492,866,270,71,473,
0,487,905,268,71,468,
0,481,910,266,71,463,
0,479,908,263,70,459,
0,473,885,262,70,455,
0,469,869,284,70,450,
0,463,855,280,69,446,
0,460,839,278,68,441,
0,455,827,275,68,438,
0,451,814,273,68,433,
0,447,803,271,67,430,
0,443,902,268,67,425,
0,440,910,267,67,422,
0,435,910,264,66,418,
0,489,892,262,66,415,
0,484,874,280,65,460,
0,479,859,276,65,455,
0,475,844,275,65,451,
0,470,830,271,64,446,
0,465,817,270,63,441,
0,460,804,268,63,437,
0,455,901,265,63,432,
0,451,909,263,63,428,
0,447,910,261,63,423,
0,455,900,259,62,420,
0,451,877,275,62,463,
0,446,862,283,62,457,
0,441,847,280,61,452,
0,436,833,278,60,449,
0,433,820,275,60,444,
0,429,807,273,60,440,
0,427,895,271,60,435,
0,423,908,269,59,431,
0,419,911,267,59,427,
0,416,900,264,59,423,
0,413,878,263,58,444,
0,409,862,287,57,460,
0,406,847,285,57,455,
0,403,838,283,57,450,
0,399,824,280,56,446,
0,396,811,278,56,441,
0,393,875,275,56,436,
0,390,905,273,56,433,
0,387,910,271,56,429,
0,384,903,269,56,425,
0,381,880,267,55,421,
0,379,864,266,55,446,
0,376,849,263,54,441,
0,372,835,262,54,436,
0,369,822,259,54,432,
0,367,809,258,54,428,
0,364,865,255,53,423,
0,361,903,254,52,419,
0,359,910,252,52,415,
0,355,908,250,52,412,
0,353,884,248,51,408,
0,351,870,275,51,443,
0,348,854,271,51,438,
0,345,839,270,51,433,
0,343,827,268,51,428,
0,341,813,265,51,423,
0,339,800,263,50,420,
0,335,902,261,49,415,
0,334,909,259,49,412,
0,331,906,257,49,408,
0,371,883,255,49,404,
0,368,867,256,49,401,
0,364,856,255,48,398,
0,360,842,254,48,394,
0,358,828,252,48,391,
0,353,815,250,48,387,
0,351,802,248,47,385,
0,348,896,246,47,382,
0,344,907,244,47,379,
0,342,907,243,47,376,
0,391,886,241,46,372,
0,386,870,240,46,407,
0,382,855,259,46,412,
0,379,840,257,46,408,
0,375,827,255,45,404,
0,371,814,253,45,400,
0,368,804,251,44,396,
0,364,881,248,44,392,
0,360,905,247,44,388,
0,358,910,244,44,385,
0,375,896,243,44,383,
0,371,876,241,43,380,
0,367,860,256,43,424,
0,364,846,255,43,420,
0,360,831,252,43,415,
0,358,819,251,42,412,
0,354,806,248,42,408,
0,352,874,247,41,403,
0,348,905,244,41,399,
0,344,909,242,41,396,
0,348,902,240,41,391,
0,387,879,239,41,388,
0,384,864,254,40,385,
0,380,849,252,40,382,
0,376,835,249,39,380,
0,372,822,248,39,376,
0,368,808,246,39,372,
0,365,801,243,39,369,
0,363,902,241,39,367,
0,359,909,240,39,364,
0,355,908,238,39,360,
0,414,886,236,39,358,
0,408,870,254,38,417,
0,404,855,252,38,412,
0,400,844,249,38,408,
0,396,830,247,38,404,
0,392,816,245,38,400,
0,389,804,243,37,396,
0,385,898,240,37,393,
0,382,908,239,36,390,
0,379,910,237,36,386,
0,396,892,236,36,383,
0,392,873,233,36,380,
0,388,859,248,35,376,
0,385,844,247,35,372,
0,382,830,244,35,369,
0,377,817,242,35,366,
0,375,804,240,35,364,
0,371,897,238,35,359,
0,368,907,236,35,357,
0,364,911,235,35,354,
0,409,905,232,34,352,
0,404,881,231,34,406,
0,399,865,257,34,414,
0,396,851,255,33,409,
0,391,836,253,33,406,
0,389,824,251,33,401,
0,385,810,248,33,398,
0,382,887,247,33,393,
0,379,907,244,33,390,
0,375,911,243,32,386,
0,404,906,241,31,383,
0,419,881,239,31,379,
0,415,870,267,31,423,
0,411,855,263,31,419,
0,407,841,262,31,415,
0,403,827,259,31,412,
0,399,814,257,31,408,
0,395,835,255,31,404,
0,391,903,253,31,399,
0,388,910,252,30,396,
0,385,911,249,30,392,
0,444,892,248,30,390,
0,440,874,280,30,444,
0,435,859,275,30,439,
0,430,844,273,30,434,
0,425,831,271,29,430,
0,422,820,269,29,425,
0,417,807,267,29,422,
0,414,900,263,28,417,
0,409,909,262,29,413,
0,406,911,260,28,410,
0,448,902,257,28,406,
0,444,878,278,28,454,
0,440,863,275,28,448,
0,435,848,273,28,444,
0,431,834,271,28,439,
0,427,820,268,28,434,
0,423,807,266,27,431,
0,419,899,263,27,425,
0,415,909,262,27,422,
0,411,911,259,27,417,
0,451,909,257,27,414,
0,447,884,255,26,462,
0,441,868,263,26,455,
0,438,854,262,26,451,
0,432,839,259,25,447,
0,428,826,257,25,443,
0,423,813,255,25,438,
0,421,892,254,25,433,
0,417,907,252,25,430,
0,413,911,249,25,425,
0,427,908,248,25,421,
0,428,884,246,25,417,
0,423,868,268,24,431,
0,419,856,264,24,426,
0,415,843,263,24,422,
0,411,829,260,24,418,
0,408,816,258,24,414,
0,403,855,255,24,411,
0,399,904,254,24,407,
0,396,911,252,24,403,
0,417,911,250,24,399,
0,435,888,248,24,396,
0,431,871,249,23,433,
0,426,856,248,23,428,
0,422,843,245,23,423,
0,417,828,243,23,419,
0,414,816,241,23,415,
0,409,839,240,23,412,
0,406,901,237,23,408,
0,401,909,236,22,403,
0,398,910,234,22,399,
0,454,890,231,22,396,
0,449,873,263,22,448,
0,444,857,261,22,441,
0,440,844,259,21,436,
0,436,830,257,21,432,
0,432,816,255,21,428,
0,428,803,252,21,423,
0,423,900,251,20,419,
0,419,908,248,21,415,
0,415,908,247,20,412,
0,422,888,244,20,408,
0,417,874,243,20,403,
0,414,860,249,20,399,
0,409,845,248,20,396,
0,406,831,246,19,392,
0,401,818,243,19,390,
0,398,805,241,19,387,
0,395,892,240,19,384,
0,391,907,238,19,380,
0,388,908,236,19,376,
0,419,889,235,19,374,
0,414,871,232,19,379,
0,409,857,249,19,412,
0,406,843,248,19,408,
0,401,829,244,19,403,
0,398,819,243,18,399,
0,393,806,241,18,396,
0,390,861,239,18,391,
0,387,904,237,18,388,
0,384,910,235,18,385,
0,408,903,233,18,382,
0,405,880,231,17,379,
0,402,864,248,17,413,
0,398,850,246,17,408,
0,393,836,243,17,404,
0,391,822,241,17,400,
0,386,809,239,17,396,
0,384,854,237,17,393,
0,380,904,235,17,389,
0,376,909,233,17,385,
0,372,908,231,16,382,
0,399,885,230,17,379,
0,395,870,259,16,376,
0,391,854,255,16,372,
0,387,839,254,16,369,
0,384,826,252,15,366,
0,379,813,249,15,363,
0,376,800,248,15,359,
0,373,902,246,15,356,
0,369,909,243,15,353,
0,367,911,241,15,351,
0,410,896,240,15,348,
0,406,875,249,15,369,
0,401,864,254,15,366,
0,397,849,252,15,362,
0,393,835,249,15,359,
0,390,822,248,15,355,
0,385,808,245,15,353,
0,383,896,243,15,350,
0,379,908,241,15,347,
0,376,910,239,14,344,
0,413,897,238,14,341,
0,408,876,236,14,374,
0,403,860,243,14,396,
0,399,847,241,14,391,
0,396,831,240,14,387,
0,391,819,237,14,384,
0,388,806,236,14,380,
0,385,876,233,14,376,
0,381,905,231,14,373,
0,377,911,230,13,369,
0,384,907,228,13,367,
0,380,882,227,13,364,
0,376,867,243,13,411,
0,373,851,241,13,407,
0,370,838,239,13,402,
0,367,824,237,13,399,
0,364,812,236,12,395,
0,360,870,233,12,391,
0,358,905,231,12,387,
0,355,910,230,12,384,
0,352,907,227,12,380,
0,381,887,226,12,376,
0,377,871,247,12,430,
0,374,856,244,12,424,
0,369,842,242,12,420,
0,366,828,240,12,417,
0,363,815,238,12,413,
0,359,802,236,12,408,
0,358,903,235,12,404,
0,354,910,232,11,400,
0,351,910,231,11,397,
0,393,889,229,11,393,
0,388,873,259,11,438,
0,384,857,255,11,433,
0,381,843,254,11,428,
0,377,831,252,11,423,
0,374,819,249,11,419,
0,370,807,248,11,415,
0,367,897,245,11,412,
0,364,908,243,11,408,
0,359,910,241,11,404,
0,373,898,239,11,401,
0,369,876,238,11,401,
0,366,861,252,10,399,
0,363,847,249,10,396,
0,359,832,248,10,391,
0,356,819,245,9,388,
0,353,809,243,9,385,
0,350,885,241,9,382,
0,348,906,240,9,379,
0,344,911,238,9,376,
0,358,909,236,9,372,
0,366,886,234,9,369,
0,363,870,243,9,414,
0,359,856,240,9,409,
0,356,841,239,9,406,
0,353,831,236,9,402,
0,350,817,234,9,399,
0,348,804,232,9,395,
0,344,900,231,8,391,
0,342,907,230,9,388,
0,339,910,227,9,384,
0,377,894,226,8,380,
0,372,875,224,8,406,
0,368,863,246,8,432,
0,364,848,243,7,427,
0,363,835,241,8,423,
0,359,822,240,7,418,
0,355,812,238,7,415,
0,352,803,236,7,411,
0,350,903,235,7,408,
0,347,909,231,7,403,
0,344,908,231,7,399,
0,385,888,228,7,396,
0,383,871,227,7,449,
0,379,856,225,7,444,
0,375,845,224,7,440,
0,371,831,222,7,435,
0,368,817,221,7,431,
0,365,805,220,7,427,
0,361,861,217,7,423,
0,359,904,216,7,419,
0,355,909,215,7,415,
0,352,901,214,7,412,
0,364,879,211,7,408,
0,361,867,227,7,454,
0,358,852,226,7,449,
0,355,839,224,7,444,
0,352,825,223,7,440,
0,348,815,221,7,436,
0,345,802,219,7,432,
0,344,896,217,7,428,
0,340,908,216,7,423,
0,337,910,214,7,420,
0,373,896,212,7,415,
0,370,875,211,7,412,
0,366,860,230,7,428,
0,363,849,227,7,424,
0,359,835,225,7,422,
0,356,822,224,6,417,
0,353,808,223,6,413,
0,351,799,220,6,409,
0,347,901,219,6,406,
0,344,909,217,6,402,
0,342,908,216,6,399,
0,374,892,214,6,395,
0,370,873,220,6,418,
0,366,859,224,6,419,
0,364,844,221,6,415,
0,359,831,220,6,412,
0,356,820,217,6,408,
0,353,807,216,6,404,
0,351,881,215,6,399,
0,348,905,212,6,396,
0,344,909,211,6,393,
0,355,905,209,6,390,
0,382,882,208,5,387,
0,378,867,231,6,435,
0,374,856,227,6,432,
0,371,841,225,6,428,
0,368,828,224,6,423,
0,364,814,222,5,419,
0,361,804,220,5,415,
0,358,893,219,5,412,
0,355,907,217,4,408,
0,352,909,216,5,403,
0,376,900,214,5,399,
0,372,878,212,5,397,
0,369,863,224,4,420,
0,366,847,222,5,415,
0,362,838,220,4,412,
0,359,824,219,5,408,
0,356,811,216,4,404,
0,353,799,216,4,400,
0,350,899,214,4,397,
0,347,908,211,4,394,
0,344,908,210,4,391,
0,384,887,209,4,387,
0,380,870,207,4,427,
0,376,859,227,4,423,
0,371,845,225,4,419,
0,369,831,224,4,414,
0,366,818,222,4,409,
0,362,807,220,4,407,
0,359,857,217,4,403,
0,356,904,216,4,399,
0,353,910,215,4,396,
0,350,907,213,3,392,
0,372,884,211,3,388,
0,369,869,231,4,418,
0,366,854,230,3,414,
0,363,843,227,3,410,
0,359,829,226,3,406,
0,356,816,224,3,402,
0,353,803,223,3,398,
0,350,887,220,3,395,
0,347,906,219,3,391,
0,344,910,217,3,387,
0,374,897,216,3,384,
0,380,880,214,3,381,
0,377,865,235,3,387,
0,374,850,233,3,383,
0,370,836,231,3,379,
0,367,826,229,3,376,
0,363,813,227,3,373,
0,359,800,225,3,370,
0,358,901,224,3,367,
0,354,909,222,3,364,
0,351,910,220,3,361,
0,380,894,219,3,358,
0,377,875,217,3,377,
0,374,860,236,3,383,
0,369,849,233,3,380,
0,366,835,231,3,376,
0,364,822,230,3,372,
0,359,808,227,3,369,
0,357,821,226,3,366,
0,353,903,224,3,363,
0,351,910,223,3,359,
0,348,907,221,3,356,
0,390,888,219,3,354,
0,385,871,231,3,406,
0,383,856,229,3,401,
0,379,842,227,3,397,
0,376,831,225,3,392,
0,371,818,224,2,390,
0,369,805,222,2,386,
0,366,893,220,3,383,
0,362,905,219,3,379,
0,359,910,216,3,376,
0,356,906,216,2,373,
0,374,881,214,2,369,
0,371,871,236,2,395,
0,367,856,233,2,391,
0,363,841,231,2,387,
0,359,827,230,2,384,
0,357,814,228,2,380,
0,353,804,227,2,377,
0,351,898,224,2,374,
0,348,908,223,2,370,
0,345,910,221,2,367,
0,412,899,220,2,364,
0,408,876,217,2,367,
0,404,862,241,2,402,
0,399,847,239,2,398,
0,396,836,237,2,396,
0,391,824,235,2,391,
0,390,810,233,2,387,
0,385,855,231,2,384,
0,382,902,230,2,381,
0,378,909,227,2,377,
0,376,909,227,1,374,
0,431,888,224,1,371,
0,425,875,248,2,413,
0,421,860,246,2,409,
0,418,846,243,1,405,
0,414,831,241,2,401,
0,409,822,239,1,397,
0,406,808,238,1,394,
0,403,885,236,1,391,
0,399,906,233,1,387,
0,396,910,231,1,383,
0,413,903,230,1,380,
0,440,879,228,1,376,
0,435,864,247,1,415,
0,431,849,243,1,412,
0,427,839,242,2,408,
0,423,824,240,1,403,
0,419,812,239,1,399,
0,415,799,236,1,396,
0,411,895,235,1,393,
0,408,908,231,1,390,
0,404,909,231,1,386,
0,414,891,229,1,382,
0,409,877,227,1,380,
0,405,862,246,1,423,
0,401,847,244,1,418,
0,398,833,243,1,414,
0,394,824,240,1,411,
0,391,810,238,1,407,
0,388,814,237,1,403,
0,385,903,235,1,399,
0,382,908,233,1,395,
0,377,908,231,1,391,
0,377,888,230,1,388,
0,374,871,227,1,385,
0,370,860,231,1,381,
0,367,845,230,1,379,
0,364,831,228,1,376,
0,361,818,226,1,371,
0,359,807,224,1,368,
0,355,868,223,1,366,
0,352,905,222,1,363,
0,350,910,220,1,359,
0,349,900,217,1,356,
0,380,882,216,1,355,
0,376,867,236,1,391,
0,374,851,233,1,388,
0,369,838,231,1,384,
0,366,828,230,1,381,
0,363,814,227,1,377,
0,359,801,226,1,375,
0,356,898,224,1,370,
0,353,908,222,1,368,
0,350,911,220,1,364,
0,358,908,219,1,361,
0,356,883,217,1,358,
0,353,871,233,1,414,
0,349,856,231,1,409,
0,347,842,231,1,405,
0,344,828,228,1,401,
0,341,819,226,1,397,
0,338,806,224,1,394,
0,335,902,223,1,391,
0,334,910,221,1,387,
0,331,910,220,1,384,
0,355,895,217,1,380,
0,352,875,216,1,413,
0,348,860,230,1,420,
0,345,849,227,1,416,
0,342,835,226,1,413,
0,339,821,224,1,408,
0,336,808,223,1,404,
0,334,884,220,1,400,
0,331,903,219,1,398,
0,327,910,217,1,393,
0,326,907,216,1,391,
0,366,883,214,1,387,
0,362,871,235,1,411,
0,359,856,231,1,407,
0,356,842,231,1,402,
0,353,828,228,1,398,
0,350,818,227,1,395,
0,346,806,225,1,391,
0,344,895,224,2,387,
0,340,908,222,2,384,
0,337,910,220,2,380,
0,375,904,217,2,378,
0,371,880,216,2,375,
0,368,864,240,1,373,
0,364,854,238,2,369,
0,359,839,236,2,367,
0,358,825,235,2,364,
0,355,813,232,2,360,
0,352,803,231,1,358,
0,348,899,228,2,355,
0,344,908,227,2,352,
0,343,910,225,2,350,
0,399,893,224,1,347,
0,395,878,222,1,359,
0,391,863,233,1,391,
0,387,848,231,1,387,
0,384,835,231,1,384,
0,380,824,228,2,381,
0,376,811,226,1,377,
0,374,864,225,4,374,
0,371,904,223,4,370,
0,367,909,221,4,368,
0,364,908,220,4,364,
0,407,885,218,4,361,
0,402,870,246,3,413,
0,398,858,243,3,409,
0,395,844,241,3,405,
0,391,830,239,3,401,
0,387,816,237,3,397,
0,384,807,235,3,393,
0,380,888,233,4,390,
0,377,906,231,4,387,
0,374,911,230,4,384,
0,419,908,228,4,380,
0,428,883,226,4,376,
0,423,867,248,3,419,
0,419,853,245,3,415,
0,415,843,243,3,411,
0,412,828,240,3,408,
0,408,815,239,3,403,
0,404,803,237,4,399,
0,400,902,235,5,396,
0,397,908,233,5,393,
0,393,910,231,4,390,
0,397,896,230,4,385,
0,393,876,228,5,409,
0,390,864,239,4,412,
0,385,849,236,4,408,
0,383,835,236,4,403,
0,380,822,233,4,399,
0,376,812,231,4,397,
0,372,831,229,12,393,
0,369,903,227,11,390,
0,367,910,226,11,385,
0,364,908,224,11,383,
0,399,884,223,10,379,
0,395,868,245,11,376,
0,391,854,243,10,372,
0,387,839,240,10,369,
0,384,825,238,10,366,
0,380,816,236,9,363,
0,376,803,234,9,359,
0,372,899,232,11,358,
0,369,908,231,11,354,
0,366,908,229,11,352,
0,392,886,227,10,348,
0,388,870,226,10,397,
0,384,855,239,10,391,
0,381,840,237,9,388,
0,377,830,235,9,385,
0,374,817,232,9,382,
0,371,804,231,9,377,
0,368,892,230,10,375,
0,364,907,227,10,371,
0,360,910,225,9,368,
0,396,899,224,9,364,
0,391,877,222,9,361,
0,388,862,268,9,408,
0,384,851,265,9,403,
0,380,837,263,9,400,
0,376,824,261,9,397,
0,374,810,259,9,393,
0,371,798,257,9,390,
0,368,898,255,23,385,
0,364,908,252,23,383,
0,359,909,250,23,379,
0,359,890,248,22,376,
0,355,872,247,22,372,
0,353,857,255,21,369,
0,350,844,254,21,366,
0,348,829,252,21,363,
0,344,816,249,21,359,
0,342,803,248,20,356,
0,339,897,246,20,353,
0,335,908,243,20,350,
0,333,910,241,19,347,
0,339,897,240,19,344,
0,336,876,238,19,387,
0,333,861,243,19,393,
0,330,847,240,19,390,
0,327,833,238,19,386,
0,325,819,236,19,383,
0,323,807,235,18,379,
0,321,883,233,19,376,
0,319,906,231,18,371,
0,316,910,230,18,368,
0,335,900,227,18,364,
0,347,878,226,18,361,
0,344,862,235,18,359,
0,340,851,232,17,355,
0,337,838,231,17,352,
0,334,824,229,17,350,
0,331,811,227,17,346,
0,327,824,225,19,344,
0,325,903,224,18,341,
0,322,910,222,18,338,
0,319,907,220,18,335,
0,351,883,219,17,333,
0,348,867,239,17,377,
0,344,852,236,17,374,
0,340,839,234,17,369,
0,337,824,231,17,366,
0,335,812,230,17,363,
0,332,802,228,16,359,
0,327,899,226,17,356,
0,326,908,224,17,352,
0,322,909,223,16,350,
0,367,888,220,16,347,
0,363,871,240,15,398,
0,359,856,237,15,391,
0,357,842,235,15,388,
0,353,828,233,15,384,
0,351,816,231,15,381,
0,348,803,230,15,377,
0,344,898,227,20,374,
0,341,908,225,20,370,
0,337,908,224,20,367,
0,398,894,222,20,363,
0,393,875,220,19,406,
0,389,860,231,19,399,
0,385,846,229,19,396,
0,382,831,227,19,393,
0,377,818,225,19,389,
0,375,805,224,19,385,
0,371,889,222,20,382,
0,368,907,220,20,377,
0,364,910,218,19,375,
0,397,902,216,19,371,
0,395,879,215,19,368,
0,391,863,242,19,415,
0,387,849,240,19,411,
0,384,839,238,19,407,
0,380,824,236,19,402,
0,376,812,233,19,399,
0,372,845,231,24,395,
0,369,903,230,24,391,
0,366,910,227,24,388,
0,376,908,225,23,384,
0,382,883,224,23,381,
0,379,868,235,23,431,
0,376,853,231,22,426,
0,371,839,231,23,422,
0,368,825,228,22,417,
0,364,812,227,22,413,
0,361,834,224,22,409,
0,358,903,223,22,406,
0,355,909,221,22,401,
0,352,910,220,21,398,
0,395,889,217,21,393,
0,391,871,235,20,431,
0,387,857,233,20,427,
0,384,843,231,20,423,
0,380,829,228,19,418,
0,376,816,227,19,414,
0,373,803,225,21,410,
0,369,899,224,27,406,
0,366,909,222,27,402,
0,363,911,220,26,398,
0,404,894,217,25,395,
0,400,875,221,25,423,
0,396,864,244,25,418,
0,391,848,241,25,414,
0,388,835,240,24,409,
0,384,821,238,24,405,
0,381,808,236,24,402,
0,377,893,233,30,398,
0,374,907,231,30,395,
0,371,911,230,30,391,
0,404,901,228,29,387,
0,399,878,227,29,391,
0,396,863,243,28,425,
0,391,847,240,28,422,
0,387,835,238,28,417,
0,384,820,236,28,413,
0,380,811,235,28,409,
0,376,865,232,31,404,
0,373,905,231,30,401,
0,369,910,228,30,397,
0,413,908,227,30,395,
0,409,884,225,29,391,
0,406,869,255,29,426,
0,401,854,252,29,422,
0,398,839,251,28,417,
0,394,826,248,28,413,
0,391,813,246,28,408,
0,387,862,244,31,404,
0,384,904,242,31,400,
0,380,911,240,31,397,
0,376,912,238,31,393,
0,414,903,236,31,390,
0,409,879,244,30,387,
0,406,864,242,30,384,
0,401,849,240,30,382,
0,398,835,238,30,378,
0,393,821,236,29,375,
0,390,808,235,31,371,
0,387,902,231,31,368,
0,384,909,231,31,365,
0,380,908,229,30,361,
0,376,886,227,30,359,
0,373,871,238,30,406,
0,395,856,238,30,401,
0,391,841,236,30,397,
0,387,831,233,29,393,
0,384,817,231,29,390,
0,380,804,230,29,386,
0,376,896,227,28,384,
0,372,907,225,28,380,
0,369,898,224,28,376,
0,366,878,223,28,372,
0,364,862,221,28,399,
0,359,847,248,27,425,
0,357,833,247,27,422,
0,354,820,243,27,417,
0,351,807,242,26,412,
0,348,795,240,26,408,
0,345,895,238,26,404,
0,342,905,236,26,400,
0,339,903,233,25,397,
0,336,882,231,25,393,
0,334,867,231,25,400,
0,331,852,257,25,436,
0,327,838,255,24,431,
0,326,824,252,24,427,
0,323,811,251,24,423,
0,321,798,248,24,419,
0,319,872,247,24,414,
0,316,904,244,24,410,
0,313,905,243,24,406,
0,312,883,240,24,403,
0,308,868,238,24,399,
0,307,857,252,24,444,
0,316,842,249,24,440,
0,313,828,248,23,435,
0,311,815,245,23,431,
0,307,802,243,23,428,
0,305,798,241,25,423,
0,303,903,240,25,419,
0,302,907,238,25,415,
0,300,891,236,25,411,
0,317,873,234,24,407,
0,314,859,263,24,449,
0,312,844,260,24,444,
0,308,830,258,24,440,
0,305,816,255,24,435,
0,303,807,254,24,430,
0,300,795,252,24,426,
0,298,897,249,24,422,
0,295,907,248,24,417,
0,294,899,245,24,415,
0,292,877,243,24,411,
0,291,863,257,24,433,
0,300,847,259,24,433,
0,298,834,257,23,429,
0,295,820,255,23,424,
0,293,807,252,23,420,
0,291,795,250,23,415,
0,288,896,248,23,412,
0,287,906,246,23,408,
0,284,902,243,23,404,
0,307,880,242,23,400,
0,304,865,240,22,432,
0,321,851,275,22,449,
0,318,836,271,22,446,
0,315,822,270,22,441,
0,312,809,267,21,436,
0,308,796,265,21,432,
0,307,882,263,24,428,
0,304,905,261,24,423,
0,302,904,259,24,419,
0,300,883,256,24,415,
0,297,867,255,23,412,
0,295,852,275,23,463,
0,303,838,273,23,457,
0,300,828,270,23,452,
0,297,815,268,22,448,
0,295,802,265,22,443,
0,292,819,263,24,439,
0,290,903,262,24,435,
0,287,907,259,24,431,
0,295,892,257,23,427,
0,323,873,255,23,423,
0,319,859,267,23,468,
0,317,844,263,22,463,
0,314,830,262,22,457,
0,312,816,259,22,453,
0,308,803,257,22,448,
0,305,807,255,23,444,
0,303,899,253,24,440,
0,300,908,251,23,435,
0,297,902,248,23,431,
0,336,879,247,23,427,
0,333,864,255,22,473,
0,330,849,252,22,467,
0,327,835,251,22,462,
0,324,822,248,22,457,
0,321,808,247,21,452,
0,319,796,244,21,448,
0,316,898,243,22,443,
0,313,908,240,22,439,
0,311,901,239,22,435,
0,336,879,237,21,430,
0,333,867,236,21,455,
0,334,852,252,21,451,
0,331,839,250,20,446,
0,327,825,248,20,441,
0,323,812,246,20,438,
0,321,799,243,20,433,
0,318,891,241,24,429,
0,316,907,240,23,424,
0,313,910,238,23,421,
0,336,899,236,22,417,
0,339,877,235,22,413,
0,335,862,252,22,463,
0,332,847,249,22,457,
0,329,833,247,22,452,
0,326,824,244,22,448,
0,323,810,243,21,443,
0,319,847,240,22,439,
0,317,904,239,22,434,
0,314,910,236,22,431,
0,315,903,235,22,427,
0,313,880,233,21,423,
0,311,865,252,21,447,
0,323,850,249,20,441,
0,319,835,247,20,436,
0,317,822,244,20,432,
0,315,809,243,20,428,
0,312,834,240,21,423,
0,308,903,239,20,419,
0,306,908,236,20,415,
0,304,903,235,20,412,
0,308,880,232,20,408,
0,305,864,255,19,438,
0,332,849,252,19,435,
0,327,835,249,19,430,
0,325,822,247,19,425,
0,321,809,246,19,422,
0,319,796,243,19,417,
0,317,899,241,19,413,
0,313,908,239,19,409,
0,312,896,237,19,406,
0,322,876,236,19,401,
0,319,861,233,19,446,
0,338,847,246,19,440,
0,334,835,244,18,435,
0,331,822,242,18,431,
0,327,809,240,18,426,
0,325,796,238,18,422,
0,322,892,236,22,419,
0,319,907,233,22,415,
0,316,905,231,21,411,
0,315,884,231,21,407,
0,312,868,229,21,403,
0,323,854,248,20,455,
0,332,839,245,20,449,
0,328,825,243,20,445,
0,326,812,240,20,440,
0,323,799,239,19,435,
0,319,859,236,26,432,
0,317,904,235,26,427,
0,313,908,232,25,423,
0,321,891,231,25,419,
0,318,873,229,25,415,
0,316,859,236,24,436,
0,326,844,233,24,432,
0,323,830,231,24,428,
0,320,816,231,24,423,
0,318,803,228,24,419,
0,315,847,227,25,415,
0,312,904,225,25,411,
0,309,909,224,25,407,
0,307,899,222,25,403,
0,391,881,220,25,399,
0,386,865,240,24,423,
0,382,851,237,24,419,
0,379,836,235,24,414,
0,375,824,233,24,411,
0,371,810,231,24,407,
0,368,798,230,24,403,
0,364,902,227,24,399,
0,361,909,226,24,396,
0,359,911,224,24,391,
0,422,902,222,24,388,
0,416,878,227,23,430,
0,412,862,252,23,423,
0,408,847,251,23,420,
0,403,838,248,23,415,
0,399,824,246,22,412,
0,396,811,243,22,408,
0,391,896,242,22,403,
0,388,908,240,22,400,
0,385,911,238,22,397,
0,425,905,236,22,393,
0,420,880,235,22,390,
0,417,865,263,21,419,
0,412,851,260,21,415,
0,408,836,258,20,411,
0,404,823,255,20,407,
0,401,810,254,20,403,
0,397,894,252,28,399,
0,393,908,249,27,395,
0,390,911,248,27,391,
0,444,908,246,27,388,
0,453,883,243,26,384,
0,448,867,275,25,432,
0,443,852,271,25,428,
0,439,839,270,25,423,
0,434,825,268,25,419,
0,431,812,265,25,415,
0,427,871,263,28,412,
0,423,905,262,27,408,
0,419,911,259,27,403,
0,415,908,257,26,399,
0,438,884,255,26,396,
0,433,869,268,25,431,
0,428,857,265,25,425,
0,423,844,263,25,422,
0,419,830,261,25,417,
0,415,816,259,24,413,
0,412,803,257,38,410,
0,408,902,255,39,406,
0,404,910,252,39,402,
0,401,911,251,39,398,
0,454,892,249,39,395,
0,448,873,268,38,431,
0,444,859,273,38,425,
0,440,844,271,38,421,
0,435,831,268,37,417,
0,431,817,266,36,412,
0,426,807,263,36,408,
0,422,897,262,38,404,
0,418,908,259,38,400,
0,414,911,257,38,397,
0,477,900,255,37,393,
0,472,877,263,37,412,
0,466,862,276,36,428,
0,463,847,275,36,423,
0,457,834,272,35,419,
0,453,820,270,35,415,
0,448,807,268,35,412,
0,444,896,265,36,408,
0,440,908,263,36,403,
0,435,911,261,35,399,
0,492,906,259,35,396,
0,493,881,257,35,393,
0,487,866,275,35,393,
0,483,851,271,34,390,
0,477,836,270,34,387,
0,472,824,268,33,384,
0,467,810,265,33,380,
0,463,881,263,39,377,
0,459,905,261,39,374,
0,455,911,259,39,371,
0,450,907,257,38,368,
0,491,882,255,38,364,
0,485,867,289,38,419,
0,480,852,286,37,414,
0,474,841,284,37,409,
0,470,827,281,36,406,
0,464,814,279,36,401,
0,460,813,276,47,398,
0,455,903,273,47,395,
0,451,910,271,46,391,
0,447,910,269,45,387,
0,442,889,268,45,384,
0,439,871,280,45,380,
0,435,857,278,44,377,
0,431,843,275,44,374,
0,427,829,272,44,370,
0,423,816,270,43,367,
0,419,803,268,44,364,
0,415,902,265,44,360,
0,412,908,263,43,358,
0,408,911,262,43,355,
0,408,896,259,42,352,
0,403,876,272,42,412,
0,399,860,273,41,408,
0,396,846,271,41,403,
0,393,831,269,41,399,
0,391,819,267,40,395,
0,387,806,263,39,391,
0,384,897,262,41,387,
0,381,908,260,41,384,
0,378,911,257,40,380,
0,385,902,255,39,376,
0,381,878,254,39,403,
0,377,867,268,39,430,
0,374,852,266,39,424,
0,371,838,263,39,420,
0,368,824,262,39,415,
0,364,811,259,39,413,
0,361,888,257,49,408,
0,359,906,255,48,404,
0,356,911,254,48,401,
0,367,908,252,48,398,
0,385,883,249,47,393,
0,382,867,263,47,434,
0,377,852,262,46,430,
0,374,839,259,46,424,
0,370,825,257,46,420,
0,367,815,255,45,416,
0,363,831,253,46,412,
0,359,903,251,46,408,
0,356,910,248,45,404,
0,356,911,247,45,401,
0,409,890,244,44,398,
0,406,873,271,44,442,
0,402,857,270,44,437,
0,398,844,268,43,432,
0,394,830,265,43,428,
0,391,816,263,43,423,
0,387,819,260,46,419,
0,384,903,259,45,415,
0,380,910,255,44,412,
0,376,911,254,44,408,
0,432,902,252,44,403,
0,428,878,278,44,443,
0,423,863,273,43,438,
0,419,848,271,43,434,
0,415,835,269,42,430,
0,411,821,267,42,425,
0,407,807,265,42,421,
0,403,899,263,41,417,
0,399,908,261,41,412,
0,396,911,259,41,409,
0,435,900,255,40,404,
0,430,878,255,40,443,
0,425,863,273,39,444,
0,422,851,271,39,440,
0,417,838,268,39,435,
0,413,824,265,39,430,
0,409,811,263,39,425,
0,405,891,261,39,423,
0,401,907,259,39,418,
0,398,911,257,39,414,
0,428,908,255,39,410,
0,423,883,253,38,406,
0,420,867,277,38,445,
0,415,852,275,38,440,
0,412,839,271,37,435,
0,408,825,270,37,431,
0,403,812,268,36,427,
0,399,888,265,37,423,
0,396,904,263,36,419,
0,391,911,260,36,415,
0,403,911,259,36,411,
0,423,888,255,35,407,
0,419,872,276,35,448,
0,415,857,274,35,443,
0,411,843,271,35,439,
0,408,829,270,35,433,
0,403,816,268,34,430,
0,399,840,265,38,425,
0,396,903,263,38,421,
0,391,910,261,37,417,
0,388,911,259,36,413,
0,423,891,257,36,409,
0,419,877,286,35,448,
0,414,862,282,35,444,
0,409,847,280,35,440,
0,406,833,278,35,434,
0,401,819,275,35,431,
0,398,807,273,55,427,
0,395,900,270,56,423,
0,391,909,268,55,419,
0,387,911,266,54,415,
0,420,897,263,54,410,
0,415,876,262,53,460,
0,412,861,271,52,453,
0,408,847,269,52,448,
0,403,832,267,51,444,
0,399,823,263,51,439,
0,396,809,262,51,435,
0,391,893,259,51,430,
0,388,907,257,51,425,
0,385,911,255,51,423,
0,443,907,254,50,419,
0,438,882,252,49,415,
0,433,866,271,49,438,
0,430,851,268,49,433,
0,425,838,267,48,429,
0,421,824,263,48,424,
0,417,811,262,48,420,
0,413,891,259,49,416,
0,409,907,257,48,412,
0,405,911,255,48,408,
0,432,911,253,48,404,
0,440,891,251,47,400,
0,436,873,267,47,443,
0,432,858,263,47,439,
0,427,844,262,46,434,
0,423,830,259,46,430,
0,419,816,258,45,425,
0,415,858,255,47,422,
0,412,904,254,47,417,
0,408,911,252,47,413,
0,404,911,249,46,409,
0,409,890,248,46,405,
0,405,872,272,45,455,
0,401,857,270,45,449,
0,397,847,267,45,444,
0,393,833,265,44,440,
0,390,819,263,44,435,
0,387,807,260,44,432,
0,384,901,258,45,428,
0,380,909,255,44,423,
0,376,911,255,44,419,
0,408,896,252,44,415,
0,403,875,253,44,455,
0,399,860,277,43,450,
0,395,846,274,43,445,
0,391,831,271,42,440,
0,387,819,269,42,436,
0,384,806,267,41,432,
0,380,895,264,45,428,
0,376,908,263,44,423,
0,373,910,260,44,419,
0,419,898,259,44,415,
0,415,876,255,44,412,
0,411,861,270,43,424,
0,406,847,267,43,420,
0,403,833,265,42,415,
0,399,819,263,42,412,
0,396,807,260,41,408,
0,391,894,259,44,404,
0,387,908,255,43,400,
0,384,911,254,43,396,
0,391,902,252,42,393,
0,388,883,251,41,390,
0,384,867,267,41,436,
0,380,852,263,41,432,
0,377,838,262,40,428,
0,374,824,259,40,423,
0,370,812,257,39,420,
0,367,869,255,44,415,
0,364,905,254,43,412,
0,361,911,252,43,408,
0,359,908,249,43,403,
0,395,884,248,42,399,
0,391,869,271,41,428,
0,387,854,268,41,423,
0,383,839,265,41,418,
0,379,830,263,40,414,
0,376,816,260,39,409,
0,371,803,259,44,406,
0,368,902,255,43,402,
0,365,910,255,43,399,
0,361,911,252,43,396,
0,408,894,251,42,391,
0,403,875,260,42,399,
0,401,860,269,41,396,
0,396,845,267,41,391,
0,393,831,263,40,388,
0,389,818,262,39,384,
0,385,806,259,45,381,
0,382,901,257,45,378,
0,379,908,255,45,375,
0,375,911,253,44,371,
0,424,903,251,44,368,
0,419,879,254,44,415,
0,415,864,271,43,412,
0,412,849,269,43,408,
0,408,835,267,42,403,
0,403,822,265,42,399,
0,399,808,263,41,396,
0,396,896,260,47,391,
0,392,908,259,46,387,
0,389,911,255,46,384,
0,445,902,254,46,381,
0,452,878,252,46,396,
0,448,863,271,45,419,
0,443,852,268,44,415,
0,439,838,266,44,411,
0,434,824,263,44,407,
0,430,812,262,43,403,
0,425,880,259,43,399,
0,422,905,257,43,396,
0,417,911,255,42,391,
0,415,909,254,42,388,
0,472,884,252,41,385,
0,467,869,279,41,422,
0,462,855,275,40,417,
0,457,839,273,40,413,
0,452,826,271,39,408,
0,448,813,268,39,404,
0,443,810,267,41,401,
0,439,903,263,41,397,
0,435,910,262,41,393,
0,431,911,259,39,390,
0,478,894,257,39,387,
0,472,875,283,39,408,
0,467,860,280,39,403,
0,463,845,278,39,399,
0,459,831,275,39,395,
0,454,818,273,38,391,
0,449,805,271,45,387,
0,445,903,269,44,384,
0,440,910,267,44,380,
0,436,911,263,44,376,
0,478,904,262,43,374,
0,472,879,271,43,415,
0,467,864,269,43,410,
0,462,849,267,42,406,
0,457,835,264,41,403,
0,452,822,263,41,399,
0,448,809,260,43,396,
0,445,897,259,43,391,
0,440,908,255,43,387,
0,435,911,254,42,384,
0,448,905,252,42,380,
0,443,880,251,41,408,
0,438,865,281,41,420,
0,433,851,279,41,415,
0,430,840,276,40,412,
0,425,827,274,39,408,
0,422,814,271,39,403,
0,417,887,269,39,399,
0,414,906,267,39,396,
0,409,911,264,39,392,
0,454,910,263,39,389,
0,448,886,261,39,385,
0,445,870,266,39,433,
0,440,855,263,39,428,
0,435,840,261,38,423,
0,432,827,259,38,419,
0,427,814,257,38,415,
0,423,883,255,51,411,
0,419,903,253,50,407,
0,415,910,251,49,403,
0,411,911,248,49,399,
0,467,892,247,48,396,
0,462,874,263,48,429,
0,455,859,262,48,423,
0,451,844,259,47,420,
0,447,831,257,47,415,
0,444,817,255,47,412,
0,440,818,254,47,408,
0,435,903,251,47,403,
0,431,910,249,46,399,
0,427,911,247,46,396,
0,476,892,245,46,391,
0,471,874,270,45,431,
0,465,862,266,45,426,
0,460,847,263,44,422,
0,455,833,262,44,417,
0,451,820,259,44,413,
0,447,807,257,45,410,
0,442,899,255,47,406,
0,438,908,252,46,401,
0,435,911,252,46,398,
0,475,900,249,45,395,
0,470,878,248,45,444,
0,464,862,271,44,444,
0,460,847,269,44,440,
0,455,834,266,44,435,
0,450,820,263,44,431,
0,446,811,262,43,427,
0,441,890,259,47,422,
0,437,907,257,46,417,
0,432,911,255,46,414,
0,468,908,253,45,411,
0,463,883,251,45,407,
0,459,868,279,44,430,
0,455,854,276,44,425,
0,449,839,274,44,421,
0,446,825,271,44,416,
0,440,812,269,43,412,
0,436,888,267,44,408,
0,432,907,264,43,404,
0,428,911,263,43,400,
0,432,911,260,43,397,
0,474,891,258,42,393,
0,469,873,290,41,428,
0,463,857,287,41,423,
0,459,844,284,41,420,
0,454,830,281,40,415,
0,449,816,280,39,412,
0,445,839,278,40,408,
0,441,903,275,39,404,
0,438,910,273,39,399,
0,433,911,271,39,396,
0,467,892,268,39,392,
0,462,874,280,39,430,
0,456,858,278,39,425,
0,451,847,275,38,420,
0,448,834,273,38,416,
0,443,820,271,38,412,
0,439,807,268,38,408,
0,434,900,266,41,405,
0,430,909,263,41,401,
0,425,911,262,40,398,
0,465,903,260,39,393,
0,462,879,258,39,390,
0,456,863,267,39,387,
0,452,848,263,39,384,
0,448,835,262,39,380,
0,443,822,259,39,376,
0,438,808,257,39,373,
0,434,899,255,39,369,
0,430,907,254,39,366,
0,425,911,252,39,364,
0,466,905,249,39,359,
0,460,881,248,39,358,
0,455,865,273,39,401,
0,451,851,271,38,396,
0,446,836,269,38,392,
0,443,823,267,38,389,
0,439,809,263,37,385,
0,434,891,263,39,382,
0,430,907,260,38,377,
0,425,911,257,38,374,
0,439,905,255,38,371,
0,462,881,254,38,368,
0,457,870,286,37,416,
0,452,855,284,37,412,
0,448,840,280,36,408,
0,444,827,278,36,403,
0,439,814,275,35,400,
0,435,856,273,48,396,
0,430,904,271,47,392,
0,427,910,270,46,389,
0,423,910,268,46,385,
0,484,888,265,45,382,
0,480,871,280,45,429,
0,473,856,277,44,423,
0,468,842,275,44,419,
0,463,828,272,44,415,
0,459,818,270,44,412,
0,455,806,268,43,408,
0,450,901,265,43,403,
0,446,909,263,43,399,
0,441,911,261,42,396,
0,476,899,259,42,392,
0,471,876,281,41,433,
0,467,862,279,41,428,
0,462,847,276,40,423,
0,457,833,273,39,419,
0,452,819,271,39,415,
0,448,807,270,45,412,
0,444,900,267,47,408,
0,440,909,264,46,403,
0,435,911,263,46,399,
0,454,905,260,45,396,
0,449,881,258,45,443,
0,444,866,280,44,437,
0,440,851,277,44,433,
0,435,836,275,44,429,
0,431,824,272,43,424,
0,427,811,271,43,420,
0,423,894,268,46,415,
0,419,907,266,45,412,
0,415,911,263,44,408,
0,448,907,262,44,404,
0,456,881,259,44,400,
0,451,866,278,43,399,
0,447,856,275,43,395,
0,442,840,272,43,391,
0,438,828,271,43,387,
0,433,814,268,42,384,
0,430,869,265,44,382,
0,425,905,263,43,378,
0,421,911,262,43,375,
0,440,911,259,43,371,
0,455,888,257,42,368,
0,451,871,280,41,411,
0,446,856,276,41,406,
0,441,843,274,40,402,
0,436,828,271,40,398,
0,432,815,270,39,393,
0,428,860,268,53,391,
0,423,902,265,55,387,
0,419,910,263,54,383,
0,415,911,261,54,380,
0,470,897,259,54,376,
0,463,876,281,53,418,
0,459,860,279,52,413,
0,454,846,276,52,409,
0,451,831,274,51,405,
0,446,819,271,51,401,
0,441,806,269,51,397,
0,438,902,267,51,393,
0,433,910,264,50,390,
0,429,911,263,50,385,
0,455,896,260,49,382,
0,451,879,264,49,422,
0,446,864,287,49,417,
0,441,849,284,48,412,
0,436,835,281,48,408,
0,432,822,280,48,405,
0,428,808,276,47,401,
0,423,896,274,49,398,
0,421,908,272,49,393,
0,417,911,270,48,390,
0,423,904,268,48,386,
0,420,880,265,48,401,
0,415,865,287,47,441,
0,412,850,284,47,436,
0,408,836,281,47,432,
0,404,826,280,46,428,
0,401,813,277,46,423,
0,398,880,275,52,419,
0,394,905,271,52,415,
0,391,911,270,51,412,
0,391,908,268,51,408,
0,387,884,265,50,404,
0,384,868,288,50,440,
0,381,854,285,49,435,
0,377,839,283,49,431,
0,375,825,280,49,427,
0,371,812,278,48,422,
0,368,871,275,49,418,
0,365,905,273,49,414,
0,362,910,271,49,409,
0,359,910,268,48,406,
0,365,888,267,48,402,
0,361,871,278,47,423,
0,358,856,275,47,419,
0,355,842,272,47,415,
0,352,828,270,46,411,
0,349,815,268,46,407,
0,347,803,266,47,403,
0,344,902,263,46,399,
0,342,910,262,46,395,
0,339,910,259,45,391,
0,366,890,257,45,387,
0,363,872,271,44,411,
0,359,861,281,44,407,
0,355,847,279,44,402,
0,352,832,276,44,398,
0,349,819,274,43,395,
0,345,807,271,43,391,
0,343,897,270,44,387,
0,339,908,268,44,384,
0,336,911,265,44,380,
0,385,898,263,43,377,
0,380,876,262,43,376,
0,376,861,280,43,372,
0,373,847,279,41,369,
0,369,833,275,41,366,
0,366,819,273,41,363,
0,363,807,271,41,359,
0,359,886,268,41,357,
0,355,906,267,41,353,
0,352,911,263,40,351,
0,405,907,262,39,348,
0,399,882,260,39,346,
0,396,866,277,39,392,
0,391,852,275,39,388,
0,389,838,272,39,384,
0,385,824,270,39,380,
0,382,811,268,38,377,
0,378,882,265,39,374,
0,375,906,263,38,370,
0,371,911,261,38,367,
0,368,910,259,38,363,
0,399,892,257,37,359,
0,395,875,288,37,408,
0,391,859,286,36,403,
0,387,844,283,36,399,
0,384,830,280,36,397,
0,380,817,278,35,393,
0,376,817,275,39,389,
0,374,903,273,39,385,
0,370,910,271,38,382,
0,367,911,269,38,379,
0,419,892,267,38,375,
0,414,874,294,37,427,
0,409,859,289,37,422,
0,405,844,287,36,417,
0,401,834,284,36,413,
0,397,820,281,36,408,
0,393,807,280,39,404,
0,390,899,277,42,400,
0,387,908,275,41,398,
0,383,911,272,41,393,
0,427,900,270,40,391,
0,422,877,268,40,433,
0,419,862,287,39,432,
0,415,847,284,39,428,
0,411,833,281,39,423,
0,407,820,279,39,419,
0,403,807,276,39,415,
0,399,897,274,44,411,
0,395,907,271,43,407,
0,391,911,270,43,403,
0,455,906,267,42,399,
0,449,881,265,41,396,
0,444,866,291,41,392,
0,440,851,287,41,389,
0,435,837,286,40,385,
0,430,824,284,39,382,
0,428,811,281,39,379,
0,423,888,279,46,376,
0,419,907,276,46,371,
0,415,911,273,46,368,
0,421,911,271,45,365,
0,468,888,270,44,362,
0,463,871,284,44,409,
0,458,860,281,44,406,
0,454,846,280,44,401,
0,448,831,276,43,397,
0,444,819,274,43,394,
0,440,835,271,44,391,
0,435,903,270,43,387,
0,431,910,268,43,384,
0,428,911,266,42,380,
0,468,889,263,41,376,
0,463,873,295,41,423,
0,458,857,291,41,418,
0,453,844,289,40,414,
0,448,829,287,39,409,
0,444,816,284,39,405,
0,440,807,281,43,401,
0,435,899,280,47,397,
0,431,909,277,47,393,
0,427,911,275,46,390,
0,450,899,272,46,387,
0,446,876,292,45,435,
0,440,861,289,44,428,
0,438,847,287,44,423,
0,433,833,284,44,419,
0,428,819,282,44,415,
0,423,807,280,48,412,
0,420,899,278,49,408,
0,415,908,275,48,403,
0,412,911,272,48,399,
0,435,905,271,47,396,
0,430,881,268,47,434,
0,425,865,284,47,435,
0,421,851,280,46,430,
0,416,836,279,46,427,
0,412,824,275,45,422,
0,408,810,273,45,418,
0,406,891,271,47,414,
0,402,907,270,46,409,
0,399,911,267,46,406,
0,395,908,265,45,401,
0,391,883,263,45,398,
0,388,867,284,44,438,
0,385,853,281,44,433,
0,382,843,279,44,428,
0,378,828,276,43,423,
0,376,816,274,44,419,
0,372,851,271,47,415,
0,368,904,270,47,412,
0,366,910,267,46,408,
0,371,911,265,46,405,
0,398,888,263,46,401,
0,395,871,264,45,441,
0,391,857,263,44,437,
0,387,843,260,44,432,
0,384,829,258,44,428,
0,380,816,255,43,423,
0,376,839,254,48,419,
0,373,900,252,48,415,
0,369,909,249,47,411,
0,366,911,248,47,408,
0,364,896,246,46,403,
0,360,875,259,46,423,
0,358,860,256,45,419,
0,355,846,254,45,414,
0,352,831,252,45,410,
0,350,819,251,44,406,
0,347,806,248,44,402,
0,344,899,247,45,398,
0,341,909,244,44,395,
0,339,911,243,44,391,
0,383,897,241,44,387,
0,378,876,239,43,435,
0,375,864,268,43,429,
0,371,849,264,43,423,
0,367,835,263,42,420,
0,364,823,260,41,415,
0,359,809,258,41,413,
0,356,893,255,41,408,
0,353,908,254,41,404,
0,352,911,252,40,401,
0,396,903,250,40,397,
0,408,879,248,39,393,
0,403,864,273,39,433,
0,399,849,271,39,428,
0,395,835,268,39,423,
0,391,822,265,39,419,
0,387,812,263,39,415,
0,384,866,262,42,412,
0,380,904,259,42,408,
0,376,910,257,41,403,
0,399,907,255,41,400,
0,407,882,253,40,396,
0,403,867,273,39,443,
0,399,852,271,39,438,
0,395,838,269,39,433,
0,391,824,267,39,428,
0,387,812,263,39,423,
0,384,856,263,40,420,
0,380,904,260,39,415,
0,376,910,258,39,412,
0,373,910,255,39,408,
0,428,889,254,39,403,
0,423,872,273,39,449,
0,419,857,271,39,444,
0,415,844,268,38,440,
0,411,830,265,38,435,
0,407,816,263,38,431,
0,403,803,262,38,427,
0,399,901,259,38,423,
0,396,909,257,38,419,
0,391,910,255,38,415,
0,446,888,253,37,411,
0,440,871,255,37,454,
0,435,856,275,36,448,
0,432,846,273,36,444,
0,427,831,271,35,439,
0,423,819,268,35,434,
0,419,806,266,35,430,
0,415,896,263,42,427,
0,411,908,262,41,422,
0,407,911,259,41,418,
0,448,904,258,40,415,
0,444,880,255,39,412,
0,440,864,280,39,434,
0,435,849,278,39,429,
0,431,836,275,39,425,
0,426,823,273,39,420,
0,422,809,271,39,416,
0,418,878,268,42,412,
0,414,905,266,41,408,
0,409,911,263,41,404,
0,433,908,262,41,400,
0,428,883,259,39,398,
0,423,868,279,39,427,
0,419,853,276,39,422,
0,415,839,274,39,417,
0,412,825,271,39,414,
0,408,812,270,39,409,
0,404,870,268,43,405,
0,400,905,264,42,401,
0,397,911,263,42,397,
0,393,908,260,41,393,
0,396,884,258,41,390,
0,393,872,279,41,425,
0,390,857,276,40,420,
0,386,843,273,39,415,
0,383,829,271,39,412,
0,379,816,269,39,408,
0,376,803,267,44,405,
0,372,902,263,44,401,
0,370,910,263,44,397,
0,367,911,260,43,393,
0,407,891,259,43,390,
0,402,873,271,42,435,
0,398,858,276,41,430,
0,394,844,273,41,425,
0,391,830,271,41,420,
0,387,820,269,40,415,
0,384,807,267,41,412,
0,380,897,263,44,408,
0,376,908,262,44,403,
0,372,911,259,43,401,
0,408,902,258,43,398,
0,403,878,257,43,407,
0,399,864,276,42,433,
0,396,848,274,41,428,
0,391,835,271,41,423,
0,388,822,270,41,419,
0,384,807,267,40,415,
0,381,896,265,42,412,
0,377,908,263,41,408,
0,374,911,260,41,403,
0,385,907,259,41,399,
0,382,883,255,40,399,
0,378,867,279,40,435,
0,374,852,276,39,431,
0,371,838,273,39,427,
0,368,825,271,39,423,
0,364,812,270,39,418,
0,361,880,268,48,414,
0,359,905,265,48,410,
0,355,911,263,47,406,
0,352,908,261,47,402,
0,384,883,259,46,398,
0,380,868,274,46,449,
0,376,856,271,45,444,
0,372,843,269,45,440,
0,369,828,267,44,435,
0,365,816,263,44,431,
0,361,812,262,45,428,
0,359,903,259,44,423,
0,355,910,258,44,419,
0,352,910,255,44,415,
0,404,890,254,43,411,
0,400,872,279,43,423,
0,396,857,276,42,419,
0,391,843,274,42,415,
0,388,830,271,41,411,
0,385,816,269,41,407,
0,381,803,267,42,403,
0,377,898,264,43,399,
0,374,908,263,42,396,
0,371,910,260,41,391,
0,419,896,258,41,388,
0,415,876,275,41,423,
0,410,860,276,40,432,
0,406,846,274,39,428,
0,403,831,271,39,423,
0,399,818,269,39,419,
0,395,806,267,41,415,
0,391,897,264,44,411,
0,387,908,263,43,407,
0,384,911,260,43,403,
0,419,899,258,42,399,
0,414,880,255,42,413,
0,410,865,277,41,431,
0,406,851,275,41,426,
0,401,836,271,41,422,
0,398,824,270,39,419,
0,393,810,268,39,415,
0,391,886,265,48,411,
0,387,906,263,48,406,
0,384,911,262,47,402,
0,383,905,259,47,399,
0,401,881,257,46,395,
0,398,866,279,46,435,
0,393,851,275,46,430,
0,390,837,273,45,425,
0,386,827,271,44,422,
0,382,814,268,44,417,
0,379,831,266,46,412,
0,376,903,263,46,408,
0,371,910,262,44,406,
0,369,910,259,44,402,
0,406,889,257,44,398,
0,403,872,279,44,440,
0,399,857,275,43,435,
0,395,843,272,43,430,
0,391,829,270,43,426,
0,387,816,268,42,422,
0,384,819,265,45,417,
0,380,903,263,44,414,
0,376,909,261,44,409,
0,372,911,259,44,406,
0,404,897,257,43,401,
0,399,876,275,43,398,
0,396,861,272,43,395,
0,391,847,270,42,391,
0,388,831,268,42,387,
0,384,819,265,41,384,
0,382,807,263,41,381,
0,378,899,262,42,377,
0,375,908,259,41,374,
0,371,911,257,41,371,
0,409,900,255,41,368,
0,404,878,253,40,404,
0,400,866,265,40,411,
0,396,851,263,39,407,
0,391,837,260,39,403,
0,388,824,259,39,399,
0,385,811,255,39,396,
0,382,891,254,41,391,
0,377,907,252,41,387,
0,374,911,251,41,384,
0,388,909,248,41,380,
0,398,884,247,39,377,
0,395,869,271,39,428,
0,391,855,269,39,423,
0,387,840,267,39,418,
0,383,827,264,39,414,
0,379,813,263,39,409,
0,376,852,260,44,406,
0,372,904,258,43,401,
0,368,911,255,43,398,
0,376,909,254,43,394,
0,396,886,252,42,391,
0,391,871,273,41,444,
0,388,856,271,41,439,
0,385,841,269,41,434,
0,382,828,267,40,430,
0,378,814,263,39,425,
0,375,838,262,42,422,
0,371,903,259,41,417,
0,368,911,257,41,412,
0,364,910,255,41,408,
0,394,896,254,41,405,
0,390,875,252,40,423,
0,386,860,249,39,419,
0,383,846,248,39,414,
0,379,831,246,39,411,
0,376,818,243,39,407,
0,371,806,241,39,403,
0,369,898,240,46,399,
0,366,908,238,46,395,
0,362,911,236,45,391,
0,422,903,235,45,388,
0,416,880,233,44,427,
0,412,864,231,44,422,
0,408,850,231,44,417,
0,403,839,229,44,413,
0,399,825,227,43,408,
0,396,812,226,43,404,
0,391,889,224,48,401,
0,388,907,223,47,398,
0,385,911,221,47,394,
0,419,908,220,46,391,
0,415,883,218,46,387,
0,412,867,224,46,429,
0,408,854,222,45,423,
0,403,839,220,44,420,
0,399,825,217,44,415,
0,396,812,216,44,412,
0,391,888,215,50,408,
0,387,904,213,49,403,
0,384,910,211,49,399,
0,380,911,210,48,396,
0,379,890,208,48,391,
0,376,873,230,48,423,
0,371,857,228,47,417,
0,368,844,226,47,414,
0,365,830,224,47,409,
0,363,816,223,46,406,
0,359,836,221,48,401,
0,356,904,220,48,398,
0,353,910,217,47,393,
0,351,911,216,47,390,
0,403,894,214,47,387,
0,399,878,234,46,426,
0,395,863,231,46,422,
0,391,848,230,45,417,
