=~=~=~=~=~=~=~=~=~=~=~= PuTTY log 2021.04.22 10:40:56 =~=~=~=~=~=~=~=~=~=~=~=
,231,526,
0,320,885,212,229,562,
1,551,
0,231,895,278,225,235,560,
0,278,860,223,231,551,243,532,
0,286,909,188,240,526,
0,284,911,187,239,520,
0,281,899,185,236,515,
0,280,878,225,235,560,
0,278,860,223,231,551,
0,275,847,221,230,545,
0,273,833,284,911,187,239,520,
0,281,899,185,236,515,
0,280,878,225,235,560,
0,278,860,223,231,551,
0,275,847,221,230,545,
0,273,833,219,228,540,
0,271,821,217,226,534,
0,515,
0,280,878,225,235,560,
0,278,860,223,231,551,
0,275,847,221,230,545,
0,273,833,219,228,540,
0,271,821,217,226,534,
0,268,862,216,256,527,
0,267,904,214,254,519,
0,28)bbbbj
0,278,911,210,249,509,
0,275,892,208,2StartUp!
127,158,907,167,243,483,
0,157,899,166,241,480,
0,156,883,164,240,476,
0,155,872,166,238,537,
0,155,862,167,236,531,
0,153,851,166,236,527,
0,152,841,166,233,521,
0,152,831,164,232,518,
0,151,822,163,231,513,
0,150,812,163,230,509,
0,149,884,161,228,504,
0,147,906,159,227,498,
0,146,911,158,225,492,
0,145,905,157,224,486,
0,143,882,156,222,508,
0,143,867,175,220,551,
0,142,854,173,219,543,
0,141,837,172,216,538,
0,140,824,170,215,531,
0,139,812,168,213,526,
0,137,894,167,223,519,
0,136,908,166,221,514,
0,136,910,164,219,508,
0,135,895,163,217,502,
0,135,876,162,216,561,
0,134,862,165,214,553,
0,132,847,163,212,547,
0,131,831,162,210,540,
0,131,819,161,208,535,
0,129,807,159,207,527,
0,146,903,159,227,525,
0,146,910,158,225,519,
0,146,910,157,223,512,
0,145,890,156,221,507,
0,143,873,168,220,569,
0,143,859,167,217,561,
0,141,846,166,216,556,
0,140,829,163,214,548,
0,139,816,163,212,543,
0,144,804,161,233,536,
0,154,902,159,243,530,
0,171,908,159,241,524,
0,169,907,157,239,518,
0,167,885,156,236,512,
0,167,871,179,235,583,
0,164,856,177,233,575,
0,163,843,176,231,569,
0,162,827,175,228,563,
0,161,814,173,227,556,
0,167,850,172,262,550,
0,165,903,171,259,543,
0,170,909,169,257,537,
0,167,903,167,255,530,
0,167,881,166,252,524,
0,166,867,189,250,575,
0,164,852,187,248,568,
0,163,839,185,246,561,
0,161,824,184,243,554,
0,159,811,183,241,547,
0,159,881,180,263,542,
0,158,905,179,262,536,
0,196,908,178,259,529,
0,194,893,176,257,523,
0,193,875,175,255,548,
0,191,860,174,252,566,
0,190,847,172,250,559,
0,188,834,171,248,551,
1,187,818,169,246,545,
0,185,806,168,243,540,
0,184,893,167,266,534,
0,182,907,166,263,527,
1,190,908,164,262,521,
1,187,890,163,259,515,
1,185,873,163,257,575,
1,184,859,178,255,568,
1,183,846,176,253,561,
1,182,831,175,251,554,
1,179,816,174,248,547,
1,179,804,172,247,542,
1,177,897,171,255,536,
1,185,904,169,252,529,
1,184,889,167,251,524,
1,183,873,167,248,516,
1,182,859,190,247,581,
1,180,846,188,244,574,
1,178,831,186,243,568,
1,177,819,184,240,560,
1,176,804,183,238,553,
1,174,792,182,252,547,
1,173,899,180,255,542,
1,179,898,179,254,536,
1,177,879,177,252,529,
1,176,865,175,249,522,
1,175,851,201,248,560,
1,174,838,199,246,553,
1,172,824,198,243,547,
1,171,812,196,241,540,
1,169,798,195,240,535,
0,167,829,193,259,528,
1,167,902,192,256,523,
1,177,900,190,254,517,
0,176,880,188,252,511,
1,174,866,186,250,504,
1,173,852,193,248,516,
1,172,839,191,246,511,
1,170,825,189,243,504,
1,168,813,188,241,499,
1,167,799,187,240,494,
1,166,871,185,262,489,
1,165,901,184,259,484,
1,182,886,182,257,480,
1,179,871,180,255,475,
1,177,856,179,252,468,
1,176,843,188,251,470,
1,175,830,187,248,465,
1,173,817,185,247,461,
1,172,804,184,244,455,
1,171,791,182,242,452,
1,169,889,180,281,448,
1,167,903,179,279,444,
1,167,892,177,276,440,
1,167,875,176,274,435,
1,165,860,175,271,431,
1,163,847,176,269,427,
1,163,833,175,268,423,
1,161,820,174,265,419,
1,160,806,172,263,415,
1,159,794,171,260,412,
1,158,898,170,280,409,
1,158,908,168,278,405,
1,180,905,167,275,401,
1,178,884,166,273,398,
1,176,870,193,271,394,
1,175,856,191,269,391,
1,174,842,189,267,387,
1,172,829,188,263,384,
1,171,813,185,263,382,
1,169,803,184,284,379,
1,168,902,183,287,376,
1,167,909,182,285,372,
0,166,911,180,283,370,
1,164,897,179,280,367,
1,163,877,192,278,364,
1,161,863,190,275,360,
0,160,849,188,273,359,
0,159,835,187,271,355,
0,158,820,185,269,353,
1,157,870,184,305,351,
0,156,904,182,301,348,
0,155,910,180,299,345,
1,154,911,179,295,343,
0,152,903,177,293,340,
0,152,880,185,291,337,
0,151,865,184,287,335,
0,149,851,182,286,332,
0,148,838,180,284,330,
0,147,822,179,281,327,
0,146,891,177,297,326,
0,145,907,176,295,323,
0,144,911,175,291,321,
0,143,913,173,289,319,
0,142,907,172,287,316,
0,141,882,187,284,313,
0,140,867,184,282,312,
0,139,854,183,280,310,
0,138,840,182,278,307,
0,137,824,180,275,305,
0,135,897,179,281,303,
0,135,908,177,279,301,
0,158,912,176,276,299,
0,156,914,175,275,297,
0,155,908,172,272,295,
0,153,883,177,270,292,
0,152,868,176,268,291,
0,151,855,175,267,289,
0,150,841,174,263,287,
0,148,825,172,262,285,
0,147,901,171,271,283,
0,148,909,169,270,281,
0,157,913,167,268,280,
0,156,914,167,265,278,
0,154,905,184,263,276,
0,152,880,183,260,273,
0,152,865,180,259,271,
0,150,852,179,257,270,
0,149,839,178,255,269,
0,148,847,176,253,267,
0,147,903,175,273,265,
0,150,910,173,271,263,
0,160,913,172,268,262,
0,159,914,171,266,260,
0,157,903,169,263,259,
0,156,880,167,262,255,
0,155,865,167,259,255,
0,153,851,166,257,254,
0,152,839,164,255,252,
0,152,884,163,283,250,
0,150,905,161,280,248,
0,159,911,160,278,247,
0,158,914,159,275,246,
0,157,915,159,272,244,
0,155,904,157,271,242,
0,154,880,156,268,240,
0,152,865,155,266,239,
0,152,852,153,263,238,
0,151,839,152,262,236,
0,150,895,152,282,235,
0,148,907,150,280,233,
0,159,911,149,277,231,
0,158,915,147,275,231,
0,156,915,147,272,229,
0,155,904,155,270,227,
0,153,880,153,268,226,
0,152,865,152,265,224,
0,151,852,152,263,224,
0,150,839,150,262,222,
0,148,899,149,285,221,
0,147,908,147,282,220,
0,147,912,147,280,218,
0,145,915,145,278,217,
0,144,915,144,275,216,
0,143,899,172,273,215,
0,142,876,169,270,213,
0,141,862,167,268,211,
0,140,849,167,266,211,
0,139,835,166,263,209,
0,138,902,164,295,207,
0,173,910,163,291,207,
0,188,913,161,289,206,
0,185,916,160,287,204,
0,184,914,159,284,203,
0,182,891,159,283,201,
0,180,873,157,280,200,
0,179,860,156,278,199,
0,177,847,155,275,199,
0,176,833,153,273,198,
0,175,903,152,300,196,
0,174,910,152,297,195,
0,172,914,150,294,194,
0,171,915,149,291,193,
0,169,913,160,289,192,
0,167,888,159,287,191,
0,167,871,157,284,190,
0,166,858,156,282,188,
0,164,844,155,280,187,
0,163,852,153,291,186,
0,162,906,152,300,185,
0,166,911,151,297,184,
0,163,915,150,295,184,
0,163,915,148,292,182,
0,161,910,164,289,181,
0,159,883,163,287,179,
0,159,868,161,285,179,
0,158,855,159,283,177,
0,156,841,159,280,177,
0,155,883,158,297,176,
0,154,907,156,295,175,
0,185,911,155,291,174,
0,184,915,153,289,173,
0,182,915,152,287,172,
0,180,906,167,284,171,
0,179,880,165,282,169,
0,177,866,163,280,169,
0,176,852,162,278,167,
0,175,839,161,275,167,
0,174,895,159,299,167,
0,172,908,159,295,165,
0,174,913,157,292,164,
0,172,915,156,290,163,
0,171,915,155,287,163,
0,169,900,166,286,167,
0,167,877,164,283,164,
0,167,863,163,281,163,
0,165,849,161,279,163,
0,164,837,159,276,161,
0,163,899,159,298,161,
0,167,910,158,295,159,
0,169,913,156,292,159,
0,167,915,155,289,158,
0,167,913,153,287,164,
0,165,889,156,285,163,
0,163,873,155,283,161,
0,162,859,153,280,159,
0,161,846,152,278,159,
0,163,833,152,275,158,
0,163,901,150,302,157,
0,187,910,149,299,156,
0,191,914,147,295,155,
0,190,915,147,294,154,
0,188,911,145,291,166,
0,186,884,144,289,164,
0,184,870,143,287,162,
0,183,856,142,284,161,
0,182,843,141,281,159,
0,181,847,140,298,159,
0,179,903,139,313,157,
0,180,911,138,310,156,
0,179,915,137,307,155,
0,177,915,135,304,154,
0,176,908,155,302,175,
0,174,881,153,300,173,
0,173,867,152,297,172,
0,172,853,150,295,171,
0,171,840,149,292,169,
0,172,883,147,312,167,
0,170,905,147,308,166,
0,183,911,145,305,165,
0,180,915,144,302,163,
0,179,915,143,300,163,
0,177,899,171,297,167,
0,176,877,168,295,167,
0,175,863,167,292,165,
0,173,849,166,290,163,
0,172,836,164,287,163,
0,171,894,163,308,161,
0,206,908,161,305,159,
0,237,912,160,302,159,
0,235,915,159,300,158,
0,231,911,158,297,167,
0,231,887,157,295,185,
0,227,871,156,292,184,
0,226,857,154,289,181,
0,224,844,153,287,179,
0,223,831,152,286,179,
0,221,898,151,307,177,
0,219,910,150,304,176,
0,217,913,148,300,174,
0,216,915,147,297,173,
0,214,911,146,295,191,
0,212,886,174,292,188,
0,211,871,172,290,187,
0,209,856,171,287,184,
0,207,844,169,286,183,
0,216,831,167,284,182,
0,219,901,167,309,180,
0,217,910,165,306,179,
0,216,914,163,303,177,
0,214,915,163,300,176,
0,211,910,163,297,199,
0,210,883,162,295,197,
0,207,868,160,292,195,
0,207,855,159,290,193,
0,205,841,158,287,192,
0,217,849,157,305,190,
0,219,903,155,319,188,
0,220,911,154,318,187,
0,217,915,153,313,185,
0,216,915,152,312,184,
0,214,907,161,308,183,
0,212,880,159,306,182,
0,210,866,159,304,180,
0,208,852,157,301,178,
0,207,839,156,299,177,
0,217,883,155,322,176,
0,215,905,153,318,174,
0,214,911,152,316,173,
0,212,915,151,312,172,
0,210,915,150,310,171,
0,208,903,148,307,208,
0,207,879,147,304,207,
0,205,864,145,302,205,
0,204,851,145,299,203,
0,201,838,143,297,201,
0,220,894,143,310,199,
0,218,907,142,307,198,
0,216,913,140,304,196,
0,215,915,140,301,195,
0,213,914,139,298,194,
0,211,894,157,295,195,
0,209,875,156,294,194,
0,207,861,153,291,192,
0,206,847,152,288,191,
0,204,834,152,287,189,
0,222,898,150,312,188,
0,225,908,149,308,186,
0,224,913,147,305,185,
0,222,915,147,303,184,
0,220,912,145,300,211,
0,218,887,161,297,207,
0,216,871,159,295,206,
0,214,858,158,292,204,
0,212,844,157,290,202,
0,225,831,156,287,200,
0,233,902,154,312,199,
0,231,909,153,308,198,
0,230,914,152,307,196,
0,227,915,151,303,194,
0,225,910,167,300,236,
0,224,883,167,297,232,
0,222,868,165,295,231,
0,220,855,163,293,228,
0,218,841,161,291,226,
0,216,850,160,307,224,
0,215,903,159,315,223,
0,222,910,158,312,220,
0,220,915,156,308,219,
0,219,915,155,306,217,
0,216,907,187,303,252,
0,215,880,184,300,249,
0,213,866,183,299,248,
0,211,852,180,295,245,
0,209,839,179,294,242,
0,228,885,177,311,240,
0,226,905,176,307,238,
0,224,911,175,305,236,
0,222,915,174,302,235,
0,220,915,172,300,232,
0,219,900,172,296,239,
0,216,877,171,294,236,
0,216,864,169,291,235,
0,212,849,167,289,231,
0,211,836,166,287,230,
0,216,894,165,310,228,
0,215,907,163,307,226,
0,212,911,163,304,224,
0,211,915,161,301,223,
0,209,915,159,299,224,
0,207,897,159,295,230,
0,206,876,159,294,227,
0,204,862,157,291,225,
0,203,848,156,289,224,
0,201,835,155,287,222,
0,205,898,153,313,220,
0,208,908,152,311,218,
0,207,912,152,307,216,
0,205,915,150,304,215,
0,203,911,149,302,234,
0,201,886,156,299,231,
0,199,871,155,296,230,
0,199,857,153,294,227,
0,196,844,152,291,225,
0,195,831,152,289,223,
0,195,902,150,302,221,
0,193,910,149,299,220,
0,192,913,147,295,217,
0,191,915,147,294,216,
0,189,910,177,291,263,
0,188,883,175,288,260,
0,186,868,173,286,258,
0,185,855,172,284,255,
0,184,841,170,281,253,
0,184,848,168,302,251,
0,194,903,167,316,249,
0,193,910,166,313,247,
0,192,914,164,310,244,
0,190,915,163,307,243,
0,189,905,169,304,253,
0,187,880,167,302,251,
0,185,865,166,299,249,
0,184,851,165,295,247,
0,183,839,163,294,243,
0,182,885,162,312,242,
0,180,905,161,309,240,
0,180,911,159,306,238,
0,179,915,158,304,236,
0,178,915,157,300,235,
0,177,900,176,297,255,
0,176,877,174,295,254,
0,174,863,172,293,252,
0,173,850,171,291,249,
0,172,836,169,288,248,
0,174,894,167,312,244,
0,172,907,167,308,243,
0,174,911,165,305,241,
0,172,915,163,303,239,
0,171,913,162,300,253,
0,169,892,183,297,263,
0,168,875,180,295,260,
0,167,860,179,292,258,
0,166,847,177,290,255,
0,164,833,176,287,253,
0,177,898,175,310,251,
0,179,908,173,307,248,
0,177,913,172,304,247,
0,176,915,171,301,244,
0,175,913,169,298,267,
0,173,888,172,295,263,
0,172,872,171,293,261,
0,171,859,169,291,259,
0,168,846,167,288,255,
0,178,833,166,286,254,
0,196,902,164,335,252,
0,206,909,163,331,249,
0,204,913,162,327,248,
0,203,915,160,325,246,
0,200,911,159,321,259,
0,199,8867,743,188,255,865,
0,252,734,161,792,163,264,806,
0,260,780,162,263,795,
0,259,766,160,260,783,
0,255,755,159,257,819,
0,254,743,188,255,865,
0,252,734,187,253,851,64,806,
0,260,780,162,263,795,
0,259,766,160,260,783,
0,255,755,159,257,819,
0,254,743,188,255,865,
0,252,734,187,253,851,
0,250,724,185,251,838,
0,248,714,184,249,825,
0,247,705,182,248,811,
0,244,790,180,262,798,
0,243,777,179,259,787,
0,241,766,177,257,775,
0,240,752,176,255,765,
0,238,742,175,252,839,
0,236,732,196,249,825,
0,235,721,195,248,812,
0,232,711,193,246,799,
0,231,703,192,243,788,
0,229,694,190,242,775,
0,227,799,188,263,764,
0,255,787,187,262,753,
0,253,775,185,259,743,
0,251,761,184,257,734,
0,248,751,187,254,803,
0,247,740,184,252,791,
0,244,730,184,249,779,
0,243,720,182,248,768,
0,240,711,180,246,757,
0,239,702,179,251,743,
0,236,831,177,255,734,
0,235,817,176,255,724,
0,233,804,175,252,716,
0,231,790,173,250,707,
0,230,779,188,248,775,
0,227,768,185,246,764,
0,226,757,184,243,753,
0,224,747,183,241,742,
0,222,736,181,240,732,
0,221,730,179,271,719,
0,219,831,178,268,710,
0,231,818,177,265,701,
0,230,806,175,263,692,
0,228,792,174,260,684,
0,226,780,185,259,758,
0,224,768,184,255,747,
0,223,758,183,255,736,
0,221,748,181,252,726,
0,219,737,179,251,716,
0,217,788,177,265,704,
0,216,815,176,263,695,
0,236,803,175,260,686,
0,234,791,173,258,678,
0,231,776,172,255,708,
0,231,766,216,254,743,
0,228,755,214,252,732,
0,227,743,211,249,721,
0,225,734,210,248,711,
1,223,724,207,246,703,
0,221,819,206,260,691,
0,219,806,204,258,682,
0,219,793,203,255,673,
0,217,781,201,254,665,
0,216,768,199,251,756,
0,214,756,199,249,743,
0,212,745,198,248,733,
0,211,736,196,245,723,
1,209,726,195,243,712,
0,207,716,193,241,704,
0,206,822,192,268,691,
0,216,807,190,267,683,
0,226,796,188,263,674,
0,224,783,187,262,665,
0,223,771,224,259,765,
0,220,760,220,257,753,
0,219,749,219,255,742,
0,217,739,216,252,732,
0,216,728,216,251,721,
0,214,719,213,255,710,
0,211,811,211,259,700,
0,237,798,209,257,691,
0,236,785,207,255,682,
0,233,774,206,253,673,
0,231,760,213,251,763,
0,230,750,211,248,752,
0,227,739,209,247,740,
0,226,729,207,244,730,
0,224,719,206,243,719,
0,222,716,204,255,708,
0,220,801,203,253,699,
0,243,789,200,251,689,
0,241,777,199,248,680,
0,239,766,198,247,671,
0,237,752,210,243,744,
0,235,742,208,242,734,
0,233,732,207,240,724,
0,231,722,205,238,713,
0,230,712,203,236,704,
0,227,780,201,257,692,
0,225,812,199,255,684,
0,224,799,198,252,675,
0,222,787,196,250,667,
0,220,775,195,248,696,
0,219,763,199,246,723,
0,216,752,198,243,713,
0,215,742,195,241,704,
0,214,732,195,240,695,
0,211,721,193,238,685,
0,210,817,191,246,673,
0,220,804,190,243,665,
0,222,792,188,241,657,
0,220,780,187,240,649,
0,219,768,185,238,705,
0,216,755,184,236,695,
0,215,744,183,233,685,
0,214,735,182,231,676,
0,211,725,180,230,668,
0,210,715,179,228,659,
0,207,793,177,236,648,
0,207,781,176,235,641,
0,215,769,175,232,633,
0,212,759,174,231,627,
0,211,748,190,229,702,
0,209,735,188,227,692,
0,207,725,186,225,683,
0,206,716,184,224,673,
0,204,706,183,222,664,
0,203,697,182,233,656,
0,201,831,179,243,646,
0,204,819,178,240,638,
0,201,806,177,238,631,
0,199,793,175,236,623,
0,199,783,203,235,696,
0,198,768,200,231,686,
0,196,758,199,230,676,
0,195,748,198,228,668,
0,193,737,195,227,659,
0,192,743,194,248,651,
0,190,831,192,248,639,
0,206,818,191,246,632,
0,204,806,189,243,625,
0,203,793,188,241,617,
0,201,783,194,239,688,
0,199,768,192,237,679,
0,198,758,191,235,670,
0,196,747,189,233,661,
0,195,737,188,231,652,
0,193,801,187,239,644,
0,192,828,184,237,635,
0,212,816,183,235,627,
0,210,803,182,233,619,
0,207,792,180,231,652,
0,207,780,193,230,688,
0,204,766,192,227,678,
0,203,755,190,225,669,
0,201,744,188,224,660,
0,199,735,187,222,652,
0,198,835,185,240,643,
0,208,822,184,238,633,
0,212,808,182,236,626,
0,211,796,180,233,619,
0,209,784,179,231,696,
0,207,774,177,230,684,
0,206,760,176,227,675,
0,204,749,175,225,666,
0,202,739,174,224,657,
0,200,729,172,222,649,
0,199,834,171,236,641,
0,199,820,169,234,632,
0,198,807,168,231,624,
0,196,796,167,230,615,
0,195,784,216,228,699,
0,193,770,212,227,688,
0,192,760,210,224,679,
0,191,749,208,222,670,
0,189,739,207,220,662,
0,188,729,205,227,654,
0,186,807,204,233,644,
0,207,795,201,231,635,
0,206,783,199,230,627,
0,204,771,198,228,620,
0,203,761,196,226,702,
0,200,748,195,224,692,
0,199,737,193,222,683,
0,198,728,192,220,673,
0,196,718,191,219,665,
0,194,718,190,236,656,
0,192,804,188,234,647,
0,195,792,185,231,638,
0,193,780,184,231,631,
0,192,768,183,228,623,
0,191,758,184,226,711,
0,189,744,183,224,702,
0,188,734,182,222,692,
0,186,723,180,220,683,
0,184,715,179,219,674,
0,184,769,177,231,665,
0,185,788,176,229,657,
0,231,775,175,227,647,
0,230,764,173,225,639,
0,227,753,172,224,676,
0,225,743,202,222,716,
0,224,730,199,220,705,
0,222,720,199,217,696,
0,220,711,196,216,687,
0,218,702,195,215,678,
0,217,793,193,249,669,
0,215,780,192,247,660,
0,213,769,190,244,650,
0,211,758,188,242,642,
0,209,747,188,240,736,
0,207,737,203,239,723,
0,206,724,201,236,713,
0,205,715,199,233,704,
0,204,705,198,231,695,
0,202,696,196,231,686,
0,199,774,195,236,676,
0,199,762,193,235,668,
0,198,751,192,231,657,
0,196,740,190,231,649,
0,195,729,190,228,744,
0,193,719,188,227,733,
0,192,707,187,224,723,
0,190,699,185,223,712,
0,189,690,184,221,704,
0,188,681,183,231,695,
0,187,792,182,235,686,
0,221,780,179,232,676,
0,219,768,178,231,665,
0,216,758,177,228,657,
0,215,747,176,227,752,
0,213,736,174,225,740,
0,211,723,173,224,730,
0,209,715,172,221,719,
0,207,705,170,219,710,
0,206,732,169,231,701,
0,204,818,167,229,691,
0,206,806,167,227,683,
0,204,793,166,225,671,
0,202,782,164,224,664,
0,200,771,163,222,764,
0,199,760,162,220,752,
0,198,747,161,217,742,
0,196,736,159,216,731,
0,195,727,159,215,721,
0,193,783,158,233,711,
0,192,805,156,231,703,
0,217,793,155,230,693,
0,216,781,154,227,682,
0,214,770,153,225,719,
0,211,760,172,224,770,
0,210,748,169,222,759,
0,208,736,168,220,748,
0,207,726,167,217,737,
0,205,716,166,216,728,
0,204,814,164,233,718,
0,201,800,163,231,708,
0,222,788,161,229,696,
0,220,776,160,227,688,
0,219,766,162,225,787,
0,216,755,177,223,777,
0,215,744,176,222,766,
0,213,732,174,220,755,
0,211,721,173,217,743,
0,209,712,171,216,734,
0,207,807,169,237,724,
0,207,794,168,235,714,
0,213,782,167,232,705,
0,211,771,166,231,694,
0,209,760,196,229,795,
0,207,749,193,227,782,
0,206,739,192,225,771,
0,204,726,190,223,760,
0,203,716,188,221,749,
0,201,707,187,231,739,
0,199,799,185,236,729,
0,199,787,184,233,719,
0,198,775,182,231,707,
0,196,764,180,230,698,
0,195,755,203,228,793,
0,193,743,200,226,781,
0,192,733,199,224,770,
0,191,720,198,222,760,
0,190,711,195,220,748,
0,188,716,195,242,738,
0,187,806,192,240,728,
0,210,793,191,238,718,
0,207,782,189,236,707,
0,206,770,188,234,697,
0,204,760,216,231,796,
0,202,748,214,230,783,
0,200,739,211,228,772,
0,199,726,209,226,761,
0,198,716,207,224,751,
0,196,782,206,239,740,
0,194,806,204,237,731,
0,199,793,203,235,721,
0,196,782,200,232,709,
0,195,770,199,231,755,
0,193,760,213,229,793,
0,192,748,211,227,782,
0,191,739,209,225,771,
0,189,726,207,224,760,
0,188,716,206,222,749,
0,187,825,204,235,739,
0,185,811,203,232,728,
0,198,799,201,231,719,
0,196,787,199,228,707,
0,194,775,204,227,805,
0,193,764,221,225,792,
0,191,753,219,224,780,
0,190,743,217,222,768,
0,188,731,216,220,758,
0,187,721,214,217,747,
0,185,796,211,224,737,
0,184,783,210,222,727,
0,199,772,208,220,717,
0,196,761,206,218,705,
0,195,750,207,216,796,
0,193,739,205,215,783,
0,192,729,204,214,772,
0,190,719,202,211,760,
0,188,708,200,210,750,
0,187,700,199,220,740,
0,185,805,198,233,729,
0,196,792,196,231,719,
0,211,780,195,229,711,
0,209,769,193,227,699,
0,207,759,199,225,795,
0,206,748,196,224,783,
0,204,737,195,222,771,
0,203,728,193,220,760,
0,201,716,192,217,750,
0,199,722,191,235,739,
0,198,803,189,233,729,
0,216,792,188,231,719,
0,214,780,186,230,711,
0,212,768,184,227,699,
0,210,758,193,226,795,
0,208,747,192,224,783,
0,207,736,190,222,771,
0,205,727,188,220,760,
0,204,715,187,219,750,
0,202,785,185,231,739,
0,199,822,184,228,729,
0,204,809,183,226,719,
0,202,797,181,224,711,
0,200,785,179,223,750,
0,199,774,178,221,796,
0,198,763,176,219,784,
0,195,752,176,217,773,
0,194,742,174,216,762,
0,193,729,173,214,752,
0,192,845,172,235,741,
0,190,831,170,231,731,
0,225,817,169,231,721,
0,223,805,167,228,711,
0,221,793,167,227,809,
0,220,782,182,224,801,
0,217,771,180,223,790,
0,216,760,179,221,777,
0,214,749,177,219,767,
0,212,736,176,217,756,
0,211,844,174,231,745,
0,209,831,173,231,736,
0,207,817,172,228,726,
0,205,805,171,227,716,
0,204,793,176,224,815,
0,202,782,174,223,801,
0,200,771,173,221,790,
0,199,760,172,219,778,
0,198,747,170,217,768,
0,196,737,168,221,756,
0,195,860,167,230,745,
0,211,846,166,228,736,
0,210,832,165,227,726,
0,207,819,163,224,716,
0,206,807,175,223,816,
0,204,796,174,221,803,
0,203,783,172,219,792,
0,201,773,171,217,780,
0,199,760,169,216,769,
0,198,776,167,236,758,
0,196,854,167,233,747,
0,195,839,166,231,737,
0,193,827,164,230,728,
0,192,814,163,227,718,
0,191,803,198,225,814,
0,188,791,195,224,801,
0,187,779,194,222,789,
0,186,768,192,220,777,
0,184,755,191,219,768,
0,184,811,189,225,756,
0,182,833,188,224,745,
0,181,820,186,222,736,
0,179,807,184,220,726,
0,179,796,183,218,716,
0,177,783,189,216,809,
0,176,772,188,215,797,
0,175,761,185,213,785,
0,174,751,184,211,774,
0,172,739,183,209,763,
0,171,845,182,227,752,
0,170,830,179,225,742,
0,175,817,178,223,732,
0,173,805,177,221,722,
0,172,793,176,220,750,
0,171,781,179,217,799,
0,169,770,177,216,787,
0,167,760,176,214,775,
0,167,749,175,212,764,
0,166,736,174,211,754,
0,164,856,172,229,743,
0,169,843,171,227,734,
0,191,829,169,225,723,
0,190,816,167,223,714,
0,187,804,184,222,803,
0,185,792,182,220,790,
0,184,781,180,217,778,
0,183,769,179,216,768,
0,181,760,177,214,756,
0,179,746,176,212,745,
0,178,836,174,222,736,
0,205,823,173,220,726,
0,204,809,172,218,716,
0,202,798,170,216,707,
0,199,787,190,215,799,
0,199,775,188,212,783,
0,197,764,185,211,772,
0,195,753,184,209,760,
0,193,743,183,207,750,
0,192,747,182,212,740,
0,191,849,179,220,729,
0,196,835,179,218,719,
0,195,823,177,216,711,
0,193,809,176,214,702,
0,192,798,187,212,801,
0,190,786,185,211,785,
0,188,775,184,209,774,
0,187,764,182,207,763,
0,185,753,180,206,752,
0,184,816,179,228,742,
0,183,838,178,227,732,
0,209,824,176,224,722,
0,207,812,175,223,712,
0,205,799,174,220,704,
0,203,788,184,219,801,
0,201,776,182,217,786,
0,199,766,180,216,775,
0,198,755,179,214,764,
0,196,745,177,211,753,
0,195,876,176,231,743,
0,193,876,175,229,732,
0,230,862,174,227,723,
0,227,847,172,225,713,
0,225,835,171,224,742,
0,223,822,177,222,796,
0,221,809,175,220,780,
0,220,798,174,217,769,
0,217,787,172,216,759,
0,216,775,171,215,748,
0,215,856,169,218,737,
0,212,841,167,216,728,
0,214,828,167,215,718,
0,212,816,166,213,708,
0,210,803,172,211,799,
0,207,792,199,209,782,
0,207,780,196,207,771,
0,205,769,195,207,760,
0,204,759,193,205,749,
0,202,749,192,204,739,
0,199,838,190,227,728,
0,229,824,188,225,719,
0,227,811,187,224,710,
0,225,799,185,222,700,
0,223,788,194,220,794,
0,220,775,192,219,779,
0,219,765,190,216,768,
0,217,754,188,215,756,
0,216,744,187,213,745,
0,214,735,185,219,736,
0,212,839,184,236,725,
0,211,825,183,233,716,
0,209,813,181,231,706,
0,207,800,179,230,697,
0,206,790,199,228,788,
0,204,777,197,226,774,
0,202,766,195,224,763,
0,200,755,194,223,752,
0,199,745,192,221,742,
0,198,737,191,232,731,
0,196,831,189,231,721,
0,216,819,188,228,711,
0,214,807,186,226,702,
0,211,795,184,224,694,
0,210,783,184,223,787,
0,207,771,182,220,772,
0,206,760,179,219,761,
0,204,750,179,217,750,
0,203,740,177,216,740,
0,201,806,176,233,729,
0,199,842,175,231,719,
0,199,828,174,229,711,
0,198,816,172,227,701,
0,196,803,171,225,729,
0,195,792,203,224,789,
0,193,780,200,222,774,
0,192,769,199,220,764,
0,190,759,198,217,752,
0,188,748,195,216,742,
0,188,859,194,218,732,
0,192,843,192,216,722,
0,192,830,191,215,712,
0,191,816,189,212,703,
0,189,804,188,211,788,
0,188,792,187,209,790,
0,185,781,185,207,775,
0,184,770,184,206,764,
0,183,760,183,204,753,
0,182,749,181,203,743,
0,180,876,179,235,732,
0,188,856,179,231,723,
0,187,843,177,231,713,
0,185,829,176,228,704,
0,184,817,174,226,807,
0,182,804,173,224,795,
0,180,793,172,223,780,
0,179,782,170,221,768,
0,178,771,168,219,758,
0,176,760,167,225,747,
0,175,862,167,231,737,
0,211,844,165,228,727,
0,209,830,163,226,717,
0,207,817,163,224,707,
0,206,806,185,223,808,
0,203,793,184,220,796,
0,201,782,181,219,781,
0,199,771,179,217,770,
0,198,760,178,216,759,
0,196,764,177,234,748,
0,195,859,176,233,738,
0,228,841,174,231,728,
0,225,828,172,229,719,
0,224,815,171,227,709,
0,222,803,181,225,804,
0,220,792,179,223,792,
0,217,780,177,221,777,
0,216,769,176,220,766,
0,214,759,175,217,755,
0,212,815,173,238,745,
0,211,861,172,236,735,
0,211,844,170,233,725,
0,209,831,169,231,716,
0,207,817,167,229,745,
0,206,806,167,227,799,
0,204,793,166,225,787,
0,202,783,164,224,772,
0,199,771,163,222,761,
0,199,760,162,220,751,
0,198,871,161,239,740,
0,221,864,159,236,730,
0,231,847,159,233,720,
0,230,833,159,231,711,
0,227,821,166,230,802,
0,226,808,204,228,796,
0,224,796,201,226,783,
0,222,785,199,224,770,
0,220,774,198,223,760,
0,218,764,196,221,749,
0,216,866,195,231,738,
0,220,847,193,229,728,
0,220,834,192,227,719,
0,218,822,190,224,709,
0,216,809,193,223,804,
0,215,797,192,221,792,
0,212,785,190,219,780,
0,211,775,188,217,765,
0,209,764,186,216,755,
0,207,753,185,220,744,
0,206,854,184,228,734,
0,213,836,182,226,724,
0,211,824,180,224,715,
0,210,811,179,222,705,
0,207,799,186,220,799,
0,206,787,184,219,787,
0,204,775,183,216,775,
0,203,765,180,215,761,
0,201,755,179,214,751,
0,199,745,178,228,740,
0,199,843,176,227,730,
0,231,826,175,224,720,
0,230,813,174,222,711,
0,227,801,172,220,702,
0,225,789,176,219,799,
0,224,777,175,216,787,
0,222,768,173,215,775,
0,220,756,172,214,760,
0,217,745,171,211,751,
0,216,814,169,222,739,
0,215,844,167,220,729,
0,213,828,167,219,719,
0,211,816,166,216,711,
0,210,803,164,215,745,
0,208,792,176,212,803,
0,207,780,175,211,792,
0,204,769,173,209,779,
0,203,759,172,207,765,
0,201,748,171,206,755,
0,199,859,169,227,743,
0,220,844,167,225,734,
0,231,827,167,223,724,
0,230,814,166,220,715,
0,227,802,165,219,804,
0,225,790,195,216,799,
0,224,779,194,215,786,
0,222,768,192,214,775,
0,220,757,190,211,761,
0,218,747,188,210,751,
0,216,847,187,228,739,
0,216,833,185,226,730,
0,214,816,184,224,719,
0,212,804,183,222,711,
0,211,792,193,220,807,
0,209,781,192,218,793,
0,207,769,190,216,782,
0,206,760,188,215,771,
0,204,748,187,213,757,
0,203,739,185,219,747,
0,200,856,184,227,736,
0,211,841,182,226,726,
0,211,824,180,224,716,
0,209,812,179,221,707,
0,207,799,177,220,809,
0,205,787,176,217,797,
0,204,776,175,216,785,
0,201,766,173,214,774,
0,199,755,172,212,760,
0,199,750,171,226,750,
0,196,841,169,224,739,
0,207,827,167,222,729,
0,207,812,167,220,719,
0,204,799,166,217,710,
0,203,787,184,216,802,
0,201,775,182,215,790,
0,199,765,179,212,777,
0,198,754,178,211,767,
0,196,743,176,209,753,
0,195,810,175,225,743,
0,193,843,174,223,732,
0,210,830,172,221,723,
0,207,814,171,219,713,
0,206,801,169,217,745,
0,204,790,183,216,796,
0,203,779,182,214,784,
0,201,768,179,211,774,
0,199,756,178,210,762,
0,198,745,176,208,749,
0,195,852,175,224,738,
0,198,837,174,222,728,
0,202,824,172,220,719,
0,200,808,171,217,709,
0,199,796,169,216,799,
0,197,783,185,215,789,
0,195,774,184,212,777,
0,194,762,182,211,766,
0,192,752,179,209,755,
0,191,742,179,207,743,
0,190,847,177,222,732,
0,198,833,176,220,722,
0,199,820,174,217,712,
0,198,804,172,216,703,
0,196,793,185,214,796,
0,195,781,183,211,783,
0,193,770,182,211,772,
0,192,760,179,208,761,
0,190,749,178,207,748,
0,197,739,176,209,737,
0,195,851,175,217,728,
0,204,838,174,216,718,
0,203,824,172,213,708,
0,201,808,171,211,699,
0,199,797,169,209,793,
0,198,784,167,207,781,
0,196,774,167,206,769,
0,195,763,166,204,759,
0,192,752,164,203,745,
0,192,742,163,217,736,
0,190,833,162,217,726,
0,214,820,161,216,716,
0,211,807,159,214,706,
0,209,792,158,211,697,
0,208,780,177,209,795,
0,207,770,175,208,783,
0,204,760,174,206,771,
0,203,748,172,205,760,
0,201,739,171,203,748,
0,199,797,169,230,737,
0,198,828,167,227,728,
0,234,816,167,225,717,
0,231,803,165,224,707,
0,230,788,163,222,739,
0,227,776,166,220,794,
0,225,766,164,217,782,
0,224,755,163,216,771,
0,222,744,162,214,760,
0,220,734,160,212,747,
0,218,848,159,227,736,
0,216,833,158,225,726,
0,220,820,156,224,716,
0,219,807,156,222,707,
0,216,792,155,220,799,
0,215,781,176,217,792,
0,212,769,174,216,780,
0,211,759,172,214,769,
0,209,748,171,212,758,
0,207,738,169,211,745,
0,206,846,167,219,735,
0,205,831,167,216,724,
0,204,819,166,215,715,
0,203,806,163,213,705,
0,201,792,180,211,800,
0,199,780,179,209,787,
0,198,769,177,207,775,
0,196,758,175,206,765,
0,195,748,174,204,754,
0,193,737,172,211,741,
0,192,856,171,224,731,
0,193,840,169,221,720,
0,192,828,167,220,711,
0,190,815,167,217,702,
0,189,799,194,216,796,
0,187,787,192,213,783,
0,185,776,191,211,772,
0,184,766,189,210,760,
0,183,755,187,208,750,
0,182,749,185,213,737,
0,180,841,184,211,728,
0,230,828,183,210,718,
0,227,815,180,208,708,
0,225,803,179,207,699,
0,223,788,178,204,792,
0,221,776,176,203,780,
0,219,766,176,201,768,
0,217,755,174,199,757,
0,216,744,172,199,747,
0,214,804,171,212,734,
0,212,838,169,210,723,
0,210,824,167,208,714,
0,208,812,167,207,704,
0,207,799,166,205,735,
0,206,784,178,203,787,
0,204,774,176,201,775,
0,202,762,175,199,764,
0,200,752,174,199,753,
0,199,742,172,197,743,
0,198,862,171,220,730,
0,199,850,169,217,720,
0,207,836,167,216,711,
0,205,824,166,214,702,
0,204,811,165,212,793,
0,201,796,176,210,787,
0,199,783,174,208,775,
0,199,773,172,207,764,
0,196,762,171,205,752,
0,195,752,169,204,743,
0,193,855,167,218,729,
0,194,840,167,216,719,
0,193,827,166,215,710,
0,192,814,164,212,700,
0,191,799,172,211,796,
0,189,787,171,208,783,
0,188,775,169,207,772,
0,186,765,167,205,760,
0,184,755,167,204,750,
0,184,744,165,211,740,
0,183,860,163,224,727,
0,225,846,162,222,717,
0,223,831,161,220,707,
0,221,819,159,219,699,
0,219,804,159,216,791,
0,217,792,158,215,779,
0,216,781,157,213,768,
0,214,770,156,211,756,
0,211,760,155,209,745,
0,209,749,153,224,736,
0,208,836,152,222,723,
0,207,823,152,220,712,
0,205,810,150,217,704,
0,204,798,149,216,695,
0,202,783,169,215,788,
0,199,772,167,212,776,
0,199,761,167,210,765,
0,198,751,166,209,754,
0,195,740,164,207,743,
0,194,792,163,214,734,
0,192,831,161,212,721,
0,207,819,159,210,711,
0,206,807,159,208,702,
0,204,795,158,207,733,
0,202,780,172,205,784,
0,199,769,171,203,773,
0,199,758,169,201,761,
0,198,748,167,199,751,
0,195,737,167,199,740,
0,194,825,165,209,731,
0,192,811,163,207,718,
0,192,798,163,206,708,
0,190,786,161,204,699,
0,188,775,159,202,792,
0,187,761,175,199,782,
0,185,751,174,199,771,
0,184,740,172,197,760,
0,183,730,171,195,748,
0,182,720,169,194,739,
0,180,841,167,222,728,
0,179,828,167,220,716,
0,185,815,166,217,707,
0,184,802,163,216,697,
0,183,791,185,215,792,
0,181,775,184,212,779,
0,179,765,182,211,768,
0,178,754,180,208,756,
0,177,743,179,207,746,
0,179,734,177,214,736,
0,183,864,176,223,726,
0,182,850,174,222,713,
0,180,836,172,220,704,
0,179,824,171,217,696,
0,177,812,172,216,781,
0,176,796,170,214,769,
0,175,784,168,211,758,
0,174,774,167,210,747,
0,172,763,167,208,737,
0,172,756,165,224,728,
0,170,850,163,223,717,
0,225,836,162,221,705,
0,223,823,161,219,696,
0,220,810,159,217,688,
0,219,799,159,216,769,
0,216,783,158,213,758,
0,215,772,156,211,747,
0,213,761,155,209,736,
0,211,751,153,208,726,
0,209,807,152,217,716,
0,207,836,152,216,707,
0,210,823,150,214,695,
0,208,810,150,212,686,
0,207,798,148,210,721,
0,205,787,148,208,760,
0,204,772,147,207,749,
0,202,761,145,205,737,
0,199,751,145,204,728,
0,199,740,143,201,718,
0,198,844,143,225,708,
0,196,828,142,223,699,
0,195,816,140,220,688,
0,193,803,140,219,679,
0,192,792,139,217,772,
0,191,780,154,216,760,
0,189,766,152,212,748,
0,188,755,152,211,737,
0,187,744,151,209,728,
0,185,735,149,207,718,
0,187,871,147,217,707,
0,201,856,146,216,696,
0,206,841,145,213,687,
0,204,828,144,212,678,
0,201,816,166,210,774,
0,200,803,188,208,761,
0,199,788,185,206,751,
0,198,777,184,204,740,
0,195,768,183,203,729,
0,194,756,181,206,719,
0,193,858,179,211,710,
0,225,844,178,209,698,
0,225,830,176,207,689,
0,224,817,175,206,680,
0,222,806,174,204,777,
0,220,793,172,203,766,
0,217,779,171,200,755,
0,216,768,169,199,743,
0,214,758,167,198,734,
0,212,748,167,217,724,
0,211,841,166,216,714,
0,223,827,164,215,702,
0,220,815,163,212,694,
0,219,802,161,211,684,
0,217,792,163,209,779,
0,216,779,162,207,768,
0,214,766,161,205,755,
0,211,755,159,204,745,
0,210,744,159,202,735,
0,208,826,158,216,725,
0,207,871,156,214,715,
0,211,857,155,212,703,
0,209,844,153,211,694,
0,207,830,152,209,726,
0,206,817,159,207,781,
0,204,806,159,206,769,
0,202,791,158,204,758,
0,200,780,156,201,748,
0,199,768,155,199,737,
0,198,856,153,210,728,
0,196,840,152,207,718,
0,246,827,151,206,705,
0,243,815,150,204,696,
0,241,802,148,203,789,
0,239,790,151,201,777,
0,237,779,149,199,766,
0,235,765,147,198,755,
0,233,755,147,196,744,
0,231,744,145,195,735,
0,230,811,144,213,724,
0,227,798,143,211,715,
0,225,786,142,209,703,
0,224,775,141,207,694,
0,222,763,145,206,788,
0,220,752,143,204,775,
0,219,742,143,203,764,
0,217,729,142,200,753,
0,216,719,140,199,743,
0,214,711,140,210,734,
0,212,774,173,221,723,
0,211,761,171,220,713,
0,209,750,169,217,702,
0,207,739,167,216,692,
0,206,729,167,214,779,
0,204,719,165,211,767,
0,203,710,163,211,755,
0,201,699,163,207,744,
0,199,690,161,207,735,
0,199,699,159,220,724,
0,197,808,159,217,715,
0,216,796,157,216,705,
0,214,783,156,214,694,
0,211,772,155,212,684,
0,210,761,157,211,775,
0,207,750,156,209,764,
0,206,739,154,207,753,
0,205,728,153,205,742,
0,203,718,152,204,732,
0,201,781,151,216,722,
0,199,824,150,214,711,
0,248,812,148,211,703,
0,246,799,147,210,691,
0,243,787,146,208,723,
0,241,776,145,207,772,
0,239,765,143,205,761,
0,237,754,143,204,750,
0,235,742,142,201,739,
0,233,732,140,199,729,
0,231,857,140,211,719,
0,230,850,139,209,710,
0,242,836,137,207,700,
0,240,824,135,206,689,
0,238,811,135,204,781,
0,236,799,136,203,768,
0,233,787,135,201,758,
0,231,775,135,199,747,
0,230,763,134,198,736,
0,228,752,132,196,727,
0,227,877,176,206,716,
0,225,861,208,204,707,
0,223,847,207,202,697,
0,221,833,204,199,686,
0,220,821,203,199,775,
0,217,808,201,198,763,
0,216,796,199,195,752,
0,215,782,198,195,741,
0,213,771,195,192,731,
0,211,760,195,214,721,
0,210,879,193,224,711,
0,211,864,192,222,702,
0,209,849,190,220,692,
0,207,836,188,218,681,
0,206,824,187,216,772,
0,204,811,185,215,760,
0,203,799,184,213,750,
0,201,785,183,211,739,
0,199,774,181,209,728,
0,199,783,179,211,719,
0,198,880,179,210,709,
0,207,865,177,208,700,
0,205,851,176,207,691,
0,204,838,174,205,679,
0,202,825,172,204,768,
0,199,812,171,201,756,
0,199,800,170,199,745,
0,197,787,169,199,735,
0,195,775,167,197,724,
0,194,849,167,209,715,
0,193,896,173,207,705,
0,254,878,172,206,696,
0,250,864,170,204,687,
0,248,850,168,202,712,
0,246,837,167,199,764,
0,243,824,166,199,753,
0,241,812,164,198,742,
0,240,797,163,195,732,
0,238,786,162,194,722,
0,236,881,161,211,711,
0,233,884,159,210,703,
0,231,868,159,207,694,
0,230,855,157,207,684,
0,228,841,156,204,772,
0,227,828,155,203,762,
0,225,816,154,201,752,
0,224,804,153,199,741,
0,222,790,152,199,731,
0,220,779,151,196,721,
0,219,890,150,219,711,
0,217,877,148,216,702,
0,216,862,147,215,692,
0,214,848,146,213,684,
0,212,835,145,211,775,
0,211,823,144,209,764,
0,209,811,143,207,752,
0,207,799,142,206,742,
0,206,783,142,204,732,
0,204,774,140,210,722,
0,203,897,140,224,711,
0,206,888,138,222,703,
0,208,871,137,220,694,
0,207,857,135,217,684,
0,205,844,135,216,774,
0,203,831,135,214,762,
0,201,819,134,212,751,
0,199,807,132,211,740,
0,199,792,131,209,731,
0,198,797,131,219,720,
0,195,885,130,220,711,
0,195,870,129,219,701,
0,193,856,127,216,692,
0,192,841,127,215,683,
0,190,829,126,212,772,
0,188,816,126,211,760,
0,188,804,124,209,750,
0,185,792,124,207,739,
0,184,778,123,206,728,
0,184,840,122,222,719,
0,183,879,167,220,709,
0,211,864,164,218,700,
0,208,850,163,216,691,
0,206,837,161,215,681,
0,204,824,162,212,771,
0,203,812,160,211,760,
0,201,799,159,209,748,
0,199,788,158,207,738,
0,198,775,156,206,728,
0,197,871,156,233,718,
0,195,857,154,231,708,
0,193,844,153,230,699,
0,192,831,152,227,690,
0,190,817,150,225,712,
0,188,806,149,224,775,
0,187,793,148,222,764,
0,186,782,147,220,753,
0,184,771,145,218,743,
0,183,758,144,216,733,
0,182,868,143,228,723,
0,190,854,142,227,712,
0,225,839,141,224,704,
0,223,827,140,223,695,
0,220,814,139,221,783,
0,219,801,138,219,770,
0,216,790,137,217,760,
0,215,779,135,216,748,
0,214,768,135,214,738,
0,211,755,134,222,728,
0,210,866,133,227,718,
0,220,851,131,225,708,
0,224,838,131,223,699,
0,222,824,130,221,690,
0,219,812,129,220,783,
0,217,799,127,217,771,
0,216,788,127,216,760,
0,214,777,126,215,750,
0,212,766,125,212,739,
0,210,764,124,228,729,
0,208,857,124,227,719,
0,216,844,123,224,709,
0,216,830,121,223,700,
0,215,817,121,221,691,
0,212,806,120,219,783,
0,211,793,120,217,772,
0,209,782,119,216,761,
0,207,771,118,214,750,
0,206,760,117,212,739,
0,204,816,116,234,729,
0,203,848,115,231,719,
0,236,834,115,230,710,
0,233,822,114,227,700,
0,231,809,113,226,691,
0,229,797,135,224,780,
0,227,785,135,222,768,
0,225,774,134,220,758,
0,224,763,133,219,747,
0,222,752,131,216,736,
0,220,816,131,236,727,
0,219,802,129,233,716,
0,225,790,128,231,707,
0,223,778,127,229,697,
0,221,768,127,227,724,
0,219,756,125,225,774,
0,217,745,124,224,762,
0,216,736,123,222,751,
0,214,726,122,220,740,
0,211,717,121,218,731,
0,211,833,120,246,720,
0,211,819,120,243,711,
0,216,806,119,241,701,
0,215,795,118,239,692,
0,213,783,117,237,781,
0,211,771,129,235,771,
0,209,760,127,233,760,
0,207,750,127,231,749,
0,206,739,126,230,739,
0,204,729,125,227,729,
0,203,827,127,232,719,
0,205,814,127,231,709,
0,207,801,125,228,700,
0,206,790,124,227,691,
0,204,778,124,225,787,
0,201,767,123,223,771,
0,199,755,121,222,760,
0,199,745,120,220,749,
0,197,735,120,217,739,
0,195,726,119,219,728,
0,195,798,118,235,718,
0,193,785,116,232,708,
0,192,774,115,231,700,
0,190,763,115,228,691,
0,188,752,114,227,781,
0,187,741,113,225,766,
0,185,731,113,223,755,
0,184,721,112,222,743,
0,183,711,111,220,734,
0,182,703,111,251,723,
0,180,796,110,251,713,
0,196,783,109,248,704,
0,195,772,108,246,696,
0,193,761,108,244,687,
0,192,751,116,242,776,
0,190,740,115,240,763,
0,188,729,114,238,752,
0,187,719,113,236,741,
0,185,711,112,235,731,
0,184,755,112,237,720,
0,183,801,111,234,711,
0,192,789,110,231,702,
0,191,777,109,231,692,
0,190,766,108,229,723,
0,187,755,121,227,777,
0,185,744,120,225,763,
0,184,734,120,224,752,
0,183,724,118,222,740,
0,182,715,117,220,731,
0,180,815,116,231,720,
0,184,798,115,230,711,
0,192,786,115,227,702,
0,190,775,113,225,692,
0,189,763,112,224,775,
0,187,752,135,222,764,
0,185,742,132,220,750,
0,184,732,131,219,739,
0,183,721,131,216,729,
0,181,712,129,215,719,
0,179,804,127,230,710,
0,178,792,127,227,700,
0,177,780,126,225,691,
0,176,768,125,224,682,
0,174,758,150,222,771,
0,173,746,147,220,760,
0,172,736,145,218,745,
0,171,726,143,216,736,
0,169,716,143,215,725,
0,167,707,142,223,716,
0,167,816,140,243,705,
0,166,803,140,240,696,
0,165,792,179,238,688,
0,163,780,177,236,679,
0,163,768,176,234,775,
0,161,757,174,231,763,
0,160,747,172,230,750,
0,159,736,171,228,739,
0,158,727,169,227,728,
0,158,717,167,246,719,
0,156,822,167,243,709,
0,161,808,166,241,700,
0,159,796,164,239,691,
0,158,783,163,237,681,
0,158,773,162,235,774,
0,156,761,160,233,761,
0,155,751,159,231,748,
0,153,740,158,230,737,
0,152,731,156,227,728,
0,152,779,156,238,717,
0,151,819,155,236,707,
0,159,807,153,233,698,
0,158,794,152,231,689,
0,156,783,151,230,716,
0,155,771,150,227,771,
0,153,760,148,225,760,
0,152,750,147,224,747,
0,152,739,146,222,736,
0,150,729,145,220,727,
0,150,838,143,241,716,
0,148,824,143,239,707,
0,150,811,142,236,697,
0,148,798,141,233,688,
0,147,787,140,231,768,
0,146,775,139,230,756,
0,145,764,137,228,745,
0,143,753,136,227,732,
0,143,743,135,224,722,
0,142,733,135,223,712,
0,141,824,134,230,703,
0,140,807,132,227,694,
0,140,795,131,225,684,
0,139,783,131,224,676,
0,137,771,130,222,770,
0,137,760,129,220,758,
0,135,750,127,218,747,
0,135,739,127,216,734,
0,134,729,126,215,723,
0,134,719,125,216,714,
0,132,823,124,227,704,
0,143,806,123,225,696,
0,143,794,123,223,686,
0,142,783,121,221,678,
0,140,771,126,219,771,
0,140,760,124,217,760,
0,137,749,123,216,748,
0,136,739,122,214,735,
0,135,728,121,212,725,
0,135,719,120,227,715,
0,134,799,120,227,705,
0,134,784,119,225,696,
0,133,773,118,223,688,
0,131,762,117,221,679,
0,131,751,135,219,770,
0,130,740,134,217,758,
0,129,730,131,216,747,
0,127,719,131,214,734,
0,127,711,129,212,724,
0,127,756,129,225,714,
0,126,806,127,224,704,
0,145,791,127,221,696,
0,143,779,126,220,687,
0,142,768,125,217,713,
0,141,756,124,216,769,
0,140,745,123,214,758,
0,138,736,121,212,747,
0,137,726,121,211,734,
0,135,716,120,209,723,
0,135,816,119,229,713,
0,140,801,118,227,704,
0,161,786,118,224,695,
0,159,775,116,223,686,
0,159,764,115,221,772,
0,158,752,120,219,765,
0,156,742,119,217,753,
0,155,732,118,216,743,
0,153,721,117,214,730,
0,152,711,116,212,720,
0,151,843,115,232,711,
0,167,828,114,231,700,
0,172,812,113,228,691,
0,170,799,113,226,683,
0,169,788,112,224,767,
0,167,776,111,222,755,
0,166,766,110,220,743,
0,164,755,110,219,731,
0,163,744,109,217,721,
0,162,734,108,220,711,
0,160,819,108,233,701,
0,159,807,107,231,691,
0,159,791,106,229,683,
0,158,779,105,227,675,
0,157,768,104,225,772,
0,156,757,103,224,760,
0,155,747,103,222,749,
0,152,736,103,220,736,
0,152,727,102,217,726,
0,151,717,101,225,716,
0,150,804,100,224,706,
0,157,792,99,222,697,
0,156,780,99,220,688,
0,155,769,99,218,679,
0,153,758,124,216,778,
0,152,747,122,215,767,
0,151,736,121,213,755,
0,150,724,120,211,744,
0,148,715,119,209,734,
0,147,752,118,231,724,
0,146,796,117,228,713,
0,158,783,116,226,704,
0,156,772,115,224,694,
0,154,761,114,222,719,
0,153,751,127,220,792,
0,152,739,127,219,780,
0,151,729,126,217,768,
0,150,718,125,215,758,
0,148,707,124,213,747,
0,147,807,123,231,736,
0,146,793,121,228,727,
0,145,780,121,227,716,
0,143,769,120,225,705,
0,143,758,119,223,788,
0,142,748,118,221,798,
0,141,737,116,220,785,
0,140,727,116,217,774,
0,139,715,115,216,763,
0,137,705,114,214,752,
0,137,792,113,233,742,
0,135,780,112,231,732,
0,161,768,112,229,721,
0,159,758,111,227,710,
0,158,747,131,225,807,
0,157,736,129,224,793,
0,156,726,127,222,781,
0,155,716,127,220,769,
0,153,704,126,217,760,
0,152,696,125,218,748,
0,151,792,124,230,738,
0,152,780,123,227,728,
0,157,768,122,225,718,
0,156,758,120,224,707,
0,155,747,157,222,782,
0,153,736,155,220,770,
0,152,726,153,219,759,
0,151,716,152,216,748,
0,150,704,151,215,737,
0,148,696,150,231,728,
0,147,798,148,233,718,
0,148,785,147,231,707,
0,147,774,146,230,699,
0,146,763,144,227,688,
0,145,752,163,226,784,
0,143,741,162,224,772,
0,143,731,160,223,761,
0,142,720,159,220,751,
0,140,708,158,219,740,
0,140,752,156,231,729,
0,139,789,155,229,719,
0,189,777,153,227,710,
0,187,766,153,225,701,
0,185,755,152,224,727,
0,184,743,151,222,777,
0,182,734,149,220,766,
0,180,723,147,217,755,
0,179,713,147,216,743,
0,177,702,145,215,734,
0,176,783,144,231,723,
0,175,771,143,229,713,
0,173,760,143,227,704,
0,172,748,141,225,696,
0,170,737,140,224,781,
0,169,728,140,221,768,
0,167,717,139,220,756,
0,167,707,137,217,745,
0,165,698,136,216,735,
0,164,688,135,214,726,
0,163,803,135,232,715,
0,161,790,134,231,705,
0,165,777,132,228,696,
0,163,766,131,227,688,
0,162,755,137,225,771,
0,161,744,135,223,760,
0,159,734,135,221,748,
0,159,724,134,219,737,
0,157,715,132,217,728,
0,156,703,131,216,718,
0,155,807,131,231,707,
0,153,795,129,229,699,
0,159,783,128,227,689,
0,158,771,127,225,680,
0,156,761,166,223,778,
0,155,750,163,221,766,
0,153,739,162,220,755,
0,152,728,161,217,743,
0,152,719,159,216,734,
0,150,707,158,222,723,
0,149,796,156,222,713,
0,174,783,156,220,704,
0,175,772,154,218,696,
0,172,761,153,216,686,
0,172,750,154,215,785,
0,170,739,153,213,773,
0,168,729,152,211,761,
0,167,719,151,209,751,
0,166,707,149,207,740,
0,164,755,147,227,731,
0,163,799,147,225,720,
0,163,787,145,224,711,
0,161,775,144,221,702,
0,159,764,143,220,692,
0,158,753,142,217,785,
0,157,743,141,216,773,
0,156,732,140,214,762,
0,155,723,139,212,751,
0,153,711,137,211,741,
0,152,811,136,239,731,
0,152,797,135,237,720,
0,194,784,135,235,711,
0,192,773,134,232,702,
0,190,762,134,231,705,
0,188,751,161,229,791,
0,187,740,160,227,779,
0,185,730,159,225,768,
0,184,719,158,224,756,
0,182,708,156,222,745,
0,180,814,155,238,736,
0,179,800,153,236,726,
0,183,788,152,235,716,
0,181,776,152,231,706,
0,179,766,151,231,772,
0,177,754,149,228,792,
0,176,743,147,227,780,
0,175,734,147,224,769,
0,174,723,145,223,758,
0,172,711,145,221,748,
0,171,822,143,235,737,
0,175,807,142,233,728,
0,200,796,141,231,718,
0,199,783,140,229,708,
0,197,774,141,227,806,
0,195,761,140,225,790,
0,193,751,139,224,778,
0,192,740,137,222,768,
0,191,730,136,220,756,
0,189,719,135,218,746,
0,188,824,135,239,735,
0,186,811,134,236,725,
0,184,799,132,235,716,
0,184,787,131,233,706,
0,182,775,130,231,799,
0,179,764,129,229,783,
0,179,753,128,227,772,
0,177,743,127,225,761,
0,176,733,127,224,751,
0,175,783,126,238,740,
0,174,824,125,235,730,
0,177,812,124,233,719,
0,176,799,123,231,711,
0,174,787,122,229,702,
0,172,775,121,227,798,
0,172,764,120,225,783,
0,170,753,120,224,771,
0,168,743,119,222,760,
0,167,733,118,220,749,
0,167,835,117,234,739,
0,166,824,115,231,728,
0,192,812,115,230,719,
0,191,799,115,227,710,
0,189,787,114,226,719,
0,187,775,127,224,792,
0,185,764,126,222,776,
0,184,753,126,220,765,
0,183,743,124,218,755,
0,181,733,124,216,743,
0,179,841,122,239,734,
0,178,827,121,236,723,
0,187,814,120,235,714,
0,185,802,120,231,704,
0,184,790,119,231,768,
0,182,778,132,229,774,
0,181,768,131,227,760,
0,179,756,129,225,749,
0,178,745,129,224,739,
0,177,736,127,222,729,
0,175,841,127,239,719,
0,175,827,126,236,709,
0,174,814,124,234,700,
0,172,802,124,231,691,
0,172,791,127,231,790,
0,169,779,125,228,777,
0,167,768,124,227,763,
0,167,756,123,225,752,
0,166,StartUp!
127,199,735,138,224,700,
0,197,728,137,223,693,
0,196,823,136,224,686,
0,195,812,135,223,679,
0,194,802,135,222,672,
0,193,793,135,220,667,
0,192,783,134,219,660,
0,191,775,133,218,654,
0,190,768,132,216,745,
0,188,759,131,215,737,
0,188,748,131,214,727,
0,187,738,129,211,716,
0,184,728,129,210,707,
0,183,718,127,208,696,
0,182,822,127,209,686,
0,180,808,126,207,676,
0,179,796,125,206,668,
0,179,781,124,204,659,
0,177,770,124,203,750,
0,176,759,123,201,738,
0,175,748,121,199,728,
0,174,737,121,198,718,
0,172,728,120,196,707,
0,171,718,120,207,696,
0,169,809,119,212,687,
0,186,797,118,210,678,
0,184,784,116,209,669,
0,184,771,115,207,660,
0,182,760,115,205,745,
0,180,748,115,203,734,
0,179,742,115,203,728,
0,179,732,113,201,718,
0,177,722,113,199,705,
0,176,752,112,236,696,
0,174,828,112,233,687,
0,255,815,111,231,678,
0,252,803,110,230,668,
0,249,787,109,227,667,
0,247,775,126,225,737,
0,244,765,125,224,727,
0,243,754,124,222,716,
0,240,743,123,220,707,
0,238,734,121,218,696,
0,236,851,120,257,686,
0,235,876,120,255,676,
0,233,862,119,252,668,
0,231,847,118,250,659,
1,230,831,116,248,726,
1,227,819,121,245,743,
2,225,807,120,243,734,
2,224,795,120,241,723,
3,222,783,118,239,713,
3,220,772,117,238,702,
3,219,868,116,259,691,
3,217,854,115,257,683,
3,227,839,115,255,674,
4,225,827,114,252,665,
4,224,812,127,250,758,
4,222,799,131,248,746,
4,220,787,129,246,736,
5,218,775,128,243,724,
5,216,765,127,242,715,
5,215,755,126,240,703,
5,213,849,125,257,694,
6,234,835,124,255,684,
6,243,822,123,253,675,
6,241,809,122,251,667,
6,240,795,146,248,752,
6,237,783,144,247,740,
5,236,771,143,244,729,
6,233,760,142,242,719,
5,231,750,140,240,710,
6,229,740,140,255,697,
6,227,846,139,254,688,
5,226,831,137,252,679,
6,224,819,135,249,671,
6,223,807,135,248,662,
5,221,792,148,244,748,
6,219,780,147,243,736,
5,217,768,145,241,726,
5,216,758,143,239,716,
5,214,748,143,237,706,
5,212,772,142,263,695,
5,211,843,140,260,685,
5,269,828,139,258,676,
5,265,816,138,255,668,
5,263,803,136,254,667,
4,261,788,151,251,749,
5,259,777,150,249,737,
4,255,766,148,247,728,
4,255,755,147,244,718,
4,252,745,146,243,707,
4,250,824,144,262,696,
4,248,828,143,259,687,
4,254,815,142,256,678,
4,251,802,141,255,669,
4,249,791,140,252,730,
4,248,775,177,249,743,
3,245,765,176,248,732,
3,243,755,174,246,723,
3,241,743,173,244,712,
3,239,734,172,242,704,
3,238,871,169,257,691,
3,242,856,167,255,682,
3,252,842,167,253,673,
3,249,829,166,252,665,
3,248,816,164,249,743,
3,246,801,163,247,731,
3,243,789,161,244,721,
3,241,777,160,243,711,
3,240,768,159,240,701,
3,238,756,158,239,692,
3,236,850,157,255,680,
3,238,835,156,252,671,
3,248,823,155,250,664,
3,245,810,153,248,655,
3,243,798,161,247,735,
3,241,783,160,243,724,
3,239,772,159,241,713,
3,237,761,158,240,704,
3,235,751,156,238,695,
3,232,740,155,255,686,
3,231,844,153,256,674,
3,243,830,152,255,665,
3,241,817,152,252,657,
3,239,804,150,250,649,
3,237,790,169,248,728,
3,235,779,167,246,717,
3,233,768,167,243,707,
3,231,756,165,241,697,
3,230,746,163,240,688,
3,227,763,163,257,679,
3,225,828,161,255,668,
3,236,815,159,253,659,
3,234,802,158,251,651,
3,231,790,157,248,652,
2,230,775,156,247,723,
2,228,764,155,243,712,
3,227,754,153,241,703,
3,224,743,153,240,693,
2,223,733,152,238,684,
3,221,824,151,263,675,
2,219,840,149,260,664,
2,236,827,147,257,655,
2,235,814,147,255,647,
2,231,802,145,254,708,
2,231,787,150,251,719,
1,228,775,148,248,710,
1,227,765,147,247,700,
1,225,754,146,244,690,
2,223,743,145,243,681,
1,221,857,144,254,671,
1,219,842,143,252,662,
1,248,828,142,249,653,
1,246,816,140,248,645,
1,243,803,143,245,728,
2,241,788,142,243,717,
1,239,777,140,240,707,
1,238,766,139,239,697,
1,236,755,138,237,688,
1,233,745,137,236,679,
1,231,855,135,253,670,
1,230,841,135,251,659,
1,227,827,134,248,652,
1,226,815,133,247,643,
1,224,802,133,244,712,
1,223,787,132,243,703,
1,220,775,131,240,693,
1,219,765,130,238,684,
1,217,755,129,236,675,
1,216,744,127,248,665,
1,214,846,127,246,657,
1,212,831,126,243,647,
1,211,819,125,241,639,
1,209,807,124,239,632,
1,207,795,136,238,711,
1,206,780,135,236,702,
1,205,769,135,233,692,
1,204,758,134,231,683,
1,202,748,132,230,673,
1,200,774,131,248,665,
1,199,846,129,245,656,
1,211,831,129,243,646,
1,209,819,127,240,638,
0,207,807,127,239,639,
0,206,795,131,236,715,
0,204,780,129,235,704,
1,203,769,128,231,695,
1,201,759,127,231,686,
0,199,748,127,228,676,
0,198,827,126,247,668,
0,196,835,124,244,659,
0,222,821,123,243,648,
0,220,808,123,240,641,
0,218,796,121,239,699,
1,216,785,135,236,712,
0,215,771,134,234,703,
0,213,760,132,231,693,
0,211,749,131,231,684,
0,209,739,131,228,675,
0,207,847,129,247,666,
0,207,833,127,244,657,
0,230,819,127,242,647,
0,227,807,126,240,639,
0,226,795,131,239,732,
0,224,783,129,236,719,
0,222,769,129,234,710,
0,220,759,127,231,700,
0,219,748,127,231,691,
0,216,738,126,228,681,
0,216,838,124,235,671,
0,213,824,124,233,664,
0,228,811,123,231,653,
0,226,798,121,228,645,
0,224,787,135,227,728,
0,223,775,134,225,716,
0,220,761,132,223,706,
0,219,751,131,222,696,
0,217,740,130,220,687,
0,216,730,129,231,679,
0,214,847,127,231,669,
0,223,833,127,228,659,
0,221,820,126,227,650,
0,220,807,124,225,643,
0,217,796,134,223,723,
0,216,783,133,221,711,
0,214,770,131,219,702,
0,212,760,131,217,692,
0,211,749,129,216,684,
0,209,762,129,236,675,
0,207,826,127,233,665,
0,207,813,127,231,655,
0,206,800,125,230,647,
0,204,788,124,227,647,
0,203,777,124,225,724,
0,201,766,124,224,713,
0,199,752,123,222,704,
0,198,742,121,220,694,
0,196,732,120,218,685,
0,195,807,126,238,675,
0,194,812,126,236,668,
0,225,799,124,233,656,
0,223,787,124,231,648,
0,222,775,123,230,707,
0,220,764,121,227,719,
0,217,753,120,226,708,
0,216,740,120,224,699,
0,214,729,119,222,689,
0,212,720,118,220,680,
0,211,840,117,227,671,
0,209,826,116,224,663,
0,217,813,115,223,652,
0,216,800,114,221,644,
0,214,788,119,220,725,
0,211,777,117,217,713,
0,210,766,116,216,704,
0,207,752,116,214,694,
0,207,742,115,212,684,
0,205,732,114,211,676,
0,204,824,113,243,667,
0,202,810,112,240,658,
0,207,798,111,238,647,
0,205,786,111,236,639,
0,204,775,116,234,719,
0,201,763,115,231,708,
0,199,752,114,231,698,
0,199,739,113,228,688,
0,197,729,112,226,679,
0,195,719,112,240,671,
0,194,819,111,240,662,
0,207,807,110,238,654,
0,231,795,108,236,643,
0,228,783,108,234,636,
0,227,771,124,231,716,
0,225,760,123,230,705,
0,223,750,121,228,696,
0,221,736,121,226,687,
0,220,727,120,224,678,
0,217,755,119,244,668,
0,216,828,118,241,660,
0,214,815,117,240,652,
0,212,802,116,238,641,
0,211,791,115,236,636,
0,209,779,137,233,715,
0,207,768,135,231,704,
0,206,756,135,230,696,
0,204,743,134,227,686,
0,203,734,132,225,676,
0,201,812,131,239,668,
0,199,818,130,237,659,
0,225,806,129,235,651,
0,223,793,127,233,641,
0,222,782,127,231,697,
0,220,770,148,229,718,
0,217,760,147,227,708,
0,216,748,146,225,699,
0,214,736,144,223,689,
0,212,726,143,222,679,
0,211,828,143,236,671,
0,209,814,141,233,662,
0,207,801,140,231,654,
0,205,790,139,230,643,
0,204,778,159,227,735,
0,202,767,164,225,723,
0,200,755,163,224,713,
0,199,745,161,222,704,
0,198,732,159,220,694,
0,196,723,159,218,684,
0,195,849,157,246,675,
0,193,835,157,243,667,
0,216,821,156,241,659,
0,215,808,155,240,647,
0,213,796,160,238,739,
0,211,785,159,236,728,
0,209,774,158,233,717,
0,207,763,156,231,707,
0,206,750,155,230,697,
0,204,739,153,240,689,
0,203,835,152,241,679,
0,201,822,152,239,671,
0,199,808,150,237,662,
0,198,796,148,235,652,
0,196,785,147,233,740,
0,195,774,147,231,729,
0,193,763,145,229,719,
0,192,749,143,227,708,
0,191,739,143,225,700,
0,190,756,142,240,690,
0,188,824,141,238,681,
0,217,812,140,236,671,
0,227,799,139,233,664,
0,225,787,137,231,653,
0,224,775,136,230,739,
0,222,764,135,227,728,
0,220,754,135,226,718,
0,217,740,134,224,708,
0,216,731,133,222,699,
0,215,835,131,247,690,
0,213,859,131,244,680,
0,212,845,130,242,671,
0,211,831,129,240,664,
0,209,819,127,238,716,
0,207,807,136,236,734,
0,206,795,135,234,723,
0,204,783,135,231,713,
0,203,769,134,231,704,
0,201,759,132,227,695,
0,199,877,131,241,685,
0,198,861,131,239,676,
0,196,847,129,236,668,
0,195,834,128,235,659,
0,193,821,127,233,741,
0,192,808,126,231,729,
0,191,797,125,229,719,
0,189,785,124,227,708,
0,188,771,124,225,699,
0,187,760,123,224,690,
0,184,839,121,231,680,
0,184,825,121,231,671,
0,213,812,120,228,664,
0,211,800,119,227,655,
0,208,788,119,225,740,
0,207,777,118,223,729,
0,205,766,116,222,719,
0,204,755,116,220,709,
0,201,743,115,217,700,
0,199,732,114,230,691,
0,199,819,113,231,681,
0,198,806,112,230,671,
0,201,793,112,227,664,
0,199,782,111,225,655,
0,198,771,113,224,738,
0,195,760,112,222,728,
0,194,748,111,220,717,
0,193,738,110,219,707,
0,191,726,110,216,697,
0,190,746,109,235,688,
0,188,820,108,233,679,
0,198,807,107,231,671,
0,198,795,151,229,662,
0,195,783,149,227,654,
0,194,771,149,225,736,
0,192,760,147,224,726,
0,191,750,146,222,716,
0,190,739,145,220,705,
0,188,728,143,218,696,
0,187,809,143,243,687,
0,185,829,142,240,678,
0,193,816,140,239,670,
0,192,803,140,236,661,
0,190,792,138,235,652,
0,188,780,137,231,733,
0,187,768,135,231,723,
0,185,758,135,228,711,
0,184,747,134,227,703,
0,183,734,133,224,694,
0,182,831,132,239,684,
0,179,817,131,236,675,
0,220,804,130,234,667,
0,218,792,129,231,658,
0,216,781,128,231,696,
0,214,769,127,228,733,
0,212,759,127,227,723,
0,211,748,126,225,712,
0,209,737,125,223,704,
0,207,725,124,220,694,
0,206,835,123,234,684,
0,204,822,122,231,675,
0,220,809,121,230,667,
0,218,796,120,228,659,
0,216,785,133,227,745,
0,214,774,131,224,731,
0,211,763,131,223,720,
0,210,752,129,221,711,
0,208,742,128,219,701,
0,207,728,127,240,691,
0,205,834,127,242,683,
0,204,819,126,240,673,
0,202,807,124,238,664,
0,200,795,123,236,656,
0,199,783,135,233,739,
0,197,772,135,231,728,
0,195,761,134,230,719,
0,194,751,132,228,708,
0,192,740,131,226,699,
0,192,760,131,239,690,
0,190,836,129,237,680,
0,222,823,128,235,671,
0,224,811,127,233,664,
0,222,799,127,231,655,
0,219,787,126,229,738,
0,217,775,125,227,728,
0,216,764,124,225,717,
0,214,753,123,224,707,
0,211,743,122,222,697,
0,210,812,121,232,688,
0,208,819,120,231,679,
0,214,807,119,228,671,
0,211,794,118,227,663,
0,209,782,118,225,654,
0,207,771,127,223,718,
0,206,760,126,221,707,
0,204,749,124,220,698,
0,203,739,124,217,688,
0,201,729,123,216,679,
0,199,838,121,228,671,
0,199,824,120,227,662,
0,236,811,120,224,654,
0,233,799,119,223,646,
0,231,787,118,221,689,
0,228,775,127,219,711,
0,227,764,126,217,700,
0,224,753,124,216,691,
0,223,743,124,214,681,
0,221,733,123,212,673,
0,220,835,121,224,664,
0,217,822,120,222,655,
0,217,809,120,220,647,
0,216,796,119,219,639,
0,214,785,119,216,721,
0,211,774,122,215,707,
0,210,763,121,214,697,
0,208,752,120,211,688,
0,207,742,120,210,679,
0,205,732,119,208,671,
0,204,828,118,227,662,
0,202,815,116,225,653,
0,206,802,115,223,645,
0,204,790,115,221,637,
0,203,779,116,220,724,
0,199,768,115,217,711,
0,199,756,114,216,702,
0,198,745,113,214,691,
0,195,736,113,212,683,
0,195,726,112,227,673,
0,193,820,111,240,665,
0,195,807,110,237,656,
0,194,795,110,236,647,
0,193,783,109,233,639,
0,191,771,113,231,726,
0,190,760,112,230,713,
0,188,750,111,227,703,
0,187,739,110,225,694,
0,185,729,109,224,684,
0,184,728,108,246,675,
0,183,813,108,243,666,
0,181,799,107,240,658,
0,179,788,106,239,649,
0,179,776,105,236,642,
0,177,766,107,235,728,
0,176,755,105,232,716,
0,175,743,104,231,705,
0,174,734,103,228,696,
0,172,723,103,227,687,
0,172,794,103,241,678,
0,170,817,102,238,669,
0,233,804,101,236,660,
0,231,792,100,235,652,
0,229,780,99,231,688,
0,227,769,99,231,731,
0,225,759,98,228,719,
0,223,748,98,227,710,
0,222,737,97,225,700,
0,220,728,96,224,691,
0,217,783,96,240,681,
0,216,824,95,237,672,
0,215,811,95,235,664,
0,212,799,94,233,655,
0,211,787,93,231,649,
0,209,775,108,230,739,
0,207,764,107,227,729,
0,206,753,105,225,719,
0,205,743,105,224,708,
0,203,730,103,222,699,
0,201,833,103,240,689,
0,199,819,103,238,680,
0,219,806,102,236,671,
0,217,794,101,233,664,
0,215,782,109,231,669,
0,213,771,147,230,734,
0,211,760,145,227,723,
0,209,749,143,226,713,
0,207,739,143,224,704,
0,206,727,142,223,695,
0,204,844,140,240,685,
0,203,829,139,238,676,
0,204,816,138,236,667,
0,203,803,136,234,659,
0,200,792,135,231,723,
0,199,780,135,230,729,
0,198,769,134,228,719,
0,196,758,132,227,710,
0,195,747,131,224,700,
0,193,735,131,223,691,
0,192,840,129,236,681,
0,192,827,128,235,671,
0,231,814,127,232,664,
0,229,801,127,231,655,
0,227,790,128,228,752,
0,225,778,127,227,738,
0,223,767,126,225,728,
0,221,756,125,223,718,
0,219,745,124,222,707,
0,217,739,124,220,698,
0,216,830,123,239,689,
0,214,816,121,236,679,
0,212,803,120,235,671,
0,211,792,120,231,663,
0,209,780,120,231,746,
0,207,768,119,228,732,
0,206,758,118,227,722,
0,204,748,117,225,711,
0,202,737,116,223,702,
0,201,785,115,239,693,
0,199,836,140,237,684,
0,206,823,138,235,675,
0,204,810,136,232,667,
0,203,798,135,231,658,
0,200,786,134,229,740,
0,199,775,132,227,727,
0,198,764,131,225,716,
0,195,753,131,224,707,
0,195,743,130,222,697,
0,193,838,129,236,688,
0,192,824,127,233,679,
0,190,811,127,231,670,
0,189,798,126,230,662,
0,188,786,124,227,674,
0,185,775,130,225,742,
0,184,764,129,224,728,
0,184,753,127,222,718,
0,182,743,127,220,708,
0,180,732,126,219,699,
0,179,829,125,233,689,
0,178,815,124,231,680,
0,180,803,123,230,671,
0,179,791,122,227,664,
0,177,779,121,226,736,
0,176,768,141,224,743,
0,175,756,140,222,729,
0,173,746,139,220,719,
0,172,736,137,219,710,
0,171,726,136,217,700,
0,169,828,135,244,691,
0,175,816,135,243,681,
0,214,802,133,240,673,
0,211,790,132,238,664,
0,209,779,131,236,743,
0,207,768,130,235,728,
0,206,756,129,231,719,
0,204,745,127,231,708,
0,203,736,127,229,699,
0,200,726,126,227,689,
0,199,816,125,235,679,
0,199,803,124,233,671,
0,202,791,123,231,663,
0,200,779,123,229,655,
0,199,768,132,227,734,
0,197,756,131,225,719,
0,195,746,130,224,710,
0,194,736,129,222,700,
0,192,726,127,220,691,
0,192,716,127,236,681,
0,190,820,126,233,673,
0,203,807,125,231,664,
0,201,796,124,229,655,
0,199,783,123,227,647,
0,198,772,123,225,735,
0,195,761,121,224,721,
0,194,750,120,222,711,
0,192,740,120,220,702,
0,191,729,119,218,692,
0,190,754,118,233,683,
0,188,812,118,231,674,
0,198,799,116,228,665,
0,196,787,115,227,657,
0,195,775,115,224,659,
0,193,764,119,223,730,
0,191,753,117,221,717,
0,190,743,116,219,707,
0,188,732,115,217,697,
0,187,723,114,216,688,
0,185,816,113,240,679,
0,184,811,113,238,670,
0,204,798,112,235,662,
0,203,786,111,233,654,
0,200,775,110,231,721,
0,199,763,110,230,732,
0,197,752,108,227,719,
0,195,742,108,225,708,
0,193,732,107,224,699,
0,192,722,106,222,690,
0,191,825,105,239,680,
0,189,809,104,236,671,
0,191,796,103,235,664,
0,190,784,103,232,655,
0,188,774,111,231,745,
0,187,762,110,228,734,
0,184,752,109,227,720,
0,184,740,108,225,711,
0,182,731,107,224,701,
0,180,721,106,222,691,
0,179,827,105,231,683,
0,187,810,104,230,673,
0,191,798,103,227,664,
0,189,785,103,225,656,
0,188,775,102,224,743,
0,185,763,102,223,732,
0,184,752,100,220,719,
0,183,742,99,219,711,
0,181,732,99,216,702,
0,179,722,98,231,694,
0,179,844,98,233,684,
0,195,830,97,231,675,
0,214,816,96,229,666,
0,211,804,96,227,657,
0,209,792,102,225,742,
0,208,781,100,224,731,
0,207,769,99,222,719,
0,204,759,99,220,710,
0,203,748,98,217,700,
0,201,738,97,217,691,
0,199,873,102,232,682,
0,201,858,100,231,673,
0,216,844,99,228,664,
0,214,831,99,227,655,
0,212,819,98,225,741,
0,211,806,97,224,729,
0,209,794,96,222,719,
0,207,785,96,220,710,
0,206,774,95,218,700,
0,204,764,94,216,691,
0,203,851,99,236,681,
0,199,836,99,233,675,
0,213,823,97,231,665,
0,211,810,96,230,657,
0,210,798,96,227,723,
0,207,786,115,225,734,
0,206,775,113,224,723,
0,204,764,112,222,711,
0,203,753,112,220,701,
0,201,743,111,218,692,
0,199,830,110,226,683,
0,198,812,108,224,673,
0,196,799,108,222,665,
0,195,788,107,220,657,
0,193,777,114,218,748,
0,192,766,112,216,737,
0,190,755,112,215,726,
0,188,743,111,213,713,
0,187,734,110,211,704,
0,185,724,108,210,695,
0,184,850,108,220,685,
0,184,831,107,217,675,
0,184,819,106,216,668,
0,184,807,105,214,659,
0,182,795,112,212,719,
0,180,783,111,211,708,
0,179,771,110,208,699,
0,177,761,109,207,687,
0,176,750,108,206,678,
0,175,740,107,231,668,
0,174,846,106,230,660,
0,204,828,105,227,652,
0,203,815,104,225,643,
0,201,803,103,223,636,
0,199,792,123,221,721,
0,198,780,121,220,711,
0,195,768,120,217,701,
0,194,758,120,216,689,
0,192,748,118,214,679,
0,191,780,118,237,671,
0,190,838,116,235,663,
0,188,822,115,231,654,
0,187,809,115,230,646,
0,185,796,113,228,653,
0,184,785,127,226,721,
0,182,774,126,224,711,
0,180,763,124,223,701,
0,179,752,124,220,689,
0,177,742,123,219,679,
0,177,831,121,234,671,
0,175,831,120,231,663,
0,174,815,120,230,654,
0,173,803,119,227,647,
0,172,791,118,225,713,
0,171,779,120,224,722,
0,169,768,120,222,711,
0,167,757,118,220,702,
0,167,747,117,218,690,
0,166,736,116,216,681,
0,164,846,115,231,671,
0,164,831,114,230,664,
0,179,815,113,227,655,
0,177,803,112,225,647,
0,176,792,127,224,743,
0,174,779,126,222,731,
0,172,768,124,220,719,
0,172,758,123,218,710,
0,169,747,122,216,699,
0,168,736,121,215,689,
0,167,844,120,225,679,
0,177,830,119,223,671,
0,187,814,118,221,663,
0,185,801,117,219,654,
0,184,790,130,217,747,
0,182,777,129,216,736,
0,180,767,127,214,725,
0,179,755,126,211,715,
0,177,745,125,211,703,
0,176,736,124,228,693,
0,175,843,123,238,684,
0,175,829,122,235,675,
0,174,813,121,233,667,
0,172,800,120,231,657,
0,171,789,124,229,743,
0,169,777,123,227,733,
0,167,766,121,225,723,
0,167,755,120,224,712,
0,166,745,120,222,700,
0,164,772,119,230,691,
0,163,838,118,227,682,
0,203,824,116,226,673,
0,201,808,115,224,664,
0,199,796,115,222,670,
0,198,785,124,220,742,
0,195,774,123,218,730,
0,194,763,121,216,719,
0,192,752,120,215,710,
0,191,742,120,213,698,
0,189,836,119,227,689,
0,188,839,118,225,679,
0,195,825,116,224,671,
0,194,810,115,222,663,
0,192,798,115,220,730,
0,191,786,128,217,742,
0,189,775,127,216,730,
0,188,764,126,214,719,
0,185,753,125,212,707,
0,184,743,124,211,699,
0,184,825,123,230,689,
0,199,812,122,227,679,
0,217,799,121,226,671,
0,216,785,120,224,663,
0,214,775,140,222,743,
0,211,762,137,220,732,
0,210,752,135,218,721,
0,208,741,135,216,711,
0,206,731,134,215,700,
0,204,721,133,214,690,
0,203,816,131,238,681,
0,201,803,131,236,671,
0,199,791,129,234,664,
0,199,775,128,231,655,
0,197,765,136,230,739,
0,195,753,135,227,728,
0,194,743,134,225,718,
0,192,733,133,224,707,
0,191,723,131,222,696,
0,190,713,131,227,687,
0,188,830,129,226,678,
0,195,817,128,224,668,
0,193,804,127,223,660,
0,192,789,127,220,652,
0,190,777,133,218,739,
0,188,766,131,216,728,
0,187,755,131,215,718,
0,185,745,129,213,708,
0,184,735,128,211,696,
0,183,774,127,231,687,
0,181,841,126,228,678,
0,179,827,126,227,669,
0,179,814,124,224,660,
0,177,799,124,223,671,
0,176,787,143,221,748,
0,175,775,142,219,737,
0,174,764,141,217,727,
0,172,754,140,216,716,
0,171,743,139,214,704,
0,169,843,137,243,695,
0,167,849,136,240,686,
0,199,836,135,238,677,
0,196,824,134,236,668,
0,195,807,133,233,735,
0,193,796,133,231,746,
0,192,783,131,230,735,
0,190,772,131,227,724,
0,188,761,130,226,715,
0,187,752,128,224,703,
0,185,871,127,238,693,
0,184,856,127,236,684,
0,183,843,126,233,675,
0,181,830,125,231,667,
0,179,815,129,230,748,
0,179,801,128,227,736,
0,177,790,127,225,726,
0,176,779,126,224,716,
0,174,768,125,222,705,
0,172,757,124,220,694,
0,172,865,123,244,684,
0,207,851,122,242,675,
0,224,836,121,240,667,
0,222,824,120,238,659,
0,220,808,132,236,747,
0,217,796,131,233,736,
0,216,785,130,231,725,
0,215,774,129,230,715,
0,212,763,127,227,704,
0,210,752,127,231,693,
0,209,856,126,231,684,
0,207,842,124,228,675,
0,206,828,124,226,666,
0,204,816,123,224,658,
0,203,800,172,222,745,
0,200,788,169,220,734,
0,199,777,167,219,723,
0,198,767,167,217,713,
0,195,755,165,216,704,
0,195,802,163,231,692,
0,193,864,162,228,683,
0,195,849,161,227,674,
0,193,836,159,225,665,
0,192,823,158,223,669,
0,191,807,159,220,743,
0,189,796,158,219,732,
0,188,783,157,217,722,
0,187,773,156,216,711,
0,184,762,154,214,702,
0,184,851,152,233,691,
0,182,854,152,231,681,
0,183,839,151,229,673,
0,181,827,150,227,664,
0,179,814,148,225,728,
0,179,799,147,223,738,
0,177,787,146,221,728,
0,176,775,145,220,718,
0,175,765,143,217,707,
0,173,754,143,216,698,
0,172,860,142,233,687,
0,172,845,140,231,678,
0,202,831,140,230,669,
0,200,819,139,227,660,
0,199,803,140,225,752,
0,197,792,139,223,740,
0,195,780,137,221,729,
0,194,768,136,219,719,
0,192,758,135,217,710,
0,191,748,135,216,700,
0,189,853,133,238,688,
0,195,839,132,236,679,
0,204,825,131,233,671,
0,201,813,131,231,662,
0,199,798,139,230,749,
0,199,786,136,227,737,
0,196,775,135,225,728,
0,195,764,135,224,717,
0,193,753,134,222,707,
0,192,743,132,239,698,
0,190,856,131,237,686,
0,190,842,130,235,677,
0,189,828,129,232,668,
0,188,816,127,231,660,
0,186,800,145,229,747,
0,184,789,143,227,736,
0,183,777,142,224,725,
0,182,767,141,223,715,
0,180,755,140,221,705,
0,179,796,139,246,696,
0,177,855,137,243,684,
0,187,840,135,241,675,
0,185,827,135,239,667,
0,184,815,134,237,673,
0,182,799,134,235,743,
0,180,787,133,232,732,
0,179,775,131,231,722,
0,177,765,131,229,711,
0,176,755,130,227,703,
0,175,845,128,252,694,
0,174,856,127,249,681,
0,230,843,127,248,673,
0,227,829,126,246,664,
0,225,816,125,243,731,
0,223,801,138,241,739,
0,221,789,137,239,728,
0,220,778,135,236,718,
0,217,768,135,235,708,
0,216,756,134,233,699,
0,214,856,132,241,689,
0,211,841,131,240,678,
0,210,828,130,238,670,
0,208,816,129,236,661,
0,207,803,132,233,745,
0,205,788,131,231,734,
0,204,777,131,230,723,
0,202,766,129,227,713,
0,200,755,127,225,704,
0,199,745,127,224,695,
0,197,867,126,238,685,
0,195,853,125,235,674,
0,195,839,124,233,665,
0,194,827,123,231,657,
0,193,814,124,230,739,
0,192,799,123,227,728,
0,190,787,121,225,717,
0,188,775,120,224,707,
0,188,765,120,222,697,
0,186,755,120,231,688,
0,184,873,118,231,679,
0,207,859,117,228,668,
0,207,844,116,227,660,
0,206,831,115,224,652,
0,204,819,115,223,739,
0,203,803,114,220,728,
0,201,792,113,219,718,
0,199,780,112,217,707,
0,198,769,112,216,699,
0,196,799,111,240,689,
0,194,865,110,238,679,
0,195,851,109,236,669,
0,193,838,108,233,660,
0,192,824,108,231,664,
0,191,812,121,230,732,
0,189,797,120,227,721,
0,188,785,120,226,711,
0,185,774,118,224,702,
0,184,763,117,222,692,
0,184,846,116,247,683,
0,182,847,115,243,674,
0,195,833,114,241,664,
0,193,820,113,240,655,
0,192,808,112,238,724,
0,191,796,129,236,728,
0,189,782,127,233,717,
0,188,771,127,231,707,
0,185,760,126,230,697,
0,184,750,125,227,688,
0,184,849,124,243,679,
0,182,835,123,241,668,
0,191,822,121,239,659,
0,189,809,120,237,652,
0,188,797,137,236,732,
0,185,785,135,233,719,
0,184,771,134,231,710,
0,183,760,132,228,700,
0,182,750,131,227,691,
0,180,739,131,225,682,
0,179,856,129,243,673,
0,179,842,128,241,662,
0,180,828,127,239,654,
0,179,816,126,238,646,
0,177,804,138,236,728,
0,176,792,136,233,718,
0,175,777,135,231,707,
0,174,766,134,229,698,
0,172,755,133,227,688,
0,171,745,132,240,679,
0,169,857,131,241,671,
0,192,843,129,239,659,
0,191,830,128,237,652,
0,190,817,127,235,643,
0,188,806,152,233,723,
0,185,792,150,231,712,
0,184,778,148,228,703,
0,183,768,147,227,693,
0,182,756,145,225,684,
0,180,793,144,240,675,
0,179,860,143,238,666,
0,188,846,142,236,655,
0,185,832,180,233,647,
0,184,819,179,231,647,
0,183,807,176,230,721,
0,181,795,175,227,711,
0,179,780,174,225,702,
0,179,770,172,224,692,
0,177,760,171,222,683,
0,176,847,169,243,673,
0,174,856,167,240,665,
0,205,842,167,238,654,
0,204,829,165,236,646,
0,201,816,163,234,707,
0,199,804,163,231,728,
0,198,792,161,231,717,
0,196,777,159,228,707,
0,195,768,159,226,697,
0,193,756,158,224,688,
0,192,867,156,240,679,
0,190,851,156,238,670,
0,189,838,154,236,659,
0,188,824,153,234,652,
0,187,812,175,231,747,
0,185,799,177,231,736,
0,184,788,175,228,724,
0,182,774,174,226,715,
0,181,763,172,224,704,
0,179,753,171,223,696,
0,178,862,169,236,686,
0,185,847,167,233,678,
0,199,833,167,231,667,
0,198,820,165,230,658,
0,196,807,163,227,746,
0,195,796,163,225,735,
0,193,783,161,224,724,
0,192,771,159,222,714,
0,190,760,159,220,704,
0,188,750,158,236,696,
0,187,867,157,234,686,
0,188,854,156,231,677,
0,188,839,153,230,666,
0,186,827,153,228,657,
0,184,814,160,226,740,
0,184,802,159,224,729,
0,182,791,158,223,719,
0,180,775,156,220,710,
0,179,765,155,219,700,
0,177,792,154,241,691,
0,176,853,152,239,681,
0,175,839,152,237,671,
0,174,826,150,235,662,
0,173,814,149,233,664,
0,172,801,147,231,740,
0,170,790,147,229,729,
0,169,778,145,227,719,
0,167,764,145,225,710,
0,167,753,143,223,700,
0,166,848,143,233,690,
0,164,861,142,231,681,
0,214,847,140,230,671,
0,211,833,140,227,662,
0,209,820,138,226,728,
0,207,808,152,224,739,
0,206,796,151,222,728,
0,204,785,150,220,719,
0,203,771,148,219,708,
0,200,760,147,216,700,
0,199,865,146,237,690,
0,198,850,145,235,680,
0,207,836,143,233,671,
0,206,824,142,231,662,
0,204,811,143,230,743,
0,203,799,141,227,733,
0,201,787,140,225,722,
0,199,773,139,224,711,
0,198,762,137,221,702,
0,196,752,137,220,694,
0,195,869,135,235,684,
0,193,854,135,232,675,
0,197,840,134,231,667,
0,195,828,133,228,655,
0,194,815,135,227,752,
0,192,803,134,225,741,
0,191,791,132,223,730,
0,190,776,131,221,719,
0,188,766,131,219,711,
0,187,755,129,232,701,
0,185,867,129,231,691,
0,184,853,127,229,683,
0,191,839,127,227,673,
0,189,826,126,225,664,
0,188,814,129,224,743,
0,186,801,127,222,732,
0,184,790,127,220,721,
0,183,775,126,217,711,
0,182,765,125,216,702,
0,180,809,124,231,693,
0,179,879,123,230,684,
0,184,864,122,227,675,
0,182,851,121,225,666,
0,180,836,120,224,668,
0,179,824,131,222,748,
0,177,812,130,220,737,
0,176,799,129,217,726,
0,175,785,127,216,716,
0,174,774,127,214,707,
0,172,852,126,231,697,
0,172,854,125,229,688,
0,175,839,124,227,679,
0,172,827,123,225,670,
0,171,814,121,223,728,
0,169,802,122,222,749,
0,168,790,120,220,737,
0,167,779,120,217,728,
0,166,765,120,216,717,
0,165,755,119,214,707,
0,163,862,118,229,699,
0,163,847,122,227,689,
0,219,833,121,225,679,
0,216,820,120,224,671,
0,215,808,128,222,763,
0,212,796,131,220,751,
0,211,784,129,217,739,
0,209,774,128,216,729,
0,207,760,127,215,719,
0,206,749,127,213,710,
0,204,836,125,243,700,
0,203,823,124,241,691,
0,201,809,124,240,681,
0,199,798,122,237,673,
0,198,785,125,236,756,
0,196,774,124,233,745,
0,195,763,123,231,735,
0,193,752,121,230,724,
0,192,739,120,227,714,
0,191,730,120,252,705,
0,188,816,119,255,696,
0,188,803,118,253,686,
0,186,791,117,251,678,
0,184,780,116,248,668,
0,183,768,144,247,752,
0,182,758,143,244,741,
0,180,747,142,243,730,
0,179,736,140,240,719,
0,177,723,139,238,710,
0,176,758,138,241,700,
0,175,824,137,239,691,
0,187,811,135,236,683,
0,186,798,135,235,673,
0,184,786,134,233,664,
0,183,775,132,231,750,
0,181,764,131,230,739,
0,179,752,130,227,728,
0,179,742,129,225,719,
0,177,729,127,224,708,
0,176,816,127,253,700,
0,175,824,127,251,690,
0,187,810,126,248,680,
0,185,798,124,247,671,
0,184,785,124,244,664,
0,182,775,132,241,752,
0,180,764,131,240,740,
0,179,752,129,238,730,
0,177,742,129,236,719,
0,176,729,127,233,710,
0,175,836,127,252,700,
0,174,822,126,249,691,
0,173,809,125,247,682,
0,172,797,124,245,673,
0,170,785,143,243,719,
0,169,774,147,240,751,
0,167,763,145,239,739,
0,167,752,143,237,729,
0,166,742,143,235,719,
0,164,729,142,233,710,
0,163,850,140,254,700,
0,163,836,140,251,691,
0,188,822,138,248,681,
0,187,809,137,247,673,
0,184,798,143,244,752,
0,184,785,141,243,741,
0,182,775,140,241,731,
0,180,764,139,239,719,
0,179,753,137,237,710,
0,177,740,136,245,700,
0,176,855,135,243,691,
0,175,839,135,241,683,
0,175,827,134,239,673,
0,173,814,132,237,665,
0,172,803,142,235,755,
0,171,790,141,233,743,
0,169,779,140,231,734,
0,167,768,139,230,723,
0,167,756,137,227,713,
0,166,792,135,231,704,
0,164,860,135,230,694,
0,177,846,134,228,685,
0,178,833,133,226,676,
0,177,820,131,224,668,
0,175,807,137,223,755,
0,174,796,135,221,743,
0,172,784,135,219,733,
0,171,773,134,217,723,
0,169,763,133,216,713,
0,167,850,132,240,704,
0,167,860,131,238,694,
0,201,846,130,236,684,
0,199,833,129,233,676,
0,197,820,127,231,668,
0,195,807,128,230,748,
0,193,796,127,227,737,
0,192,783,126,226,728,
0,191,773,126,224,717,
0,189,762,124,222,707,
0,188,867,124,230,697,
0,185,852,123,227,688,
0,190,839,121,226,679,
0,188,825,120,224,671,
0,187,813,120,223,716,
0,184,800,124,220,746,
0,183,788,123,219,735,
0,182,777,121,216,725,
0,180,767,120,216,715,
0,179,756,120,214,705,
0,177,850,119,231,696,
0,176,836,118,230,687,
0,176,823,117,228,678,
0,175,810,116,227,669,
0,173,798,126,225,763,
0,172,786,133,223,747,
0,171,775,132,221,736,
0,169,764,131,219,726,
0,167,753,130,217,716,
0,167,743,129,216,707,
0,166,841,139,231,697,
0,167,828,137,229,688,
0,180,815,136,227,679,
0,179,803,135,225,670,
0,177,792,135,224,761,
0,176,779,133,222,747,
0,175,768,132,220,736,
0,173,757,131,217,726,
0,172,747,129,216,716,
0,171,737,129,231,705,
0,169,836,127,235,696,
0,177,824,127,232,688,
0,176,810,126,231,679,
0,175,798,125,228,670,
0,174,787,126,227,755,
0,172,775,125,225,742,
0,171,764,124,224,731,
0,169,753,123,221,721,
0,167,743,122,220,711,
0,167,756,121,236,702,
0,166,839,120,232,692,
0,212,825,120,231,683,
0,209,813,119,228,674,
0,207,800,118,227,665,
0,206,788,120,225,748,
0,204,777,119,223,734,
0,202,766,118,221,724,
0,199,755,116,220,714,
0,199,744,116,217,704,
0,198,825,115,244,695,
0,195,847,114,241,686,
0,208,833,113,239,676,
0,207,820,112,237,668,
0,204,808,112,236,714,
0,203,796,116,233,749,
0,201,784,115,231,736,
0,199,774,115,230,725,
0,198,762,113,227,715,
0,196,752,112,225,705,
0,195,862,115,237,696,
0,193,847,126,234,687,
0,195,833,125,231,678,
0,193,820,124,230,669,
0,192,808,123,228,760,
0,190,796,123,226,748,
0,188,784,121,224,734,
0,187,773,120,223,723,
0,185,762,120,221,713,
0,184,752,119,219,704,
0,182,852,118,233,695,
0,181,838,117,231,685,
0,183,824,116,230,676,
0,182,812,115,227,668,
0,180,799,123,225,760,
0,178,788,121,224,747,
0,177,776,120,222,734,
0,176,766,120,220,723,
0,175,755,119,218,713,
0,173,744,118,230,704,
0,172,847,116,238,695,
0,197,834,115,235,685,
0,197,822,115,233,676,
0,195,808,114,231,668,
0,194,796,113,229,750,
0,192,785,112,227,739,
0,190,774,111,225,726,
0,189,763,110,224,716,
0,187,752,110,222,706,
0,185,774,109,240,696,
0,184,851,108,238,688,
0,195,836,108,236,679,
0,192,824,107,233,670,
0,191,811,105,231,662,
0,190,799,123,230,744,
0,188,787,121,227,734,
0,186,775,120,225,721,
0,185,765,120,224,711,
0,184,754,119,222,702,
0,182,828,118,236,692,
0,180,846,116,233,683,
0,187,831,115,231,674,
0,185,819,115,230,665,
0,184,807,113,227,711,
0,182,795,123,225,744,
0,180,783,121,224,734,
0,179,771,120,222,721,
0,177,761,119,220,711,
0,176,751,118,219,702,
0,175,862,117,233,692,
0,173,843,116,231,683,
0,201,830,115,229,674,
0,199,816,115,227,665,
0,198,804,114,225,755,
0,196,792,120,224,743,
0,194,781,119,222,732,
0,192,769,117,220,719,
0,191,760,116,217,710,
0,189,748,115,216,700,
0,188,859,115,234,691,
0,187,840,113,231,682,
0,189,828,112,230,673,
0,188,815,112,227,664,
0,185,803,129,225,751,
0,184,791,127,224,739,
0,183,779,126,222,728,
0,181,768,124,220,716,
0,179,757,124,218,706,
0,179,747,123,231,696,
0,177,849,121,233,688,
0,188,831,120,230,679,
0,187,819,120,228,670,
0,184,806,119,227,662,
0,184,794,151,224,748,
0,182,783,150,223,737,
0,179,771,147,221,728,
0,179,760,146,219,715,
0,177,750,145,217,704,
0,176,759,143,239,696,
0,174,843,143,236,686,
0,177,825,142,233,677,
0,176,813,140,231,668,
0,174,800,140,230,659,
0,173,788,139,227,747,
0,172,777,137,226,736,
0,170,766,135,224,725,
0,168,755,135,222,712,
0,167,745,134,220,703,
0,167,820,133,241,694,
0,165,846,131,239,684,
0,167,828,131,236,675,
0,167,816,130,235,667,
0,166,803,129,232,711,
0,164,792,135,231,748,
0,163,780,135,228,736,
0,162,768,132,227,723,
0,160,758,131,225,713,
0,159,748,131,224,704,
0,159,856,129,247,694,
0,158,841,127,244,684,
0,189,824,127,241,675,
0,187,812,126,240,667,
0,185,799,126,238,756,
0,184,787,135,236,743,
0,183,775,134,233,734,
0,180,765,132,231,720,
0,179,755,131,230,711,
0,177,743,130,228,702,
0,176,856,129,246,691,
0,176,841,127,243,683,
0,180,825,127,241,673,
0,179,812,126,240,665,
0,177,800,139,238,756,
0,176,788,137,236,744,
0,175,776,135,233,734,
0,173,766,135,231,720,
0,172,755,134,230,711,
0,171,745,132,236,702,
0,169,840,131,236,692,
0,225,828,131,233,683,
0,240,811,129,231,674,
0,237,799,128,229,665,
0,236,787,134,227,757,
0,233,775,132,225,745,
0,231,764,131,224,735,
0,228,753,130,222,722,
0,227,743,129,220,711,
0,225,766,127,233,703,
0,224,855,127,231,694,
0,223,840,127,229,684,
0,220,824,126,227,675,
0,219,812,125,225,667,
0,217,799,130,223,748,
0,216,787,129,222,737,
0,214,775,127,220,726,
0,211,765,127,217,713,
0,210,754,126,216,704,
0,209,829,124,239,695,
0,207,857,124,236,686,
0,206,844,123,235,676,
0,204,827,121,231,668,
0,203,814,120,231,710,
0,201,802,120,228,743,
0,199,790,120,227,733,
0,199,779,118,224,723,
0,197,768,117,223,710,
0,195,757,116,221,701,
0,194,867,115,231,691,
0,192,851,115,228,682,
0,191,838,114,227,673,
0,190,822,113,224,664,
0,188,809,112,223,748,
0,187,797,116,220,736,
0,185,785,116,219,725,
0,184,774,115,217,715,
0,183,763,113,216,703,
0,182,752,113,214,694,
0,180,857,112,235,684,
0,182,842,111,232,675,
0,188,829,110,231,667,
0,186,813,109,228,658,
0,184,801,122,226,751,
0,183,789,120,224,739,
0,182,777,120,223,728,
0,179,766,118,220,719,
0,178,756,118,219,706,
0,177,745,116,226,696,
0,176,847,115,231,688,
0,176,831,114,229,679,
0,176,819,113,227,670,
0,174,803,113,225,662,
0,173,792,118,223,748,
0,172,780,117,221,736,
0,171,769,116,220,726,
0,169,759,115,217,716,
0,167,748,114,216,704,
0,167,757,113,232,695,
0,166,843,112,230,685,
0,180,829,112,228,675,
0,179,816,110,227,668,
0,177,800,110,224,659,
0,176,788,112,222,745,
0,174,777,112,220,735,
0,173,766,111,218,724,
0,171,755,110,216,714,
0,169,745,109,215,702,
0,168,817,108,248,692,
0,167,851,108,245,684,
0,206,838,108,243,674,
0,204,824,107,240,665,
0,202,808,105,238,705,
0,200,796,120,236,743,
0,199,784,119,234,732,
0,198,774,118,231,722,
0,195,763,116,231,711,
0,193,752,115,228,700,
0,192,870,115,248,691,
0,191,856,113,246,681,
0,190,843,113,243,671,
0,188,827,112,241,664,
0,187,814,117,239,748,
0,185,801,126,237,736,
0,184,790,124,235,726,
0,182,779,124,233,716,
0,180,768,123,231,705,
0,179,756,121,230,694,
0,178,866,120,235,684,
0,177,851,120,233,675,
0,195,838,119,231,667,
0,193,822,118,229,659,
0,192,809,124,227,736,
0,190,796,123,225,725,
0,188,785,121,223,715,
0,187,774,121,222,705,
0,184,763,120,220,696,
0,184,752,119,239,684,
0,182,857,118,243,675,
0,189,843,116,240,666,
0,188,830,115,239,657,
0,187,814,115,236,649,
0,185,801,119,233,733,
0,184,790,118,231,723,
0,183,778,116,230,712,
0,181,768,115,228,703,
0,179,756,115,227,693,
0,178,777,113,237,681,
0,176,867,112,236,672,
0,180,854,112,233,664,
0,179,839,111,231,655,
0,177,824,110,230,647,
0,176,812,117,227,731,
0,175,799,116,225,720,
0,174,787,115,224,711,
0,172,776,114,222,700,
0,171,766,113,220,691,
0,169,833,112,243,679,
0,167,864,151,241,671,
0,199,849,148,240,662,
0,198,836,147,238,654,
0,196,820,146,236,691,
0,194,807,145,233,728,
0,193,796,143,231,718,
0,192,784,143,230,707,
0,190,773,142,227,697,
0,188,763,140,225,689,
0,187,863,139,241,677,
0,185,847,138,239,668,
0,227,834,136,237,660,
0,225,821,135,235,652,
0,224,806,135,232,740,
0,221,793,134,231,728,
0,220,782,133,228,718,
0,217,771,132,227,707,
0,216,760,131,225,698,
0,214,750,129,224,689,
0,212,859,129,236,678,
0,210,845,127,233,668,
0,208,831,127,231,660,
0,207,818,126,230,652,
0,206,803,147,227,738,
0,204,792,145,225,728,
0,202,780,144,224,716,
0,201,768,143,222,707,
0,199,758,142,220,697,
0,198,748,141,235,688,
0,196,858,140,241,676,
0,199,844,138,239,668,
0,199,830,137,237,659,
0,198,817,135,235,651,
0,195,802,139,232,755,
0,194,790,137,231,743,
0,192,778,135,229,733,
0,191,768,135,227,723,
0,190,756,134,225,712,
0,188,766,133,249,704,
0,187,856,131,246,691,
0,207,841,131,243,682,
0,206,828,129,242,673,
0,204,816,129,240,665,
0,203,800,129,238,751,
0,200,789,129,236,740,
0,199,777,127,233,729,
0,198,766,127,231,719,
0,196,755,126,230,710,
0,194,822,124,243,700,
0,192,849,124,240,688,
0,209,835,123,238,679,
0,207,822,121,236,671,
0,206,809,121,234,711,
0,204,795,127,231,740,
0,203,783,127,230,729,
0,200,771,126,227,719,
0,199,760,124,226,710,
0,198,750,124,224,700,
0,195,856,123,248,688,
0,194,839,121,246,679,
0,192,827,120,243,670,
0,191,814,120,241,662,
0,190,802,119,240,735,
0,188,787,120,237,723,
0,187,775,120,235,713,
0,185,764,119,233,704,
0,184,754,118,231,694,
0,183,743,116,230,685,
0,181,836,115,261,673,
0,191,824,115,258,665,
0,219,809,114,255,656,
0,216,798,113,254,648,
0,215,786,134,252,726,
0,212,771,131,249,715,
0,211,760,131,248,704,
0,209,750,129,245,695,
0,207,739,128,243,686,
0,206,729,127,247,676,
0,204,851,126,249,665,
0,203,838,125,248,657,
0,201,824,124,245,648,
0,199,812,123,243,641,
0,199,799,127,241,718,
0,196,784,126,239,708,
0,195,774,125,237,698,
0,193,762,124,235,688,
0,192,752,123,233,679,
0,191,755,122,240,671,
0,189,847,121,238,659,
0,209,833,120,236,651,
0,207,820,119,233,643,
0,206,808,118,231,636,
0,204,796,130,230,714,
0,201,781,128,227,704,
0,199,770,127,226,694,
0,199,760,126,224,685,
0,197,749,126,223,675,
0,195,813,124,236,667,
0,193,841,123,235,655,
0,193,828,122,232,647,
0,192,815,121,231,639,
0,190,802,120,228,681,
0,188,791,151,227,711,
0,187,775,150,224,700,
0,185,765,148,223,691,
0,184,755,147,221,681,
0,183,743,145,220,672,
0,182,839,145,234,664,
0,179,824,143,231,653,
0,179,812,142,231,644,
0,178,799,141,228,637,
0,177,787,140,227,722,
0,176,775,142,224,711,
0,174,762,140,222,700,
0,173,751,139,220,691,
0,172,740,138,219,681,
0,171,731,137,217,673,
0,169,855,135,239,664,
0,177,840,135,236,654,
0,184,827,134,235,646,
0,183,814,132,231,638,
0,181,801,137,231,723,
0,179,790,135,229,711,
0,179,775,135,227,702,
0,176,764,134,224,692,
0,176,754,132,223,683,
0,174,743,131,238,675,
0,172,851,131,246,665,
0,172,836,129,243,655,
0,171,824,128,241,647,
0,170,811,127,239,639,
0,168,799,127,238,723,
0,167,787,126,236,711,
0,166,772,124,233,702,
0,165,761,124,231,692,
0,163,751,123,229,684,
0,163,756,121,238,675,
0,161,859,121,236,665,
0,211,844,120,233,655,
0,207,831,119,231,647,
0,206,819,118,230,639,
0,204,807,121,227,724,
0,203,794,120,226,713,
0,200,780,120,224,704,
0,199,768,119,222,694,
0,198,758,118,220,684,
0,196,825,117,237,675,
0,194,856,115,235,667,
0,209,841,115,232,655,
0,207,828,114,231,647,
0,206,816,113,229,691,
0,204,803,121,227,724,
0,202,792,120,225,714,
0,199,777,120,223,704,
0,199,766,118,221,695,
0,197,755,117,220,686,
0,195,859,116,227,676,
0,193,844,115,225,668,
0,195,831,114,223,657,
0,193,817,113,221,648,
0,192,805,115,220,734,
0,190,793,125,217,722,
0,188,779,124,216,711,
0,187,768,123,214,702,
0,185,757,122,212,692,
0,184,747,121,211,684,
0,183,854,120,233,674,
0,182,839,120,231,665,
0,199,825,118,230,655,
0,196,813,117,228,647,
0,195,801,129,226,726,
0,193,788,127,224,715,
0,192,775,127,222,704,
0,190,764,126,220,695,
0,188,753,124,218,685,
0,187,743,124,227,676,
0,185,846,123,231,668,
0,203,831,121,230,659,
0,204,819,120,228,649,
0,201,807,120,226,641,
0,199,796,139,224,721,
0,199,783,137,222,711,
0,196,769,136,220,700,
0,195,758,135,219,691,
0,193,748,134,216,681,
0,192,748,133,236,673,
0,191,844,132,234,664,
0,201,829,131,231,655,
0,199,816,129,230,646,
0,198,804,128,228,638,
0,195,792,143,226,716,
0,194,780,142,224,705,
0,192,767,141,223,696,
0,191,756,140,220,686,
0,190,745,139,219,677,
0,188,815,137,238,668,
0,187,852,135,236,659,
0,198,839,135,233,651,
0,196,825,134,231,641,
0,195,812,132,230,682,
0,193,800,131,227,711,
0,192,788,131,226,700,
0,190,775,129,224,691,
0,188,764,129,222,681,
0,187,753,127,220,673,
0,185,856,127,239,664,
0,184,841,126,236,655,
0,198,828,124,235,647,
0,195,815,124,232,637,
0,194,802,123,231,720,
0,192,791,139,229,709,
0,191,779,137,227,699,
0,190,765,136,225,689,
0,188,755,135,223,679,
0,187,743,134,221,671,
0,185,856,133,233,663,
0,184,841,132,231,654,
0,201,828,131,229,646,
0,199,815,130,227,636,
0,198,803,135,225,716,
0,196,791,134,223,705,
0,195,779,132,222,695,
0,193,766,131,220,686,
0,192,755,130,217,676,
0,190,744,129,224,668,
0,188,847,128,229,659,
0,187,833,127,227,651,
0,200,819,126,225,643,
0,199,807,125,224,632,
0,198,796,145,222,713,
0,195,783,143,220,703,
0,194,772,142,217,693,
0,192,759,141,216,684,
0,191,748,140,214,675,
0,189,749,139,227,666,
0,188,849,137,224,657,
0,187,835,135,223,648,
0,185,823,135,221,639,
0,184,809,134,219,632,
0,183,799,159,217,716,
0,181,786,158,216,705,
0,179,775,156,214,696,
0,179,761,156,211,687,
0,177,751,153,210,678,
0,176,812,152,234,668,
0,174,841,152,231,660,
0,224,828,150,230,652,
0,220,815,149,227,643,
0,219,803,147,225,675,
0,216,792,148,224,719,
0,215,780,147,222,710,
0,213,768,146,220,700,
0,211,755,145,217,691,
0,209,744,143,216,681,
0,207,861,143,236,671,
0,206,846,142,234,664,
0,217,831,140,231,655,
0,216,819,139,230,647,
0,214,807,138,228,737,
0,211,795,137,226,728,
0,209,783,136,224,716,
0,207,772,135,223,707,
0,206,759,135,220,696,
0,205,748,134,219,688,
0,204,851,132,237,679,
0,201,836,131,235,670,
0,209,824,131,233,661,
0,207,811,129,231,651,
0,206,799,142,230,742,
0,204,787,140,227,729,
0,202,775,139,225,719,
0,200,764,137,224,710,
0,199,751,137,221,700,
0,198,741,135,227,691,
0,196,849,135,231,681,
0,195,835,134,231,671,
0,225,822,132,228,664,
0,222,809,131,227,654,
0,220,798,159,224,742,
0,219,785,158,223,732,
0,217,774,157,221,721,
0,215,763,156,219,711,
0,213,750,154,216,701,
0,211,764,153,242,692,
0,210,883,152,240,683,
0,227,867,151,238,673,
0,227,854,150,236,665,
0,225,840,148,233,655,
0,224,827,147,231,745,
0,222,814,146,230,735,
0,220,802,145,228,724,
0,217,791,143,226,714,
0,216,776,143,224,704,
0,215,830,142,230,696,
0,213,849,141,227,686,
0,211,836,140,226,677,
0,209,823,139,224,668,
0,207,810,137,222,699,
0,206,798,135,220,742,
0,204,786,135,219,731,
0,203,775,134,216,720,
0,201,764,133,216,711,
0,199,751,132,213,701,
0,199,844,131,324,691,
0,197,830,131,319,683,
0,195,816,129,317,673,
0,193,804,127,315,665,
0,192,792,131,312,752,
0,191,780,148,309,740,
0,189,769,147,307,729,
0,188,758,145,304,719,
0,187,748,144,302,709,
0,184,735,143,299,700,
0,184,834,142,295,690,
0,182,820,140,294,681,
0,225,807,140,291,671,
0,223,796,139,289,664,
0,221,783,137,287,749,
0,219,772,135,284,737,
0,217,761,135,283,728,
0,216,751,134,280,717,
0,214,740,133,278,707,
0,212,728,131,275,697,
0,210,831,131,273,688,
0,208,817,130,271,679,
0,215,804,129,270,671,
0,212,792,127,268,662,
0,211,780,127,265,749,
0,209,769,126,263,738,
0,207,758,125,262,728,
0,206,748,124,259,718,
0,204,737,124,258,707,
0,203,730,123,255,697,
0,201,831,121,254,688,
0,199,818,120,252,679,
0,198,806,120,251,671,
0,196,793,119,248,663,
0,195,782,131,247,744,
0,193,770,131,245,734,
0,192,760,129,243,723,
0,191,748,128,241,713,
0,189,739,127,240,704,
0,188,799,127,240,694,
0,186,831,126,238,685,
0,208,819,124,236,675,
0,206,807,123,235,668,
0,204,795,122,233,659,
0,202,783,134,231,740,
0,199,771,132,230,729,
0,199,760,131,228,719,
0,197,750,130,227,710,
0,195,739,129,225,700,
0,194,851,127,229,691,
0,192,835,127,227,681,
0,225,823,126,225,671,
0,223,809,125,224,664,
0,220,798,124,222,680,
0,219,786,143,220,732,
0,217,775,141,219,722,
0,216,764,140,217,711,
0,214,752,139,216,702,
0,211,739,137,214,693,
0,210,872,136,215,684,
0,208,857,135,213,675,
0,239,843,135,211,666,
0,236,830,134,209,657,
0,234,817,132,208,736,
0,231,804,183,207,735,
0,230,793,180,206,724,
0,228,782,179,204,715,
0,226,771,177,203,704,
0,239,757,176,201,696,
0,244,896,175,223,686,
0,291,884,173,220,676,
0,297,868,172,219,668,
0,295,855,171,217,659,
0,291,842,169,216,739,
0,289,828,167,214,726,
0,286,816,166,211,715,
0,284,804,164,210,705,
0,281,792,163,208,696,
0,280,796,162,207,687,
0,278,881,161,222,678,
0,306,866,159,220,668,
0,306,852,159,217,660,
0,303,839,157,216,652,
0,300,826,157,214,742,
0,296,813,155,212,728,
0,295,801,153,211,718,
0,292,790,152,209,707,
0,289,779,152,207,698,
0,287,852,151,219,688,
0,285,884,150,217,679,
0,308,868,148,216,671,
0,305,855,147,214,662,
0,303,841,146,211,654,
0,300,828,150,209,743,
0,296,816,149,208,731,
0,295,803,147,207,719,
0,291,792,147,205,711,
0,289,781,145,204,700,
0,287,883,144,225,691,
0,284,886,143,222,682,
0,291,870,142,220,673,
0,288,856,141,219,664,
0,286,843,140,217,676,
0,283,829,139,215,743,
0,280,816,138,213,730,
0,279,804,137,211,719,
0,276,793,135,209,710,
0,274,782,135,207,700,
0,271,893,135,217,691,
0,270,894,134,216,682,
0,268,876,132,214,673,
0,266,862,131,211,664,
0,263,848,130,210,740,
0,262,835,135,208,743,
0,259,823,135,207,729,
0,257,810,134,205,719,
0,255,799,132,204,710,
0,254,787,131,202,700,
0,252,896,131,225,690,
0,251,881,129,222,681,
0,252,867,129,220,673,
0,249,852,127,219,664,
0,248,839,138,216,750,
0,246,826,135,215,738,
0,243,814,135,214,726,
0,242,802,134,211,716,
0,240,791,133,209,705,
0,239,780,131,208,696,
0,237,859,131,218,687,
0,236,845,129,216,678,
0,234,831,129,214,669,
0,231,819,127,212,660,
0,231,807,151,211,752,
0,228,795,149,209,742,
0,227,783,147,207,728,
0,225,771,147,206,718,
0,224,761,145,204,708,
0,223,751,143,236,699,
0,222,862,143,237,689,
0,225,847,142,235,679,
0,224,834,140,233,671,
0,222,822,140,231,663,
0,220,809,147,229,748,
0,218,797,145,227,737,
0,216,785,143,225,723,
0,215,774,143,224,713,
0,214,764,142,222,704,
0,212,807,140,235,695,
0,211,863,140,231,686,
0,224,848,138,230,676,
0,222,835,137,228,668,
0,220,822,135,227,680,
0,219,809,135,224,740,
0,216,798,134,223,729,
0,215,786,132,221,716,
0,213,775,131,220,707,
0,211,764,131,217,697,
0,212,864,129,227,688,
0,211,864,129,225,679,
0,224,849,127,223,670,
0,222,836,127,221,662,
0,220,824,126,220,734,
0,218,811,127,217,737,
0,216,798,127,216,723,
0,214,787,126,214,713,
0,212,775,125,212,704,
0,211,765,124,211,695,
0,209,886,123,227,685,
0,210,868,122,224,676,
0,208,854,121,223,668,
0,207,840,120,221,659,
0,206,828,120,219,750,
0,204,815,120,217,738,
0,202,803,119,216,724,
0,201,792,118,214,715,
0,199,780,116,212,705,
0,200,769,116,211,696,
0,199,858,115,225,687,
0,211,840,115,223,678,
0,213,827,113,220,669,
0,211,814,113,219,660,
0,209,803,129,217,746,
0,207,790,127,216,735,
0,205,779,126,214,721,
0,204,768,126,211,711,
0,202,757,124,210,702,
0,200,765,124,233,692,
0,199,880,132,231,684,
0,198,861,131,230,675,
0,196,847,131,227,666,
0,195,833,129,225,657,
0,194,821,140,224,737,
0,193,808,139,222,727,
0,191,797,137,220,714,
0,190,785,135,219,704,
0,188,774,135,216,695,
0,188,822,134,231,686,
0,186,862,133,228,676,
0,185,844,132,226,668,
0,184,831,131,224,659,
0,183,819,129,223,675,
0,182,807,128,220,727,
0,179,795,127,219,716,
0,179,783,127,216,704,
0,177,771,126,215,694,
0,176,761,124,213,685,
0,176,858,124,228,675,
0,174,866,151,226,667,
0,204,847,149,224,658,
0,201,835,148,222,650,
0,199,822,147,220,727,
0,198,809,155,217,722,
0,196,797,153,216,711,
0,195,785,152,215,700,
0,193,775,151,212,691,
0,192,764,150,211,681,
0,190,877,148,224,671,
0,188,862,147,221,664,
0,193,844,146,219,655,
0,192,831,145,217,647,
0,190,819,171,216,733,
0,188,806,167,214,721,
0,187,794,167,211,711,
0,185,783,164,210,700,
0,184,771,163,208,689,
0,182,761,162,211,681,
0,181,871,160,238,671,
0,190,857,159,236,663,
0,189,839,158,233,655,
0,187,827,157,231,647,
0,185,814,156,230,737,
0,184,801,155,227,726,
0,182,790,153,226,716,
0,181,779,152,224,704,
0,179,768,151,222,694,
0,178,758,150,245,684,
0,177,871,173,243,675,
0,180,856,172,241,667,
0,179,839,169,239,659,
0,177,826,167,237,650,
0,176,814,167,235,739,
0,175,801,166,233,728,
0,173,790,164,231,718,
0,172,779,163,230,705,
0,171,768,161,227,696,
0,170,819,160,248,688,
0,168,878,159,245,678,
0,192,863,158,243,669,
0,191,845,156,240,660,
0,189,831,155,239,668,
0,188,819,170,236,748,
0,185,807,168,235,736,
0,184,796,167,232,727,
0,183,783,166,231,713,
0,181,773,164,229,704,
0,179,851,163,242,695,
0,178,857,161,240,685,
0,177,840,160,238,676,
0,176,828,159,236,668,
0,174,815,158,234,734,
0,172,802,196,231,748,
0,172,791,194,230,736,
0,169,779,192,227,726,
0,168,768,190,226,713,
0,167,758,189,224,704,
0,167,873,187,231,695,
0,166,858,185,230,686,
0,183,840,184,228,676,
0,182,828,183,226,668,
0,179,815,182,224,755,
0,178,802,179,223,743,
0,177,791,179,220,733,
0,175,779,177,219,723,
0,174,768,176,217,711,
0,172,758,174,216,701,
0,171,865,173,227,691,
0,169,850,172,226,682,
0,168,833,171,224,673,
0,167,820,169,222,665,
0,166,807,167,220,752,
0,164,796,167,218,741,
0,163,783,165,216,730,
0,162,773,164,215,719,
0,161,762,163,212,707,
0,159,752,161,222,699,
0,159,865,160,222,689,
0,169,851,159,220,679,
0,167,834,158,217,671,
0,167,821,157,216,663,
0,166,808,156,214,748,
0,163,796,155,212,736,
0,163,785,153,210,726,
0,161,774,152,208,716,
0,159,763,151,207,704,
0,159,809,150,240,695,
0,158,864,148,238,685,
0,163,850,147,235,676,
0,161,833,147,233,668,
0,159,820,145,231,678,
0,159,807,144,229,746,
0,158,796,143,227,735,
0,156,784,143,225,724,
0,156,774,141,224,715,
0,154,763,140,222,703,
0,153,848,140,246,693,
0,152,856,139,243,684,
0,173,843,137,241,675,
0,172,827,135,240,667,
0,170,814,135,237,736,
0,168,801,161,235,742,
0,167,790,159,233,731,
0,166,778,158,231,720,
0,164,768,156,230,711,
0,163,757,155,227,700,
0,162,865,153,241,689,
0,161,849,152,239,680,
0,169,836,152,238,671,
0,167,820,150,235,664,
0,167,808,167,232,750,
0,165,796,166,231,738,
0,163,783,164,229,728,
0,163,772,163,227,717,
0,161,762,161,225,707,
0,165,752,159,224,696,
0,163,868,159,237,686,
0,163,854,157,235,677,
0,163,839,156,233,668,
0,161,824,155,231,660,
0,159,812,153,228,744,
0,159,799,152,227,734,
0,158,787,152,225,723,
0,156,775,150,224,713,
0,155,765,148,222,704,
0,155,755,147,240,691,
0,153,867,146,240,683,
0,182,852,145,238,673,
0,179,838,144,236,665,
0,178,822,143,233,656,
0,176,809,143,231,742,
0,175,798,142,230,730,
0,174,786,141,227,719,
0,172,775,140,225,710,
0,171,764,139,224,700,
0,169,802,137,237,688,
0,167,856,135,235,679,
0,167,841,135,232,671,
0,166,828,135,231,662,
0,164,812,134,228,671,
0,163,800,166,227,739,
0,161,788,163,225,728,
0,160,777,162,223,718,
0,159,766,161,221,708,
0,158,755,159,220,696,
0,156,854,158,236,687,
0,156,864,156,233,678,
0,192,849,155,231,669,
0,190,835,153,230,661,
0,188,819,152,227,735,
0,187,807,176,225,741,
0,184,796,175,224,731,
0,184,783,173,222,719,
0,182,772,172,220,710,
0,179,762,169,218,699,
0,179,861,167,228,689,
0,177,846,167,227,679,
0,188,831,166,224,671,
0,187,819,164,223,663,
0,185,804,163,220,748,
0,184,792,162,219,736,
0,182,780,161,216,726,
0,180,769,159,215,715,
0,179,759,158,214,705,
0,177,748,156,214,694,
0,176,862,156,240,684,
0,175,847,154,237,675,
0,177,833,153,236,667,
0,176,821,152,233,658,
0,174,806,151,231,739,
0,172,793,150,228,728,
0,172,782,148,227,718,
0,170,771,147,225,708,
0,168,760,146,224,699,
0,167,750,145,226,687,
0,167,855,143,227,678,
0,166,840,143,226,668,
0,164,827,142,224,660,
0,163,815,141,222,652,
0,162,799,169,220,734,
0,160,787,167,218,723,
0,159,775,166,216,713,
0,158,765,164,215,704,
0,157,754,163,213,694,
0,164,799,161,237,683,
0,163,860,160,235,673,
0,163,845,159,231,664,
0,162,831,158,231,656,
0,160,819,156,228,660,
0,159,803,172,226,727,
0,158,792,171,224,716,
0,157,780,169,223,706,
0,156,769,167,220,696,
0,155,759,167,219,687,
0,153,865,165,233,675,
0,152,872,163,231,667,
0,171,858,162,230,658,
0,169,844,161,227,650,
0,167,831,159,225,722,
0,167,816,159,224,731,
0,165,803,158,222,720,
0,163,792,156,220,711,
0,162,780,155,218,700,
0,161,769,153,216,691,
0,159,863,152,227,679,
0,158,848,151,225,671,
0,158,835,150,223,663,
0,156,822,148,221,654,
0,155,809,148,220,743,
0,154,794,147,217,731,
0,152,783,146,216,720,
0,152,771,145,214,711,
0,151,760,143,211,700,
0,158,750,143,211,691,
0,156,878,142,224,679,
0,156,863,140,222,671,
0,167,848,140,220,663,
0,166,835,139,218,654,
0,164,823,139,216,739,
0,163,807,137,214,728,
0,161,795,136,212,717,
0,159,783,135,211,707,
0,159,772,135,209,697,
0,159,761,134,231,688,
0,158,871,132,228,676,
0,162,856,131,227,668,
0,160,844,131,225,659,
0,159,830,129,223,652,
0,158,817,167,221,736,
0,156,802,164,219,726,
0,155,790,163,217,716,
0,154,779,161,215,705,
0,152,768,160,214,696,
0,152,799,159,242,687,
0,151,853,158,239,675,
0,192,839,156,237,667,
0,190,825,155,235,659,
0,188,813,154,233,666,
0,186,798,153,231,736,
0,184,786,152,229,726,
0,184,775,151,227,716,
0,182,764,150,225,705,
0,180,753,148,224,696,
0,179,837,147,241,687,
0,177,840,145,240,675,
0,182,827,144,238,667,
0,179,814,143,236,658,
0,179,801,142,233,722,
0,177,787,142,231,732,
0,175,775,141,229,722,
0,174,764,140,227,711,
0,172,753,139,225,702,
0,172,743,138,224,692,
0,169,864,137,238,684,
0,167,848,135,236,672,
0,167,835,135,233,664,
0,167,822,134,231,655,
0,165,809,133,230,745,
0,164,794,131,227,734,
0,163,783,131,225,723,
0,161,771,130,224,713,
0,160,760,129,222,704,
0,159,750,127,220,695,
0,158,859,127,229,685,
0,164,845,126,227,673,
0,172,831,125,225,665,
0,171,818,124,223,657,
0,169,806,135,221,750,
0,167,791,135,220,739,
0,167,779,133,217,728,
0,166,768,132,216,718,
0,164,758,131,214,707,
0,163,747,130,223,699,
0,161,853,129,222,689,
0,192,839,127,220,678,
0,192,825,127,217,669,
0,190,813,126,216,660,
0,188,801,155,215,748,
0,187,786,153,212,737,
0,185,775,152,211,727,
0,184,764,150,209,716,
0,183,753,149,207,707,
0,181,790,148,233,697,
0,179,863,147,231,688,
0,178,849,145,230,676,
0,176,835,144,227,668,
0,175,822,143,225,673,
0,174,809,153,224,748,
0,172,795,152,222,737,
0,171,783,151,220,728,
0,170,772,150,218,717,
0,168,761,148,216,707,
0,167,862,147,236,697,
0,166,871,173,233,688,
0,165,856,172,231,678,
0,163,843,169,230,668,
0,163,830,167,227,733,
0,161,817,167,225,744,
0,160,801,166,224,734,
0,159,790,164,221,723,
0,158,779,163,220,713,
0,156,768,161,217,704,
0,156,869,160,234,694,
0,155,854,159,231,685,
0,185,839,158,230,674,
0,184,827,156,227,665,
0,182,814,184,227,751,
0,180,801,182,224,739,
0,179,787,180,222,728,
0,177,775,179,220,718,
0,176,765,177,219,708,
0,175,755,176,217,699,
0,174,867,175,243,689,
0,172,851,199,241,680,
0,172,838,198,239,670,
0,170,824,196,236,661,
0,168,812,195,235,739,
0,167,799,193,233,728,
0,166,785,192,231,718,
0,164,774,190,229,708,
0,163,764,188,227,699,
0,162,753,187,246,689,
0,161,880,185,243,679,
0,161,864,184,240,671,
0,159,851,182,239,661,
0,159,837,181,236,652,
0,158,824,179,235,740,
0,157,812,178,232,729,
0,156,797,177,231,719,
0,155,785,176,228,708,
0,153,774,174,227,700,
0,152,816,173,231,690,
0,152,870,172,230,681,
0,199,855,170,228,671,
0,197,841,168,227,662,
0,195,828,167,224,665,
0,193,816,167,223,738,
0,192,803,165,221,728,
0,190,788,163,219,717,
0,188,777,163,217,707,
0,187,767,161,216,697,
0,185,853,160,240,688,
0,184,857,159,239,679,
0,196,844,158,236,671,
0,194,830,156,235,659,
0,192,817,156,232,724,
0,191,804,154,231,735,
0,189,792,153,228,723,
0,188,779,152,226,713,
0,187,768,151,224,704,
0,185,757,150,223,695,
0,184,861,149,243,685,
0,182,847,147,241,676,
0,223,831,147,239,665,
0,220,819,145,236,657,
0,219,807,144,235,744,
0,216,796,143,232,732,
0,215,783,143,231,722,
0,213,769,141,228,711,
0,211,759,140,227,702,
0,209,748,140,225,694,
0,207,863,139,240,684,
0,206,847,137,237,675,
0,204,835,135,236,664,
0,204,822,135,233,655,
0,201,809,163,231,742,
0,199,797,161,230,731,
0,199,785,159,227,720,
0,197,771,159,225,711,
0,195,760,158,224,700,
0,194,750,156,238,691,
0,192,868,156,238,683,
0,192,854,154,236,673,
0,192,839,152,233,663,
0,190,827,152,231,655,
0,189,815,152,230,745,
0,188,802,151,227,734,
0,185,790,150,226,723,
0,184,775,148,224,713,
0,184,765,147,222,704,
0,182,803,145,243,695,
0,180,861,166,241,685,
0,209,847,163,239,675,
0,220,833,162,237,665,
0,217,820,160,236,668,
0,216,808,172,233,748,
0,214,796,169,231,737,
0,212,785,168,230,727,
0,210,771,167,227,716,
0,208,760,166,225,707,
0,207,844,164,248,697,
0,205,849,163,245,688,
0,204,835,161,243,679,
0,201,823,160,241,668,
0,199,810,159,239,728,
0,199,798,158,237,744,
0,197,786,156,235,734,
0,195,775,156,233,723,
0,194,761,154,231,713,
0,192,751,153,229,704,
0,192,818,152,239,695,
0,190,804,151,236,685,
0,188,792,150,235,676,
0,187,780,148,232,665,
0,185,769,147,231,756,
0,184,758,145,228,744,
0,183,747,144,227,734,
0,181,737,143,225,723,
0,179,725,143,223,713,
0,179,716,142,221,704,
0,177,846,140,236,694,
0,176,831,140,233,685,
0,189,819,139,231,676,
0,188,806,137,230,665,
0,185,794,137,227,748,
0,184,782,135,226,736,
0,183,771,135,224,726,
0,182,760,135,222,716,
0,180,747,134,220,706,
0,179,737,132,238,696,
0,177,858,131,239,688,
0,176,844,131,236,679,
0,175,831,129,235,670,
0,174,818,128,231,659,
0,173,806,128,231,743,
0,171,793,127,228,733,
0,170,782,127,227,723,
0,168,771,126,225,712,
0,167,758,125,223,703,
0,167,801,124,240,694,
0,165,866,124,238,684,
0,171,852,123,236,675,
0,169,839,121,234,667,
0,167,825,120,231,665,
0,167,813,123,231,742,
0,166,800,121,228,730,
0,164,788,121,227,719,
0,163,777,120,225,710,
0,162,764,119,223,700,
0,161,847,119,236,691,
0,159,860,118,235,682,
0,177,846,116,231,673,
0,175,832,115,231,664,
0,174,820,115,228,726,
0,172,807,114,227,741,
0,171,796,113,225,730,
0,169,783,112,223,719,
0,167,770,112,221,710,
0,167,760,111,219,700,
0,166,863,111,241,691,
0,164,848,110,240,681,
0,172,834,109,237,672,
0,171,821,108,235,664,
0,169,808,117,233,751,
0,167,796,116,231,739,
0,167,785,115,230,728,
0,165,774,114,227,718,
0,164,760,113,225,707,
0,163,750,112,224,699,
0,161,867,112,234,689,
0,160,852,111,231,679,
0,167,839,140,231,671,
0,166,825,156,228,664,
0,165,813,184,227,743,
0,163,799,182,224,732,
0,162,788,179,223,721,
0,161,777,179,221,711,
0,159,763,177,220,702,
0,159,753,176,236,692,
0,158,862,174,236,684,
0,159,847,172,233,674,
0,165,834,171,231,665,
0,163,822,169,230,657,
0,162,809,167,227,740,
0,161,797,167,226,730,
0,159,785,166,224,719,
0,158,774,164,222,710,
0,157,760,163,220,700,
0,156,796,162,230,691,
0,155,866,160,228,681,
0,184,851,159,226,671,
0,187,838,158,224,664,
0,184,825,156,223,655,
0,183,812,156,220,736,
0,182,800,155,219,726,
0,180,788,153,217,716,
0,179,777,152,216,705,
0,177,764,152,214,696,
0,176,859,151,237,687,
0,175,869,149,235,678,
0,207,855,147,232,668,
0,205,841,147,231,660,
0,203,828,145,228,652,
0,200,815,145,227,732,
0,199,803,143,225,721,
0,198,792,143,223,711,
0,195,780,142,221,701,
0,194,766,140,220,692,
0,193,879,140,233,683,
0,191,864,139,231,673,
0,190,849,137,229,665,
0,188,836,136,227,656,
0,187,824,135,225,702,
0,184,811,135,224,719,
0,184,799,134,221,708,
0,182,787,132,220,699,
0,180,775,131,217,689,
0,179,762,131,216,680,
0,178,874,129,242,671,
0,176,860,129,240,663,
0,207,845,127,238,654,
0,206,831,127,236,646,
0,204,819,159,234,728,
0,203,807,157,231,713,
0,200,795,156,230,704,
0,199,783,155,228,694,
0,198,772,153,226,684,
0,195,760,152,233,675,
0,194,870,151,234,667,
0,193,855,150,231,658,
0,195,840,148,230,650,
0,193,828,147,228,642,
0,191,816,145,227,728,
0,190,803,145,224,713,
0,188,792,143,223,704,
0,187,780,143,221,695,
0,185,769,142,219,685,
0,184,795,140,245,675,
0,183,865,139,243,667,
0,184,851,138,240,659,
0,183,838,137,239,650,
0,180,824,135,236,642,
0,179,812,140,234,732,
0,177,799,139,231,719,
0,176,788,138,231,708,
0,175,777,137,228,699,
0,174,766,135,227,689,
0,173,854,135,243,679,
0,171,867,134,241,671,
0,231,852,132,240,663,
0,227,839,131,238,654,
0,225,826,131,236,647,
0,224,814,129,233,732,
0,222,801,128,231,721,
0,220,790,127,230,711,
0,217,779,127,227,702,
0,216,768,126,226,692,
0,215,879,125,249,683,
0,212,864,124,248,674,
0,211,849,123,245,665,
0,209,836,122,243,657,
0,207,824,121,241,696,
0,206,811,120,239,736,
0,204,799,120,237,725,
0,203,787,119,235,715,
0,201,775,118,233,705,
0,199,765,117,231,696,
0,198,871,116,241,687,
0,196,857,115,239,678,
0,205,843,115,236,669,
0,203,830,114,235,660,
0,201,817,113,233,755,
0,199,804,124,231,740,
0,198,792,123,229,729,
0,196,781,122,227,719,
0,195,770,121,225,710,
0,193,760,120,224,700,
0,192,868,120,241,691,
0,193,854,118,239,681,
0,203,840,118,236,672,
0,200,828,116,235,664,
0,199,816,134,233,752,
0,197,803,132,231,737,
0,195,791,131,229,728,
0,194,780,129,227,717,
0,193,768,129,225,707,
0,191,758,127,240,697,
0,190,873,127,246,688,
0,189,859,126,243,679,
0,188,845,124,241,670,
0,186,831,124,239,662,
0,185,819,148,237,747,
0,184,807,147,235,733,
0,182,795,145,233,723,
0,180,783,143,231,712,
0,179,772,143,230,703,
0,178,778,142,236,694,
0,176,864,140,233,684,
0,190,849,140,231,675,
0,188,836,138,230,667,
0,186,823,137,227,659,
0,184,810,140,226,744,
0,183,798,138,224,731,
0,181,787,137,223,720,
0,179,775,135,221,711,
0,179,764,135,219,701,
0,177,838,134,241,691,
0,176,864,133,238,682,
0,198,849,131,236,673,
0,195,835,131,234,664,
0,194,823,129,231,707,
0,192,810,129,230,743,
0,191,798,127,228,730,
0,189,787,127,226,719,
0,188,775,126,224,710,
0,185,764,124,223,701,
0,184,873,124,244,691,
0,183,863,123,241,682,
0,189,849,122,240,673,
0,188,835,121,237,664,
0,186,824,120,236,752,
0,184,811,120,233,739,
0,183,798,118,231,726,
0,181,787,118,230,716,
0,179,775,116,227,706,
0,179,764,115,226,696,
0,177,875,115,249,688,
0,182,856,114,247,679,
0,188,841,113,244,670,
0,186,828,112,242,661,
0,185,816,124,240,743,
0,183,803,123,238,732,
0,182,792,120,236,719,
0,180,780,120,234,710,
0,179,769,119,231,700,
0,177,760,118,237,691,
0,176,864,117,240,681,
0,178,846,116,237,671,
0,178,832,115,235,664,
0,176,819,114,232,655,
0,175,807,127,231,740,
0,173,796,126,229,729,
0,172,783,125,227,716,
0,171,772,124,225,707,
0,169,761,123,224,697,
0,167,766,122,241,688,
0,167,855,121,240,679,
0,236,838,120,237,670,
0,233,824,120,235,662,
0,231,812,118,233,653,
0,230,799,124,231,741,
0,227,787,123,229,730,
0,225,775,121,227,718,
0,224,765,121,225,707,
0,222,755,120,224,697,
0,220,824,119,243,688,
0,218,856,118,240,679,
0,216,842,117,238,670,
0,215,829,116,236,662,
0,214,816,115,234,700,
0,211,804,123,231,738,
0,209,792,122,230,728,
0,207,780,120,228,715,
0,206,769,120,227,705,
0,204,760,119,224,696,
0,203,875,118,231,686,
0,201,857,117,231,677,
0,219,844,116,227,668,
0,217,830,115,225,659,
0,216,817,114,224,748,
0,214,805,121,222,736,
0,211,793,121,220,726,
0,209,782,120,219,713,
0,207,771,119,217,703,
0,206,760,118,216,694,
0,205,870,127,232,684,
0,204,851,129,231,675,
0,206,838,128,228,667,
0,204,824,127,226,659,
0,203,812,131,224,743,
0,201,799,130,223,732,
0,199,787,129,220,721,
0,198,776,127,219,709,
0,196,766,126,217,700,
0,195,755,126,227,690,
0,193,871,124,236,680,
0,196,852,124,233,671,
0,198,839,123,231,664,
0,195,825,121,229,655,
0,194,813,124,227,743,
0,192,800,124,225,732,
0,191,789,122,224,722,
0,189,777,121,222,710,
0,188,768,120,220,700,
0,187,771,120,235,691,
0,185,865,125,235,681,
0,235,847,124,232,671,
0,231,835,123,230,664,
0,231,822,121,228,655,
0,228,809,145,227,747,
0,227,797,143,224,736,
0,224,785,142,223,726,
0,223,775,141,221,713,
0,220,764,140,219,704,
0,219,827,139,235,694,
0,217,855,137,232,684,
0,216,837,135,231,675,
0,214,824,135,228,667,
0,212,812,134,226,702,
0,211,799,136,224,743,
0,209,787,135,222,733,
0,207,775,134,220,723,
0,206,765,133,219,711,
0,204,755,132,217,701,
0,202,867,131,230,691,
0,201,852,130,227,683,
0,214,835,129,225,673,
0,211,823,127,223,664,
0,210,810,127,221,752,
0,207,798,132,220,739,
0,207,786,131,217,728,
0,204,775,130,216,719,
0,203,764,129,215,706,
0,201,753,127,212,697,
0,199,868,127,243,688,
0,199,854,126,241,679,
0,218,836,125,239,670,
0,216,824,124,237,661,
0,214,811,150,235,748,
0,212,799,147,232,736,
0,211,787,146,231,726,
0,208,775,144,229,716,
0,207,765,143,227,704,
0,205,755,142,232,695,
0,204,851,141,236,685,
0,221,837,140,235,676,
0,224,820,139,231,668,
0,223,807,137,231,659,
0,220,796,135,228,742,
0,219,783,135,227,730,
0,217,773,134,224,719,
0,215,762,133,223,710,
0,213,752,132,221,697,
0,211,756,131,251,688,
0,209,855,130,248,679,
0,207,840,129,246,670,
0,206,824,127,243,662,
0,204,811,127,241,654,
0,203,799,144,239,736,
0,201,787,143,237,726,
0,199,775,142,235,716,
0,198,765,140,233,704,
0,196,754,140,231,694,
0,195,817,139,243,685,
0,194,854,137,241,675,
0,206,839,135,239,667,
0,204,824,135,237,658,
0,202,811,134,235,693,
0,200,798,133,233,736,
0,199,787,131,231,725,
0,198,775,131,229,715,
0,195,764,130,227,703,
0,194,753,128,225,694,
0,192,839,127,243,684,
0,191,824,127,241,675,
0,194,812,126,239,666,
0,192,796,124,236,657,
0,191,784,124,235,740,
0,190,773,124,232,728,
0,188,762,124,231,718,
0,187,751,123,229,707,
0,185,741,121,227,696,
0,192,731,120,225,687,
0,192,881,120,236,678,
0,193,865,120,233,668,
0,220,851,119,231,660,
0,217,834,118,230,652,
0,216,822,135,227,740,
0,214,808,132,225,729,
0,212,797,131,224,719,
0,211,785,131,222,709,
0,208,774,129,220,697,
0,207,764,127,230,688,
0,205,867,127,236,679,
0,230,852,126,233,670,
0,230,839,125,231,662,
0,227,823,124,229,653,
0,225,810,135,227,739,
0,224,798,133,225,728,
0,222,786,131,224,718,
0,220,775,131,222,708,
0,217,764,129,220,696,
0,216,766,128,242,687,
0,215,870,127,240,678,
0,213,855,126,238,668,
0,211,841,125,236,660,
0,209,825,124,233,652,
0,207,812,152,231,735,
0,207,799,150,230,724,
0,205,788,148,227,714,
0,203,777,147,225,704,
0,201,767,146,224,692,
0,199,823,145,250,683,
0,198,859,143,248,674,
0,197,845,143,246,665,
0,195,831,142,243,657,
0,194,816,140,241,695,
0,192,803,152,239,740,
0,191,792,151,237,729,
0,190,780,150,236,719,
0,188,769,148,233,710,
0,187,758,147,231,697,
0,186,873,145,236,688,
0,184,874,144,233,679,
0,193,860,143,231,670,
0,192,846,142,230,662,
0,191,830,141,227,751,
0,189,816,144,225,739,
0,188,804,143,224,728,
0,186,792,142,222,718,
0,184,781,141,220,708,
0,183,770,140,219,696,
0,182,870,139,236,687,
0,180,856,137,233,678,
0,185,840,135,231,669,
0,184,828,135,230,660,
0,183,812,146,227,749,
0,181,799,144,225,737,
0,179,788,143,224,727,
0,178,776,142,222,716,
0,176,766,140,220,707,
0,176,755,140,233,696,
0,174,873,138,243,686,
0,211,858,137,241,676,
0,216,844,135,239,668,
0,214,831,135,237,659,
0,212,815,140,235,744,
0,210,803,139,232,734,
0,208,791,138,231,723,
0,207,780,137,229,713,
0,204,768,135,227,704,
0,203,763,135,243,691,
0,201,856,134,240,683,
0,200,841,132,238,673,
0,199,828,131,236,665,
0,198,816,130,233,656,
0,195,799,147,231,741,
0,194,788,145,230,730,
0,193,777,144,227,719,
0,192,766,143,226,710,
0,190,755,142,224,700,
0,192,812,140,243,688,
0,191,847,139,240,679,
0,199,833,138,239,671,
0,197,819,137,236,662,
0,195,804,135,235,691,
0,193,792,166,231,737,
0,192,781,164,230,727,
0,190,769,163,228,716,
0,189,759,161,226,707,
0,187,748,159,224,697,
0,185,860,159,231,686,
0,184,851,157,229,676,
0,204,837,156,227,668,
0,201,824,155,225,659,
0,199,807,153,224,749,
0,198,796,176,221,736,
0,196,784,174,220,726,
0,195,774,173,217,716,
0,193,762,171,216,705,
0,192,752,169,215,696,
0,190,879,167,243,685,
0,189,864,167,241,675,
0,214,849,165,239,667,
0,211,836,163,237,659,
0,209,820,181,236,749,
0,207,807,179,233,737,
0,206,796,177,231,728,
0,204,783,176,230,717,
0,203,772,174,227,707,
0,200,763,173,229,697,
0,199,871,171,236,686,
0,207,857,169,235,676,
0,213,843,167,232,668,
0,211,830,167,231,659,
0,209,814,167,228,748,
0,207,801,166,227,736,
0,206,790,164,224,726,
0,204,779,163,223,716,
0,203,768,162,221,706,
0,200,766,160,242,697,
0,199,865,159,240,685,
0,198,851,158,238,676,
0,196,838,157,236,668,
0,195,824,156,233,659,
0,193,809,155,231,743,
0,192,797,153,229,732,
0,190,785,152,227,721,
0,188,774,151,225,711,
0,187,763,150,224,702,
0,191,828,148,241,692,
0,189,864,147,240,681,
0,215,850,147,237,671,
0,212,836,145,236,664,
0,211,824,144,233,695,
0,209,807,147,231,742,
0,207,796,147,229,731,
0,206,784,145,227,720,
0,204,774,144,225,711,
0,202,763,143,224,701,
0,199,865,142,231,691,
0,199,860,141,230,680,
0,211,847,140,227,671,
0,209,833,139,225,664,
0,207,820,137,224,750,
0,206,805,161,222,737,
0,204,793,159,220,727,
0,203,782,158,218,716,
0,201,771,157,216,707,
0,199,760,156,215,697,
0,198,877,154,237,688,
0,196,862,153,235,676,
0,209,847,152,233,668,
0,207,834,151,231,659,
0,205,822,151,230,747,
0,204,806,150,227,735,
0,202,794,148,225,724,
0,199,782,147,223,715,
0,199,771,146,221,704,
0,197,760,145,220,696,
0,195,866,143,231,686,
0,198,851,143,228,675,
0,197,838,142,227,665,
0,195,824,140,225,657,
0,193,812,147,223,743,
0,192,797,146,220,732,
0,191,785,145,219,722,
0,189,774,143,216,711,
0,188,764,143,216,703,
0,187,753,141,231,694,
0,184,856,140,231,684,
0,225,843,139,229,672,
0,223,829,137,227,664,
0,221,816,136,225,655,
0,220,804,156,223,743,
0,217,790,155,221,732,
0,216,777,153,219,721,
0,214,768,152,217,711,
0,212,756,152,216,702,
0,210,812,150,236,692,
0,207,849,148,235,683,
0,207,835,147,231,671,
0,205,822,146,230,664,
0,204,809,145,228,691,
0,202,798,143,227,740,
0,199,783,143,224,729,
0,199,771,142,222,719,
0,197,761,140,220,710,
0,195,750,140,219,700,
0,195,857,139,239,691,
0,192,847,137,236,679,
0,191,833,135,235,671,
0,190,820,135,232,663,
0,188,807,134,231,750,
0,187,796,134,228,739,
0,185,782,133,226,728,
0,184,771,132,224,718,
0,183,760,131,223,707,
0,181,749,130,220,699,
0,181,779,129,238,689,
0,179,768,127,236,678,
0,179,755,127,233,669,
0,178,744,126,231,660,
0,177,735,150,230,748,
0,176,726,147,227,737,
0,174,713,146,225,727,
0,173,704,145,224,716,
0,172,696,143,222,707,
0,171,687,143,224,697,
0,169,835,141,236,688,
0,204,822,140,233,676,
0,216,808,139,231,668,
