=~=~=~=~=~=~=~=~=~=~=~= PuTTY log 2021.04.22 11:16:31 =~=~=~=~=~=~=~=~=~=~=~=
,408,243,
0,451,790,548,405,241,
0,448,778,543,401,240,
0,441984,481,417,204,
0,710,869,476,414,227,
0,700,855,471,409,224,
0,688,841,464,907,492,426,205,
0,591,905,487,422,205,
0,703,884,481,417,204,
0,710,869,476,414,227,
0,700,855,471,409,224,
0,688,841,464,406,222,
0,679,828,460,401,220,
0,605,
0,703,884,481,417,204,
0,710,869,476,414,227,
0,700,855,471,409,224,
0,688,841,464,406,222,
0,679,828,460,401,220,
0,671,816,455,398,217,
0,662,803,451,395,216,
0,655,894,460,433,215,
0,647,908,455,428bj
0,639,905,451,423,220,
0,773,883,446,419,217,
0,76StartUp!
127,465,871,504,409,233,
0,483,860,500,406,231,
0,479,849,496,403,231,
0,475,839,492,400,229,
0,471,828,487,398,227,
0,467,819,484,396,227,
0,463,809,481,391,225,
0,460,799,477,390,224,
0,455,792,473,387,223,
0,452,783,470,385,222,
0,449,898,504,414,220,
0,445,893,499,409,217,
0,440,876,492,406,218,
0,496,861,487,401,216,
0,491,847,481,398,216,
0,484,833,476,393,214,
0,480,820,472,390,211,
0,474,804,467,385,210,
0,469,792,462,382,209,
0,464,782,457,398,207,
0,460,899,483,393,206,
0,455,884,478,390,204,
0,467,870,471,386,203,
0,548,855,465,383,201,
0,542,840,461,379,229,
0,536,828,455,376,227,
0,529,814,451,372,225,
0,523,799,448,368,223,
0,517,787,443,365,221,
0,511,835,440,399,220,
0,505,902,487,397,219,
0,504,883,481,393,217,
0,564,869,476,390,234,
0,593,854,470,385,233,
0,585,839,464,382,237,
0,578,827,460,379,235,
0,572,814,455,376,232,
0,564,799,451,371,231,
0,558,787,446,368,228,
0,551,880,476,423,227,
0,545,901,515,419,225,
0,540,886,508,415,223,
0,624,870,501,411,244,
0,615,856,496,408,260,
0,608,841,491,403,257,
0,600,828,486,399,255,
0,592,816,480,396,253,
0,585,800,476,391,251,
0,579,788,471,387,248,
0,572,894,545,430,247,
0,565,902,539,425,244,
0,559,884,532,422,243,
0,632,868,525,417,240,
0,624,854,519,413,268,
1,615,840,514,409,265,
1,608,827,508,405,263,
1,600,815,503,401,260,
1,593,799,497,396,258,
1,587,787,492,403,255,
1,580,898,550,441,254,
2,573,900,542,437,252,
2,567,881,536,432,249,
2,595,867,528,428,247,
2,588,852,523,423,265,
3,581,839,517,420,263,
3,574,825,511,416,260,
3,568,813,506,412,258,
3,561,798,500,408,255,
3,555,799,496,451,254,
3,548,902,551,446,252,
3,543,902,545,441,249,
3,537,883,539,436,248,
3,557,867,531,432,244,
3,550,853,525,428,264,
3,543,839,519,423,262,
4,537,825,514,420,259,
4,531,813,508,415,257,
4,526,798,504,412,255,
4,520,853,498,454,253,
4,515,903,561,448,251,
4,510,896,555,444,248,
4,560,876,548,440,247,
4,553,862,540,435,244,
4,546,847,535,431,243,
4,540,834,528,426,241,
4,534,822,523,422,239,
4,527,808,517,418,236,
4,521,793,512,414,235,
4,516,883,528,455,233,
4,511,902,559,450,231,
4,505,887,551,446,230,
4,569,871,545,441,227,
4,562,856,537,436,243,
4,555,843,531,432,240,
4,548,829,526,428,239,
4,543,816,520,423,236,
3,536,804,515,420,235,
3,530,789,510,415,231,
3,525,894,575,454,231,
3,519,903,568,448,228,
3,513,886,561,444,228,
3,591,870,555,440,227,
3,583,856,547,435,248,
3,577,841,540,431,246,
3,569,828,535,427,243,
3,563,816,529,423,241,
3,557,803,523,419,240,
3,551,788,518,423,238,
3,544,898,563,454,235,
3,538,897,556,449,233,
3,532,879,550,445,231,
3,593,864,543,440,230,
3,585,849,536,436,259,
3,579,836,529,432,255,
3,572,823,524,428,254,
3,564,810,519,423,252,
3,558,798,513,419,249,
3,551,794,508,459,248,
3,546,900,568,455,245,
3,540,894,560,449,243,
3,534,876,553,446,241,
3,622,860,547,441,239,
3,614,847,540,436,276,
3,606,833,534,432,273,
3,599,820,527,428,271,
3,591,807,522,423,268,
3,583,792,516,420,266,
3,577,849,511,463,263,
3,571,901,562,457,262,
3,564,887,555,452,259,
3,561,871,548,448,258,
2,629,856,543,444,255,
3,621,843,535,440,265,
2,613,830,529,435,263,
3,606,816,523,431,260,
2,599,804,518,427,258,
2,591,790,512,423,255,
2,583,882,521,447,254,
2,577,899,553,441,252,
2,571,881,547,438,249,
2,625,865,540,433,251,
2,643,851,534,428,253,
2,635,838,527,423,259,
2,627,824,521,420,255,
2,619,812,515,416,255,
1,611,799,510,413,252,
1,604,785,504,409,249,
1,598,894,548,448,248,
2,590,897,541,442,246,
1,583,880,535,438,243,
1,689,864,529,433,242,
1,675,850,523,429,268,
1,666,836,516,424,263,
1,657,824,510,421,262,
1,649,811,505,417,259,
1,641,799,499,413,257,
1,633,783,495,409,255,
1,626,898,559,449,252,
1,617,899,551,444,251,
1,611,880,545,440,263,
1,702,864,539,435,260,
1,689,851,531,432,266,
1,679,837,526,428,263,
1,671,824,519,423,261,
1,663,811,515,419,259,
1,654,799,509,415,255,
1,646,798,504,412,254,
1,638,900,552,435,252,
1,630,891,545,432,249,
1,623,875,540,427,248,
0,710,859,534,423,246,
1,697,846,526,419,291,
1,688,831,520,415,287,
0,679,819,515,411,286,
0,670,807,509,408,283,
0,661,794,504,403,280,
1,653,846,499,444,278,
0,646,898,561,438,275,
0,638,881,555,433,273,
0,630,867,548,429,278,
0,686,852,542,423,275,
0,673,839,535,420,302,
0,665,825,528,416,298,
0,656,812,523,412,295,
0,647,799,517,408,293,
0,639,788,512,404,290,
0,633,882,516,454,287,
0,625,894,542,447,285,
0,617,876,536,442,283,
0,667,862,529,438,280,
0,682,847,523,433,279,
0,670,834,515,429,280,
0,662,820,510,424,278,
0,654,807,505,420,275,
0,645,796,499,417,272,
0,637,783,495,413,271,
0,630,893,550,446,268,
0,622,886,542,441,265,
0,614,870,536,438,263,
0,683,856,529,432,262,
0,673,841,524,428,294,
0,662,828,516,423,289,
0,654,815,511,420,287,
0,645,803,505,415,284,
0,637,791,500,412,281,
0,630,779,495,408,280,
0,622,896,556,440,276,
0,614,884,548,435,274,
0,607,869,543,431,271,
0,661,855,536,427,270,
0,652,840,531,422,270,
0,641,827,523,418,268,
0,633,815,518,414,263,
0,625,802,512,410,263,
0,617,790,507,407,260,
0,610,779,502,408,259,
0,604,898,555,435,255,
0,595,883,547,431,254,
0,590,868,542,426,261,
0,654,853,536,422,259,
0,646,839,529,417,255,
0,635,826,521,414,254,
0,627,814,516,409,252,
0,620,801,511,406,249,
0,611,789,505,402,248,
0,605,780,500,440,246,
0,598,897,542,433,243,
0,591,880,536,429,242,
0,590,865,530,425,240,
0,668,850,524,420,238,
0,659,836,518,416,239,
0,648,824,511,412,236,
0,639,811,505,408,235,
0,632,799,500,405,231,
0,624,787,496,401,231,
0,617,837,519,438,229,
0,609,895,536,432,227,
0,602,876,530,427,225,
0,654,862,524,423,227,
0,659,847,519,419,228,
0,651,834,512,415,236,
0,639,822,505,411,234,
0,632,808,500,407,231,
0,624,796,495,403,230,
0,616,784,491,399,228,
0,609,883,510,441,227,
0,602,892,504,435,224,
0,595,874,499,431,223,
0,659,860,493,427,221,
0,649,846,487,423,244,
0,641,831,483,418,241,
0,631,819,477,414,239,
0,623,807,472,410,237,
0,615,795,467,407,235,
0,608,783,463,403,233,
0,600,893,529,440,231,
0,593,891,523,433,229,
0,587,873,516,430,227,
0,614,859,511,425,225,
0,606,845,505,421,247,
0,599,831,499,417,243,
0,590,819,493,412,241,
0,583,806,487,408,239,
0,575,793,483,405,237,
0,569,783,479,403,235,
0,563,896,543,432,233,
0,558,884,536,428,231,
0,551,869,531,423,230,
0,632,855,525,419,227,
0,623,840,519,415,226,
0,615,827,513,411,224,
0,606,814,507,407,222,
0,598,802,501,403,220,
0,591,790,496,399,218,
0,583,783,492,435,216,
0,577,899,540,433,215,
0,571,883,534,428,214,
0,568,868,527,423,224,
0,636,853,521,419,223,
0,627,839,516,415,253,
0,617,827,511,411,251,
0,609,814,504,408,248,
0,602,801,499,403,246,
0,595,790,493,399,243,
0,588,844,531,454,241,
0,580,898,545,448,239,
0,575,878,539,443,238,
0,626,863,532,438,247,
0,632,848,527,433,244,
0,623,835,521,430,242,
0,613,822,515,425,240,
0,606,809,508,422,238,
0,599,797,504,417,236,
0,591,785,497,414,233,
0,584,880,532,436,231,
0,577,899,526,432,230,
0,571,877,519,427,263,
0,655,862,514,422,259,
0,645,847,508,418,271,
0,636,834,503,414,268,
0,626,821,497,410,265,
0,619,808,491,407,263,
0,611,796,486,403,260,
0,604,785,481,399,259,
0,597,892,537,432,255,
0,590,893,531,427,254,
0,583,871,525,422,259,
0,639,856,519,417,257,
0,632,844,513,414,259,
0,624,830,508,409,257,
0,614,817,502,406,255,
0,606,804,496,401,252,
0,599,792,491,398,250,
0,591,781,486,406,248,
0,585,897,532,436,246,
0,578,889,526,432,243,
0,572,868,519,427,242,
0,649,854,514,423,240,
0,641,840,508,418,265,
0,632,827,504,414,263,
0,623,814,497,410,259,
0,615,802,492,407,257,
0,608,790,487,403,255,
0,600,788,483,430,253,
0,593,899,546,423,251,
0,587,883,540,419,248,
0,588,867,534,415,250,
0,646,852,527,411,248,
0,637,839,521,407,284,
0,628,825,515,403,281,
0,619,813,511,399,280,
0,611,800,504,396,276,
0,604,788,499,391,273,
0,597,846,524,433,271,
0,590,899,538,428,269,
0,583,878,531,423,267,
0,639,864,526,419,264,
0,644,849,519,415,265,
0,636,835,515,411,263,
0,627,823,508,407,261,
0,617,810,504,403,259,
0,611,798,496,399,255,
0,603,786,492,396,255,
0,595,884,548,434,252,
0,588,901,542,430,249,
0,582,880,536,425,248,
0,664,865,529,419,246,
0,654,851,524,415,257,
0,646,838,518,412,255,
0,637,824,512,408,252,
0,627,812,507,403,250,
0,620,799,499,399,248,
0,611,787,495,396,246,
0,605,894,538,433,243,
0,598,896,531,428,241,
0,590,873,526,423,241,
0,651,859,519,419,239,
0,642,845,513,415,255,
0,633,831,508,411,252,
0,625,819,503,407,250,
0,615,806,496,403,248,
0,608,793,491,399,246,
0,601,782,486,409,243,
0,594,899,543,430,241,
0,587,900,536,425,239,
0,580,877,530,422,238,
0,651,862,524,415,236,
0,641,847,518,412,233,
0,633,835,512,408,231,
0,625,822,507,404,230,
0,615,809,500,400,228,
0,608,797,496,397,226,
0,600,796,491,437,224,
0,593,899,524,432,223,
0,587,886,519,428,221,
0,592,866,513,423,258,
0,655,852,507,418,255,
0,647,838,502,414,274,
0,639,825,496,409,271,
0,631,812,491,406,269,
0,621,799,484,402,267,
0,614,788,480,399,263,
0,607,844,526,437,262,
0,599,897,536,432,259,
0,591,880,528,428,257,
0,647,862,523,423,255,
0,670,847,517,419,253,
0,662,834,512,414,251,
0,652,821,506,410,248,
0,644,808,500,407,247,
0,633,796,494,403,244,
0,626,784,489,399,242,
0,619,881,553,435,240,
0,611,896,546,430,238,
0,604,878,540,425,244,
0,721,860,534,420,242,
0,711,845,527,416,248,
0,702,831,522,412,246,
0,692,819,516,408,243,
0,683,806,511,404,241,
0,671,794,504,400,240,
0,664,783,499,397,237,
0,655,893,547,423,235,
0,647,888,540,419,233,
0,639,871,534,415,289,
0,753,854,527,411,286,
0,740,839,521,407,283,
0,731,827,515,403,280,
0,719,814,510,399,278,
0,711,801,504,395,275,
0,699,790,498,391,273,
0,689,778,494,399,271,
0,681,896,532,414,268,
0,671,884,526,410,266,
0,664,869,520,407,271,
0,777,851,515,401,268,
0,766,837,508,398,267,
0,755,824,504,393,263,
0,743,811,498,390,262,
0,734,799,493,386,259,
0,721,787,487,384,257,
0,711,789,482,427,255,
0,703,896,508,422,253,
0,694,879,503,417,251,
0,684,865,497,413,252,
0,778,847,492,408,250,
0,768,833,487,404,248,
0,755,819,481,400,247,
0,745,807,477,396,244,
0,735,795,472,392,243,
0,723,783,467,389,240,
0,713,844,505,422,238,
0,704,894,518,417,236,
0,695,876,512,413,235,
0,748,862,506,408,259,
0,764,844,500,403,271,
0,752,830,496,399,268,
0,742,818,491,396,265,
0,732,806,486,392,263,
0,722,793,480,389,261,
0,710,781,473,385,258,
0,701,881,519,433,255,
0,691,892,513,428,254,
0,683,874,508,423,252,
0,751,860,502,419,249,
0,739,842,496,414,279,
0,728,829,491,411,275,
0,719,816,486,407,273,
0,708,803,481,403,271,
0,700,792,476,399,268,
0,688,780,470,395,265,
0,679,892,527,432,263,
0,671,888,520,427,261,
0,663,871,515,423,259,
0,730,857,509,418,256,
0,719,839,504,414,255,
0,710,827,498,409,254,
0,700,814,492,406,252,
0,691,801,487,401,249,
0,681,789,483,398,248,
0,671,777,477,412,246,
0,663,896,532,428,243,
0,654,884,526,423,241,
0,647,868,519,419,239,
0,659,854,513,415,237,
0,650,836,508,411,238,
0,642,824,503,407,236,
0,635,811,497,403,235,
0,627,799,492,399,231,
0,620,787,487,395,231,
0,611,792,483,438,228,
0,604,896,530,432,227,
0,598,879,524,428,225,
0,596,864,519,423,235,
0,621,850,512,419,231,
0,614,833,507,415,236,
0,606,820,502,411,233,
0,598,807,496,407,231,
0,591,795,491,403,230,
0,583,783,486,399,227,
0,577,849,540,440,225,
0,571,896,540,435,224,
0,564,879,534,432,249,
0,594,864,527,427,263,
0,585,850,521,423,281,
0,579,833,515,417,280,
0,572,820,510,414,277,
0,565,807,505,409,275,
0,559,796,499,406,272,
0,551,783,495,402,270,
0,546,883,547,432,267,
0,540,892,540,427,264,
0,535,875,535,423,263,
0,606,860,528,419,260,
0,597,846,523,415,StartUp!
127,608,785,509,412,254,
0,602,775,504,408,252,
0,598,852,502,423,251,
0,591,884,531,420,248,
0,587,872,527,417,248,
0,582,861,523,414,246,
0,639,851,519,411,244,
0,633,839,514,409,243,
0,627,830,510,405,252,
0,621,819,505,402,250,
0,615,807,500,399,248,
0,608,795,495,395,246,
0,598,783,488,391,243,
0,591,771,483,387,241,
0,584,884,519,423,239,
0,577,873,513,419,238,
0,571,859,508,415,271,
0,634,840,502,409,268,
0,625,827,496,405,266,
0,617,814,492,401,263,
0,609,801,486,397,261,
0,602,790,481,393,259,
0,593,777,476,390,257,
0,585,766,471,387,254,
0,579,883,511,412,252,
0,572,867,505,408,249,
0,566,852,499,404,248,
0,648,835,494,399,246,
0,639,822,488,395,245,
0,632,808,483,391,243,
0,623,800,481,391,243,
0,620,788,476,387,240,
0,610,777,471,384,238,
0,603,767,467,420,236,
0,595,887,543,431,235,
0,588,871,536,427,231,
0,582,856,530,423,274,
0,679,839,524,417,271,
0,670,825,518,413,268,
0,661,812,512,409,266,
0,652,799,507,405,263,
0,644,787,502,401,262,
0,634,776,495,397,259,
0,627,807,513,443,255,
0,619,891,556,438,254,
0,611,873,550,433,252,
0,633,860,543,428,253,
0,670,841,537,423,251,
0,660,828,531,419,248,
0,652,815,526,415,247,
0,643,803,519,411,244,
0,636,791,515,408,242,
0,625,779,508,403,240,
1,619,861,575,449,238,
1,611,894,568,444,236,
1,604,876,561,440,263,
1,611,862,556,435,261,
2,603,844,549,430,259,
2,595,831,543,425,255,
3,589,817,536,422,254,
3,583,805,531,417,252,
3,575,792,525,414,249,
3,568,782,519,409,248,
3,563,888,582,452,245,
3,556,887,574,448,243,
3,550,871,568,443,241,
3,543,856,560,438,239,
3,539,839,555,432,240,
3,532,825,548,428,238,
3,527,812,542,423,236,
3,522,799,536,420,235,
3,516,788,530,415,231,
3,510,776,524,412,230,
3,505,895,583,459,228,
3,500,888,575,454,227,
3,496,871,568,449,225,
3,491,857,562,444,223,
3,487,839,556,439,231,
3,481,826,550,435,230,
3,477,813,543,431,227,
3,472,801,537,427,225,
3,467,789,531,423,224,
3,463,777,525,453,222,
3,459,896,580,457,220,
3,455,883,573,452,218,
3,451,867,567,448,216,
3,460,853,560,443,215,
3,455,836,553,438,231,
3,451,823,547,433,230,
3,447,810,542,429,228,
3,443,798,536,425,226,
3,438,786,529,421,224,
3,434,817,539,466,222,
3,430,896,574,460,220,
3,426,879,568,455,218,
3,481,864,560,451,223,
3,513,850,553,446,221,
3,507,833,547,441,234,
3,502,820,542,437,231,
3,496,807,536,432,230,
3,491,796,530,428,228,
3,483,783,524,423,226,
3,480,870,584,465,224,
3,473,897,580,460,222,
3,468,880,574,455,220,
3,569,865,567,451,218,
3,564,851,560,447,247,
3,557,833,554,440,244,
3,551,820,547,436,242,
3,543,807,542,432,240,
3,537,796,536,428,238,
3,530,783,529,424,236,
3,525,889,591,459,233,
3,519,897,583,454,231,
3,513,879,577,449,243,
3,598,864,570,444,241,
3,590,849,563,440,257,
3,582,832,557,435,255,
3,575,819,551,431,252,
2,568,807,545,427,250,
3,561,795,539,423,248,
3,553,783,533,419,246,
3,547,896,575,459,243,
2,542,889,569,454,241,
3,536,872,563,449,239,
3,615,858,556,444,237,
3,608,840,550,440,252,
2,600,827,543,435,249,
2,592,814,537,431,247,
3,585,801,531,426,244,
3,578,790,526,423,243,
2,570,779,520,454,240,
2,563,896,582,451,238,
2,557,882,575,446,236,
2,551,867,568,441,262,
2,591,852,561,437,259,
2,583,835,556,432,257,
2,575,822,549,428,255,
2,569,809,543,423,252,
2,563,798,537,419,250,
2,556,785,531,415,248,
2,548,820,526,463,246,
1,543,896,576,456,243,
2,536,879,569,451,241,
2,550,864,563,448,239,
1,551,849,556,443,237,
2,544,831,551,439,236,
1,539,819,544,433,233,
1,532,807,538,429,231,
1,526,795,532,424,230,
1,520,783,527,421,228,
1,515,867,529,458,227,
1,508,892,571,453,224,
1,504,876,564,448,222,
1,520,860,558,444,220,
1,514,846,551,440,230,
1,508,830,545,435,227,
1,503,816,539,430,225,
1,497,804,533,425,224,
1,492,792,527,422,222,
1,487,780,521,418,220,
1,482,890,577,456,218,
1,477,896,570,451,216,
1,472,877,563,448,215,
1,516,863,557,443,213,
1,510,848,551,439,239,
1,504,831,544,435,236,
1,498,819,539,429,234,
1,493,807,532,424,231,
1,487,795,527,421,230,
1,483,783,521,417,228,
1,476,896,563,462,226,
1,472,888,556,456,224,
1,467,871,550,452,225,
1,494,856,543,448,224,
1,487,842,537,444,243,
1,482,825,531,439,240,
1,477,813,525,433,238,
1,472,800,519,430,236,
1,467,788,514,425,234,
1,462,777,509,461,231,
1,456,897,572,460,230,
1,452,884,565,455,227,
1,455,870,559,451,248,
1,529,855,551,446,246,
1,524,840,545,441,243,
1,518,824,540,438,242,
1,511,812,534,432,240,
1,505,799,527,428,238,
1,500,787,522,423,236,
1,495,823,517,463,233,
1,487,896,571,457,231,
1,483,879,563,452,230,
1,536,864,557,448,251,
1,564,849,551,444,248,
1,557,836,543,439,250,
1,551,819,538,433,248,
0,543,807,532,430,246,
1,537,795,527,425,243,
1,531,783,521,422,241,
0,526,869,531,457,239,
0,519,892,566,451,237,
0,513,875,559,448,235,
0,568,860,551,443,232,
0,561,846,546,438,247,
0,554,831,540,433,243,
1,547,816,534,428,241,
0,541,804,527,424,240,
0,536,792,523,420,238,
0,529,780,516,417,236,
0,524,890,568,453,233,
0,516,889,560,448,231,
0,511,872,553,444,246,
0,564,858,547,440,243,
0,557,844,540,435,242,
0,551,830,535,430,240,
0,543,815,527,425,238,
0,537,802,523,422,236,
0,531,791,517,417,233,
0,526,779,512,414,231,
0,519,895,566,448,230,
0,512,884,556,444,227,
0,508,869,550,440,244,
0,561,855,543,435,242,
0,554,840,537,431,240,
0,547,827,531,427,238,
0,541,811,526,422,236,
0,536,799,519,417,234,
0,529,787,515,414,231,
0,523,775,509,444,231,
0,518,897,561,443,228,
0,510,883,552,439,225,
0,507,867,547,434,247,
0,572,853,540,430,244,
0,566,839,534,425,242,
0,559,826,527,422,240,
0,551,811,522,416,238,
0,545,798,516,412,236,
0,540,786,511,408,233,
0,534,826,507,452,231,
0,527,896,559,447,230,
0,519,879,551,441,227,
0,572,864,543,438,238,
0,585,849,537,433,236,
0,577,835,531,429,233,
0,571,823,526,424,231,
0,564,807,519,419,230,
0,558,795,515,415,227,
0,551,783,509,412,226,
0,545,870,519,449,224,
0,539,891,556,444,222,
0,531,873,547,440,251,
0,593,860,541,435,248,
0,585,846,535,431,246,
0,577,831,529,427,243,
0,571,819,523,423,240,
0,563,803,518,417,239,
0,558,791,512,414,237,
0,551,780,507,410,235,
0,545,890,568,449,232,
0,539,886,561,444,231,
0,531,870,553,440,235,
0,548,856,547,435,233,
0,541,841,540,432,231,
0,535,828,535,427,228,
0,528,815,528,423,227,
0,523,799,523,418,225,
0,517,787,517,414,224,
0,512,776,512,411,222,
0,507,894,580,447,220,
0,502,881,572,442,218,
0,495,866,564,438,224,
0,541,851,558,433,222,
0,535,838,551,430,225,
0,528,824,545,425,223,
0,523,812,539,421,221,
0,516,796,533,415,219,
0,511,784,527,412,217,
0,505,774,521,455,216,
0,499,896,580,451,214,
0,493,880,574,448,211,
0,488,865,564,443,216,
0,515,851,558,438,215,
0,510,837,551,433,213,
0,504,824,545,430,211,
0,499,811,540,425,209,
0,494,796,534,420,207,
0,487,783,527,416,207,
0,483,828,523,462,205,
0,479,895,588,456,204,
0,472,878,580,451,202,
0,523,863,572,448,225,
0,520,848,565,443,223,
0,515,835,559,439,227,
0,509,822,551,434,224,
0,504,809,546,430,222,
0,497,793,540,425,220,
0,492,782,535,421,219,
0,487,871,536,448,216,
0,482,891,575,442,215,
0,476,874,569,438,216,
0,536,859,560,433,251,
0,528,845,555,430,248,
0,522,831,548,425,247,
0,516,819,542,421,244,
0,510,807,536,417,242,
0,504,792,530,412,240,
0,499,780,524,408,238,
0,494,891,577,455,236,
0,488,888,569,451,233,
0,482,872,563,447,242,
0,544,857,555,441,239,
0,537,843,548,438,237,
0,531,830,542,433,235,
0,525,817,536,429,232,
0,519,805,531,425,231,
0,513,790,524,419,229,
0,508,778,519,416,227,
0,503,896,572,443,225,
0,496,887,564,438,224,
0,490,871,558,433,236,
0,554,856,550,429,233,
0,547,841,543,425,241,
0,541,828,537,421,239,
0,535,816,531,417,236,
0,528,799,526,413,235,
0,523,788,519,408,232,
0,516,777,515,435,231,
0,511,897,553,431,228,
0,505,883,547,425,227,
0,507,868,541,422,227,
0,568,854,532,417,224,
0,560,839,527,414,223,
0,553,827,521,409,221,
0,547,814,515,406,219,
0,541,798,510,402,217,
0,536,787,505,398,216,
0,529,828,500,445,214,
0,523,888,579,440,212,
0,518,871,572,435,211,
0,572,858,566,431,243,
0,574,844,557,426,240,
0,568,830,551,423,239,
0,560,817,544,418,236,
0,553,804,539,414,234,
0,547,790,532,411,231,
0,541,777,527,406,231,
0,536,873,534,450,228,
0,529,888,560,445,227,
0,523,871,553,440,225,
0,573,857,547,436,230,
0,565,843,539,432,227,
0,559,830,533,428,225,
0,551,817,527,423,224,
0,545,804,521,419,222,
0,539,790,515,415,220,
0,532,777,511,411,218,
0,527,891,568,446,216,
0,521,887,560,440,215,
0,515,871,553,436,214,
0,555,856,545,432,212,
0,547,842,539,428,216,
0,541,829,533,423,214,
0,535,816,527,419,212,
0,528,803,521,415,210,
0,523,788,515,412,209,
0,516,777,511,412,207,
0,512,896,571,448,206,
0,505,887,563,443,204,
0,500,871,558,439,224,
0,546,856,549,434,221,
0,539,842,543,430,219,
0,532,829,537,425,217,
0,527,816,531,422,216,
0,520,803,525,417,214,
0,515,788,519,414,211,
0,509,777,514,443,210,
0,504,897,579,438,207,
0,498,882,572,433,206,
0,493,867,565,429,204,
0,545,852,556,424,203,
0,538,839,551,420,204,
0,531,825,543,416,202,
0,526,812,537,412,200,
0,519,799,532,408,199,
0,514,785,527,404,198,
0,508,834,521,441,196,
0,503,895,559,436,195,
0,497,877,551,432,193,
0,492,863,546,428,211,
0,540,847,537,423,209,
0,534,835,531,419,207,
0,527,822,526,415,206,
0,521,809,520,411,204,
0,515,796,515,408,202,
0,510,782,510,403,200,
0,504,876,531,444,199,
0,499,890,563,440,198,
0,494,873,556,435,195,
0,535,859,551,431,201,
0,539,844,543,426,199,
0,532,831,536,422,198,
0,527,818,531,418,196,
0,520,805,524,414,195,
0,515,793,519,410,193,
0,509,779,513,406,192,
0,504,892,562,449,190,
0,498,887,555,444,189,
0,493,870,547,440,203,
0,551,856,542,435,201,
0,542,841,534,431,205,
0,536,828,528,427,203,
0,529,816,523,423,200,
0,523,803,516,418,199,
0,517,792,511,415,198,
0,511,776,505,415,196,
0,507,896,566,444,194,
0,500,886,558,439,192,
0,495,870,551,435,208,
0,560,856,545,430,206,
0,551,841,537,426,204,
0,545,828,531,422,203,
0,539,816,526,417,200,
0,532,803,519,414,199,
0,526,792,515,409,198,
0,520,787,510,439,196,
0,515,899,571,433,194,
0,509,891,563,428,192,
0,504,874,557,423,198,
0,558,859,551,419,196,
0,550,845,543,415,225,
0,543,831,536,412,223,
0,536,819,531,408,221,
0,530,806,525,404,219,
0,524,794,519,400,217,
0,519,841,515,444,216,
0,513,898,559,440,214,
0,507,881,551,435,211,
0,502,865,545,431,215,
0,550,851,540,426,212,
0,542,838,531,422,227,
0,536,824,526,418,225,
0,529,812,519,414,224,
0,524,799,515,410,222,
0,518,788,509,406,220,
0,512,881,536,442,218,
0,505,897,566,437,216,
0,500,879,559,432,215,
0,543,864,552,428,215,
0,540,849,547,423,212,
0,531,836,539,419,210,
0,526,824,533,415,208,
0,519,811,527,412,207,
0,514,798,521,408,205,
0,508,786,515,404,204,
0,503,892,571,445,202,
0,497,892,563,440,199,
0,492,874,556,436,199,
0,548,860,550,432,198,
0,542,846,543,428,219,
0,534,831,536,423,216,
0,527,819,530,419,214,
0,521,807,524,415,211,
0,515,794,519,412,210,
0,510,782,513,408,208,
0,504,896,562,440,207,
0,499,887,555,435,205,
0,494,871,548,432,204,
0,561,856,542,427,201,
0,554,843,536,423,207,
0,545,829,528,418,204,
0,540,816,523,415,203,
0,534,803,517,411,201,
0,527,792,512,407,199,
0,521,780,507,403,198,
0,515,897,584,436,196,
0,510,882,577,432,195,
0,504,867,571,428,197,
0,514,853,563,423,195,
0,507,839,558,419,193,
0,501,825,550,415,192,
0,496,812,543,412,190,
0,491,799,537,408,189,
0,486,788,531,403,188,
0,480,777,526,443,187,
0,476,898,564,436,184,
0,471,881,558,432,184,
0,467,866,551,428,192,
0,511,851,544,423,190,
0,504,838,539,419,191,
0,498,824,531,415,188,
0,492,812,526,412,187,
0,487,799,519,408,185,
0,481,787,514,403,184,
0,477,835,537,441,183,
0,472,898,570,435,182,
0,467,880,563,430,184,
0,524,865,556,425,198,
0,546,851,550,422,195,
0,537,838,543,417,201,
0,531,824,536,414,199,
0,526,812,530,409,198,
0,519,799,525,406,196,
0,514,787,519,402,195,
0,508,875,569,440,193,
0,503,892,561,433,192,
0,497,875,555,429,214,
0,560,860,548,423,211,
0,552,846,542,420,209,
0,543,831,536,416,207,
0,537,819,528,412,206,
0,531,807,523,408,204,
0,526,795,518,404,202,
0,519,783,512,401,200,
0,515,890,566,439,199,
0,508,883,558,432,197,
0,503,867,551,428,196,
0,518,853,545,423,194,
0,512,839,539,420,213,
0,504,825,532,415,211,
0,499,813,526,412,208,
0,494,800,519,408,207,
0,488,788,515,404,205,
0,483,777,509,403,204,
0,480,897,561,446,201,
0,473,882,554,440,199,
0,470,867,548,435,199,
0,536,852,542,431,196,
0,529,839,536,427,218,
0,521,825,529,423,216,
0,515,812,522,419,214,
0,509,799,516,415,211,
0,504,788,511,411,210,
0,498,777,507,443,208,
0,493,896,566,439,207,
0,487,879,560,432,205,
0,483,864,552,428,223,
0,499,849,546,423,220,
0,494,836,540,420,219,
0,487,823,534,415,217,
0,481,810,527,412,215,
0,476,798,521,408,212,
0,472,786,515,404,211,
0,467,830,540,439,209,
0,462,891,563,433,207,
0,457,873,557,428,209,
0,516,860,551,423,221,
0,530,846,543,419,220,
0,524,831,538,415,219,
0,516,819,532,412,217,
0,511,806,525,408,215,
0,504,794,519,403,212,
0,499,782,513,399,211,
0,494,874,565,435,209,
0,487,884,558,430,207,
0,483,868,551,424,218,
0,556,854,544,420,216,
0,549,840,539,416,214,
0,543,827,532,412,212,
0,535,814,525,408,210,
0,528,801,519,404,207,
0,523,790,514,400,207,
0,516,778,508,397,205,
0,511,891,574,432,203,
0,505,882,567,427,201,
0,499,867,560,422,226,
0,564,852,553,417,224,
0,558,839,547,414,222,
0,551,825,541,409,220,
0,543,812,534,406,217,
0,536,799,527,401,216,
0,530,788,522,398,214,
0,524,776,516,396,212,
0,519,895,566,433,210,
0,513,878,559,429,208,
0,508,863,551,423,231,
0,556,848,545,419,231,
0,550,835,540,415,230,
0,543,822,534,412,227,
0,536,809,526,408,225,
0,529,796,519,403,223,
0,523,785,515,399,221,
0,518,774,510,440,219,
0,512,895,561,436,217,
0,506,875,555,432,216,
0,515,860,548,427,236,
0,585,846,542,423,234,
0,579,831,536,419,231,
0,572,819,530,414,230,
0,563,807,523,411,228,
0,556,795,518,407,225,
0,550,783,512,403,224,
0,543,829,523,438,222,
0,537,893,543,432,220,
0,531,871,537,427,220,
0,590,857,531,423,232,
0,598,843,526,419,231,
0,591,830,519,415,229,
0,583,817,514,411,227,
0,575,804,507,407,225,
0,568,792,502,403,223,
0,561,780,497,399,221,
0,556,873,547,438,219,
0,548,888,540,432,216,
0,543,868,534,428,220,
0,591,854,527,423,218,
0,583,839,521,419,227,
0,576,827,516,415,224,
0,569,814,511,411,223,
0,561,801,504,407,220,
0,555,789,498,403,217,
0,548,777,493,399,216,
0,543,890,564,435,215,
0,536,881,557,431,212,
0,530,862,551,425,223,
0,604,847,543,422,220,
0,595,834,538,417,219,
0,588,822,531,414,217,
0,581,808,526,409,216,
0,572,796,519,406,214,
0,566,784,513,401,211,
0,560,774,508,406,210,
0,553,895,553,441,207,
0,547,881,547,436,206,
0,540,864,541,432,211,
0,623,848,535,427,210,
0,615,835,528,423,217,
0,607,822,523,419,216,
0,600,809,517,415,214,
0,590,796,510,411,211,
0,583,784,504,407,210,
0,576,777,499,448,208,
0,569,896,544,443,206,
0,563,881,538,438,204,
0,563,862,532,432,240,
0,625,847,526,428,238,
0,616,834,520,423,236,
0,609,822,515,420,233,
0,601,808,509,415,231,
0,592,796,503,412,229,
0,585,784,497,408,227,
0,579,834,526,447,225,
0,572,894,548,441,223,
0,566,876,542,436,223,
0,594,858,536,431,225,
0,587,844,529,427,224,
0,579,831,524,423,222,
0,572,817,518,419,220,
0,566,805,512,415,217,
0,558,792,505,411,216,
0,551,781,500,407,214,
0,546,877,534,444,212,
0,540,893,527,440,210,
0,534,876,521,435,233,
0,548,857,515,429,231,
0,542,843,510,424,229,
0,536,830,504,420,227,
0,529,816,499,417,225,
0,524,803,494,412,224,
0,517,792,487,408,221,
0,511,780,483,405,220,
0,507,892,550,449,217,
0,501,886,543,444,216,
0,496,871,536,440,220,
0,524,852,531,435,217,
0,519,839,524,430,216,
0,512,825,519,426,214,
0,507,812,513,422,211,
0,501,799,508,417,210,
0,495,788,501,414,207,
0,489,776,496,413,207,
0,484,896,556,440,205,
0,480,882,548,436,204,
0,475,867,542,432,215,
0,495,849,536,427,213,
0,489,835,530,423,211,
0,483,823,524,419,209,
0,479,809,519,415,207,
0,472,798,513,411,206,
0,467,785,506,407,204,
0,463,780,502,443,202,
0,459,897,548,438,200,
0,455,883,542,433,199,
0,470,867,536,429,199,
0,504,850,529,423,198,
0,498,836,524,419,214,
0,492,823,518,415,212,
0,487,811,512,412,210,
0,480,798,507,408,208,
0,476,786,500,403,206,
0,471,839,539,451,204,
0,465,896,547,445,203,
0,460,878,541,440,201,
0,503,864,535,436,199,
0,496,845,528,431,203,
0,491,831,523,427,209,
0,485,819,518,423,207,
0,480,806,511,419,206,
0,473,794,507,414,204,
0,468,782,499,411,203,
0,463,878,545,440,199,
0,459,888,537,434,199,
0,454,871,531,430,207,
0,495,857,525,425,206,
0,488,839,519,420,204,
0,483,827,514,415,203,
0,478,814,508,412,200,
0,472,801,503,408,199,
0,467,789,497,404,197,
0,462,777,492,401,195,
0,456,892,558,439,194,
0,451,884,551,434,192,
0,448,868,544,430,211,
0,521,855,538,425,208,
0,515,838,532,420,228,
0,509,824,526,415,225,
0,504,812,520,412,224,
0,497,799,515,408,222,
0,491,787,509,404,220,
0,486,775,503,412,217,
0,481,896,541,440,216,
0,476,884,535,435,214,
0,471,869,529,431,211,
0,531,851,523,426,211,
0,526,837,517,420,214,
0,519,824,511,416,211,
0,513,811,505,413,209,
0,508,799,500,408,207,
0,500,787,495,405,206,
0,495,775,501,444,204,
0,489,891,567,438,202,
0,484,873,560,433,200,
0,496,859,553,429,216,
0,540,841,547,425,215,
0,532,828,540,419,230,
0,527,815,535,415,227,
0,520,802,528,412,225,
0,515,790,523,408,223,
0,508,779,518,404,221,
0,503,835,536,440,219,
0,497,888,550,435,217,
0,492,871,543,430,224,
0,550,857,536,426,224,
0,542,839,531,422,222,
0,536,826,525,416,221,
0,529,813,519,412,219,
0,524,800,513,408,217,
0,518,788,508,404,216,
0,510,777,503,401,214,
0,505,878,553,443,211,
0,499,887,547,438,209,
0,494,871,540,433,231,
0,565,856,534,429,228,
0,558,839,527,424,226,
0,551,825,522,419,224,
0,543,812,516,415,222,
0,537,799,511,412,220,
0,531,788,505,408,219,
0,524,776,499,404,217,
0,519,892,561,431,215,
0,512,883,555,427,212,
0,507,868,548,423,211,
0,569,854,542,418,209,
0,562,836,536,414,207,
0,555,824,530,408,206,
0,548,811,524,405,204,
0,542,799,519,401,203,
0,536,786,513,398,201,
0,528,775,507,412,199,
0,523,896,547,438,198,
0,516,882,542,433,196,
0,511,867,536,429,227,
0,551,852,529,423,224,
0,543,835,523,420,231,
0,537,822,518,415,228,
0,531,809,512,412,226,
0,525,797,507,408,224,
0,519,785,501,403,222,
0,512,786,495,446,220,
0,507,896,552,440,218,
0,502,880,545,435,216,
0,519,864,540,431,225,
0,563,849,534,427,223,
0,557,832,527,422,221,
0,550,819,521,417,219,
0,543,807,515,413,217,
0,537,795,511,409,216,
0,531,783,505,406,214,
0,524,842,537,442,211,
0,518,893,551,437,209,
0,512,876,544,432,224,
0,548,861,539,428,228,
0,542,847,532,423,227,
0,536,830,526,419,224,
0,529,816,520,415,223,
0,523,804,515,411,220,
0,517,792,509,407,219,
0,511,780,504,403,217,
0,504,880,555,439,216,
0,499,889,547,433,213,
0,494,871,540,430,211,
0,553,857,535,425,209,
0,546,844,527,421,225,
0,540,827,522,415,223,
0,533,814,516,412,220,
0,527,801,511,408,219,
0,521,790,505,403,216,
0,515,778,500,400,216,
0,508,893,557,441,213,
0,503,890,550,436,211,
0,497,873,543,432,209,
0,563,859,537,428,207,
0,556,845,531,423,243,
0,550,828,525,419,241,
0,543,815,519,415,239,
0,537,803,514,411,236,
0,531,791,508,407,235,
0,525,780,504,415,232,
0,518,896,568,435,231,
0,512,884,560,430,228,
0,507,868,553,425,226,
0,533,854,547,422,224,
0,527,840,540,417,223,
0,520,824,535,412,221,
0,515,811,529,408,219,
0,508,799,523,404,217,
0,504,787,518,400,216,
0,498,787,512,441,214,
0,492,896,560,435,211,
0,487,879,553,431,210,
0,483,864,547,427,208,
0,508,849,540,423,207,
0,503,836,535,419,211,
0,496,819,528,414,210,
0,491,807,523,409,207,
0,486,795,518,406,207,
0,480,783,512,402,205,
0,476,844,507,441,203,
0,470,892,558,436,201,
0,465,874,551,432,199,
0,513,860,545,428,199,
0,507,845,539,423,216,
0,501,831,532,419,231,
0,496,816,527,414,228,
0,489,803,521,410,226,
0,484,792,515,407,224,
0,480,780,510,403,223,
0,475,881,519,451,220,
0,468,888,531,445,218,
0,463,871,526,440,219,
0,534,857,519,436,216,
0,527,843,513,432,236,
0,520,830,508,428,233,
0,514,814,503,423,231,
0,508,801,497,419,229,
0,503,790,492,415,227,
0,497,777,487,411,225,
0,492,893,557,448,224,
0,486,887,547,443,221,
0,480,871,542,439,223,
0,555,856,535,434,220,
0,547,842,529,430,219,
0,541,828,523,425,217,
0,535,812,518,420,216,
0,528,799,512,416,214,
0,523,788,506,412,211,
0,517,777,501,421,210,
0,511,896,559,436,208,
0,504,883,550,432,206,
0,499,867,543,428,223,
0,575,852,537,423,221,
0,569,839,531,419,220,
0,562,825,526,415,219,
0,556,809,519,411,216,
0,548,797,514,407,215,
0,543,785,508,403,213,
0,536,792,504,448,211,
0,529,896,551,442,209,
0,524,880,543,438,207,
0,538,865,536,433,228,
0,571,850,530,428,226,
0,563,836,524,424,227,
0,557,824,519,420,226,
0,551,807,513,415,224,
0,543,796,508,412,222,
0,537,783,502,408,220,
0,531,847,499,438,219,
0,524,889,580,432,216,
0,519,872,572,428,214,
0,591,859,566,423,212,
0,583,844,559,419,213,
0,575,831,551,415,211,
0,568,818,546,412,210,
0,562,802,540,407,207,
0,556,790,534,403,206,
0,549,779,528,399,204,
0,543,882,543,436,203,
0,536,893,563,432,201,
0,529,876,555,428,207,
0,572,860,547,423,205,
0,564,846,542,419,214,
0,557,833,536,415,211,
0,551,820,529,411,210,
0,543,804,524,406,207,
0,537,792,519,401,206,
0,531,780,513,398,204,
0,527,894,540,440,203,
0,519,888,532,435,201,
0,513,872,525,431,219,
0,540,857,519,426,217,
0,534,844,513,422,216,
0,527,830,508,418,214,
0,521,817,504,414,211,
0,515,801,497,409,209,
0,510,790,493,406,207,
0,504,779,487,422,206,
0,499,896,548,434,204,
0,492,884,542,430,203,
0,487,868,534,425,200,
0,487,854,527,421,199,
0,482,840,521,417,216,
0,477,827,515,413,215,
0,472,811,511,409,213,
0,467,799,505,404,211,
0,463,787,499,400,209,
0,459,793,495,432,207,
0,455,894,575,426,206,
0,449,876,568,422,204,
0,463,863,560,418,222,
0,489,847,552,414,220,
0,484,834,547,409,238,
0,478,820,540,406,236,
0,473,805,535,401,233,
0,468,793,528,397,231,
0,463,781,523,393,230,
0,459,847,518,430,227,
0,454,889,549,424,225,
0,448,872,543,420,224,
0,509,858,535,415,222,
0,502,844,528,412,220,
0,496,831,523,408,218,
0,491,817,516,404,216,
0,485,802,511,400,215,
0,480,790,506,396,212,
0,475,778,500,391,211,
0,470,881,539,432,209,
0,464,884,556,427,207,
0,459,868,550,423,215,
0,518,854,542,418,216,
0,511,839,536,414,224,
0,505,827,530,410,222,
0,499,814,524,406,220,
0,494,799,519,402,217,
0,488,787,513,398,216,
0,483,775,508,394,214,
0,479,892,548,433,212,
0,473,883,542,428,210,
0,467,867,534,423,223,
0,545,853,527,419,220,
0,539,839,521,415,223,
0,532,825,515,412,221,
0,526,813,510,408,219,
0,519,798,504,403,216,
0,514,785,499,399,215,
0,508,775,495,422,214,
0,504,895,560,443,211,
0,497,881,553,438,209,
0,491,866,545,433,225,
0,558,851,540,429,223,
0,551,838,534,424,220,
0,543,824,527,420,219,
0,537,812,521,417,217,
0,531,796,515,412,216,
0,526,784,510,408,213,
0,519,798,505,444,211,
0,514,896,547,440,209,
0,508,880,540,435,207,
0,529,865,532,430,220,
0,563,850,526,425,218,
0,556,837,519,422,216,
0,550,824,515,417,215,
0,543,811,509,414,213,
0,537,796,504,409,211,
0,531,783,498,405,209,
0,525,856,494,440,207,
0,519,894,555,435,206,
0,513,876,548,431,204,
0,568,862,540,427,225,
0,560,847,534,423,222,
0,552,834,528,418,220,
0,546,821,523,414,218,
0,540,808,516,410,216,
0,534,793,511,406,215,
0,527,781,505,401,212,
0,522,884,530,445,211,
0,516,888,548,440,209,
0,510,871,542,435,230,
0,540,857,534,431,252,
0,534,843,527,427,249,
0,527,830,521,423,247,
0,521,816,516,419,244,
0,515,803,511,415,242,
0,510,788,505,409,240,
0,504,777,499,406,238,
0,499,894,564,449,236,
0,494,888,557,445,235,
0,488,871,551,440,233,
0,563,856,543,435,231,
0,556,843,536,432,229,
0,548,830,531,428,227,
0,542,816,524,423,225,
0,536,803,519,419,224,
0,529,789,513,415,222,
0,524,777,508,432,220,
0,519,897,552,444,217,
0,512,884,545,439,216,
0,507,868,540,434,215,
0,555,854,531,430,213,
0,548,841,526,425,225,
0,542,827,519,422,223,
0,536,814,514,417,220,
0,529,801,508,414,219,
0,523,787,504,408,217,
0,518,796,498,445,216,
0,511,893,563,440,213,
0,506,876,556,435,211,
0,500,862,550,431,210,
0,551,847,541,427,207,
0,545,833,536,422,239,
0,538,820,529,418,237,
0,531,807,523,414,235,
0,526,796,518,410,232,
0,519,781,512,406,231,
0,514,853,507,451,229,
0,508,890,542,447,227,
0,503,873,536,441,225,
0,507,859,529,437,223,
0,542,844,523,433,224,
0,536,831,516,428,222,
0,529,818,511,423,220,
0,524,806,505,420,217,
0,518,793,500,415,216,
0,511,779,495,412,215,
0,507,886,542,445,212,
0,500,891,551,440,211,
0,495,874,544,435,216,
0,564,859,539,431,216,
0,556,846,531,427,214,
0,549,831,525,423,211,
0,543,819,519,419,210,
0,536,806,513,415,207,
0,530,794,508,411,207,
0,524,780,503,406,205,
0,519,894,559,435,203,
0,512,883,551,431,201,
0,507,867,545,427,211,
0,562,854,539,422,209,
0,553,839,531,418,239,
0,546,826,526,414,236,
0,540,813,519,410,234,
0,534,801,514,407,231,
0,527,789,509,403,230,
0,521,775,504,423,228,
0,516,896,566,433,227,
0,510,880,559,429,224,
0,504,866,552,424,274,
0,559,851,545,420,271,
0,550,838,537,416,268,
0,543,824,531,412,265,
0,537,812,526,408,263,
0,531,799,519,404,260,
0,525,787,515,401,259,
0,519,798,510,440,255,
0,513,894,585,435,254,
0,508,877,577,431,252,
0,503,863,571,427,252,
0,563,847,564,423,251,
0,556,835,556,418,248,
0,548,821,550,414,246,
0,542,808,543,410,243,
0,536,796,537,407,241,
0,530,783,531,403,240,
0,524,855,527,439,238,
0,519,891,561,434,236,
0,512,873,555,430,234,
0,526,859,548,425,232,
0,561,845,542,420,231,
0,555,831,534,417,228,
0,548,818,528,412,227,
0,542,806,523,408,225,
0,536,793,517,405,223,
0,529,782,511,401,222,
0,524,884,547,435,220,
0,518,886,551,431,218,
0,512,870,545,427,238,
0,572,855,539,422,243,
0,563,841,533,418,243,
0,556,828,526,414,241,
0,550,815,519,410,239,
0,543,802,515,406,236,
0,536,791,509,403,235,
0,531,775,504,399,232,
0,525,892,551,441,231,
0,519,880,543,436,228,
0,513,864,537,432,227,
0,573,850,531,428,225,
0,564,836,525,423,224,
0,557,824,518,419,221,
0,551,810,512,415,219,
0,543,798,507,412,217,
0,537,786,502,408,216,
0,531,775,496,403,214,
0,526,894,546,437,212,
0,519,877,540,432,211,
0,515,863,534,428,209,
0,558,848,527,423,207,
0,550,835,521,419,211,
0,543,822,514,415,209,
0,536,808,508,412,207,
0,531,796,504,408,205,
0,524,784,498,403,204,
0,519,803,493,415,203,
0,513,894,551,436,200,
0,508,877,544,432,199,
0,502,863,539,428,229,
0,572,848,531,423,227,
0,563,834,526,419,225,
0,556,822,519,415,222,
0,550,808,513,411,220,
0,543,796,508,408,219,
0,537,784,503,403,216,
0,531,857,497,440,215,
0,525,891,547,433,213,
0,519,873,540,429,211,
0,540,859,535,425,238,
0,600,844,527,420,236,
0,590,831,523,416,233,
0,583,818,515,412,231,
0,575,806,510,408,229,
0,569,793,504,404,227,
0,563,782,499,401,225,
0,556,886,548,427,223,
0,550,891,553,420,222,
0,543,873,547,416,236,
0,615,859,540,412,253,
0,622,844,534,408,251,
0,611,831,527,404,248,
0,604,818,521,399,246,
0,596,806,515,396,243,
0,589,793,510,393,241,
0,582,782,504,390,240,
0,575,893,560,435,237,
0,569,880,551,428,236,
0,562,865,545,424,238,
0,635,851,540,420,236,
0,626,837,534,415,235,
0,615,824,526,412,232,
0,608,812,519,408,231,
0,601,799,515,404,228,
0,593,787,509,400,227,
0,587,775,504,397,225,
0,580,894,557,432,223,
0,573,878,550,425,222,
0,568,863,543,422,227,
0,613,849,537,417,224,
0,604,835,531,413,230,
0,595,822,524,409,227,
0,588,809,519,406,225,
0,581,797,512,401,223,
0,574,784,507,398,221,
0,568,774,503,414,220,
0,561,893,545,439,217,
0,555,876,539,433,216,
0,549,861,532,428,221,
0,546,847,527,423,219,
0,540,833,520,420,217,
0,532,820,513,415,216,
0,527,807,508,412,214,
0,521,795,503,408,211,
0,516,783,497,404,209,
0,511,787,508,446,208,
0,506,887,574,440,207,
0,500,871,567,435,205,
0,496,856,560,430,204,
0,510,841,553,426,202,
0,504,828,547,422,225,
0,497,816,540,418,224,
0,492,803,534,414,221,
0,487,791,527,409,219,
0,483,779,522,406,217,
0,479,847,543,440,216,
0,473,880,539,434,214,
0,468,864,532,430,212,
0,519,850,527,425,210,
0,513,836,520,422,222,
0,508,823,515,417,225,
0,500,811,508,413,223,
0,495,798,503,409,220,
0,489,786,497,406,219,
0,484,775,493,401,217,
0,480,881,547,436,215,
0,473,879,540,430,213,
0,469,864,535,426,218,
0,489,849,527,422,216,
0,483,835,523,417,215,
0,478,822,516,413,212,
0,472,809,510,409,211,
0,467,797,504,406,209,
0,462,785,499,401,207,
0,457,774,494,398,206,
0,454,892,553,435,204,
0,449,876,546,430,202,
0,444,862,540,425,222,
0,508,847,534,422,219,
0,502,833,527,417,217,
0,496,820,521,414,216,
0,488,807,515,409,214,
0,483,796,509,406,211,
0,479,783,504,401,210,
0,473,772,499,417,208,
0,468,894,550,428,207,
0,463,874,543,423,204,
0,459,860,537,419,223,
0,527,845,531,415,220,
0,520,831,525,411,232,
0,515,819,519,407,231,
0,507,806,512,403,227,
0,502,793,507,399,226,
0,496,782,502,396,224,
0,491,791,508,441,222,
0,486,892,563,435,220,
0,480,871,556,431,218,
0,503,857,549,426,216,
0,539,843,543,422,215,
0,532,829,536,417,217,
0,526,816,531,414,216,
0,519,803,524,409,213,
0,513,792,518,406,211,
0,507,780,512,402,209,
0,502,849,562,435,207,
0,496,891,559,431,206,
0,491,870,551,425,211,
0,568,856,545,420,211,
0,563,841,540,417,218,
0,556,828,534,412,216,
0,550,815,527,408,214,
0,542,803,520,404,211,
0,536,791,515,401,210,
0,529,779,510,397,208,
0,524,883,563,433,206,
0,518,888,556,429,204,
0,512,867,550,423,248,
0,594,853,543,419,244,
0,585,839,536,415,243,
0,579,825,531,411,240,
0,572,813,524,408,238,
0,563,800,518,403,236,
0,556,788,512,399,233,
0,551,777,507,396,231,
0,543,893,549,430,230,
0,537,883,542,425,227,
0,531,865,536,420,288,
0,619,850,529,415,285,
0,610,836,524,412,282,
0,603,823,519,408,280,
0,595,810,512,404,277,
0,587,798,505,400,274,
0,579,785,500,396,271,
0,572,775,496,419,270,
0,567,893,551,440,267,
0,560,877,544,435,265,
0,553,859,539,430,263,
0,637,844,532,425,262,
0,628,830,526,421,263,
0,620,817,520,417,261,
0,611,804,515,413,259,
0,604,792,508,409,255,
0,596,781,503,405,254,
0,590,793,504,440,252,
0,583,894,557,435,249,
0,575,877,551,431,248,
0,593,859,543,425,258,
0,639,844,538,421,255,
0,632,831,531,416,253,
0,624,818,526,413,251,
0,614,806,520,409,249,
0,607,793,513,405,246,
0,600,782,508,401,244,
0,592,852,555,438,242,
0,585,892,556,432,240,
0,579,875,549,428,253,
0,652,856,543,423,260,
0,644,843,536,419,280,
0,636,829,531,415,276,
0,627,816,524,411,274,
0,618,804,519,407,271,
0,611,792,512,403,269,
0,604,780,507,399,267,
0,596,884,546,448,263,
0,589,888,539,441,262,
0,582,871,533,438,260,
0,649,854,527,432,258,
0,639,839,521,428,255,
0,632,826,515,423,254,
0,624,814,510,419,252,
0,615,801,504,415,249,
0,607,789,497,412,248,
0,600,777,492,408,246,
0,593,893,551,440,243,
0,585,884,544,435,241,
0,579,868,539,432,247,
0,658,851,532,426,244,
0,649,836,526,422,243,
0,639,824,519,418,240,
0,632,811,515,414,239,
0,623,798,509,409,236,
0,615,787,502,406,235,
0,608,775,497,428,232,
0,600,896,547,446,231,
0,593,881,540,440,229,
0,587,863,534,436,227,
0,630,848,527,431,225,
0,622,835,521,427,248,
0,614,822,516,423,245,
0,606,808,511,419,243,
0,596,796,504,415,241,
0,590,784,499,411,238,
0,583,799,505,446,236,
0,575,892,552,440,234,
0,569,875,546,435,231,
0,588,857,540,431,248,
0,618,843,534,425,246,
0,611,829,527,422,243,
0,603,816,521,418,241,
0,595,803,516,414,239,
0,587,792,511,409,237,
0,579,780,504,406,235,
0,574,849,560,448,233,
0,567,885,562,443,231,
0,560,869,555,439,243,
0,617,851,548,434,246,
0,609,837,542,428,244,
0,601,824,536,423,242,
0,594,811,530,420,240,
0,587,799,524,415,238,
0,578,787,519,412,236,
0,571,775,512,408,233,
0,566,884,563,435,231,
0,559,885,556,431,230,
0,552,870,549,426,239,
0,631,851,543,422,236,
0,622,838,536,417,235,
0,614,824,531,412,231,
0,607,812,524,408,230,
0,600,799,519,404,228,
0,590,787,512,401,227,
0,583,775,507,398,224,
0,576,893,556,439,223,
0,570,882,548,433,220,
0,563,867,543,430,241,
0,604,849,536,424,239,
0,596,835,530,419,237,
0,590,822,524,415,235,
0,583,809,519,412,233,
0,575,797,512,408,231,
0,568,785,505,403,228,
0,560,774,502,423,227,
0,554,897,559,432,225,
0,548,887,551,428,223,
0,543,871,546,423,221,
0,611,852,540,419,220,
0,603,839,534,415,218,
0,595,825,527,411,216,
0,588,813,521,407,215,
0,582,800,516,403,213,
0,572,788,509,399,211,
0,566,812,510,440,209,
0,560,899,555,435,207,
0,553,883,548,430,206,
0,574,868,542,425,206,
0,597,850,536,422,204,
0,590,836,529,415,203,
0,583,824,524,412,201,
0,575,811,518,408,199,
0,568,798,512,404,198,
0,560,786,505,401,196,
0,555,864,563,438,195,
0,547,899,556,432,193,
0,542,882,548,428,216,
0,601,867,543,423,221,
0,593,849,536,419,219,
0,585,836,530,415,217,
0,578,823,524,411,216,
0,572,810,519,407,214,
0,564,798,513,403,211,
0,556,785,507,399,210,
0,551,886,564,451,207,
0,543,889,557,445,206,
0,537,873,551,441,248,
0,608,859,543,436,244,
0,600,840,538,431,243,
0,591,828,531,427,240,
0,583,815,526,423,238,
0,577,803,519,419,236,
0,571,790,515,415,234,
0,562,779,508,411,231,
0,556,894,568,447,230,
0,550,884,560,442,227,
0,543,868,554,438,268,
0,596,855,547,433,265,
0,588,836,541,428,263,
0,581,824,535,423,260,
0,574,811,529,419,258,
0,568,799,524,415,255,
0,561,787,518,412,254,
0,552,775,511,435,252,
0,547,892,553,446,249,
0,540,875,547,441,247,
0,535,860,541,438,252,
0,607,846,535,432,249,
0,599,829,528,428,248,
0,591,816,523,423,246,
0,583,803,517,419,243,
0,576,792,511,415,241,
0,570,780,506,412,239,
0,561,805,519,448,237,
0,555,894,560,443,235,
0,549,877,553,439,233,
0,572,863,547,434,231,
0,598,847,541,430,230,
0,591,831,536,423,228,
0,583,818,529,420,227,
0,575,806,524,416,225,
0,569,793,518,412,223,
0,563,782,512,408,221,
0,556,856,555,446,220,
0,548,890,547,441,217,
0,543,872,542,436,216,
0,574,859,536,432,214,
0,566,844,529,428,244,
0,560,828,524,423,241,
0,552,815,518,418,239,
0,546,802,512,415,237,
0,540,790,507,411,235,
0,534,779,502,407,233,
0,527,887,559,444,231,
0,521,891,551,440,228,
0,516,873,544,435,231,
0,514,859,539,431,230,
0,508,845,532,427,227,
0,504,828,527,422,225,
0,499,816,520,417,224,
0,494,803,515,414,222,
0,488,791,509,409,220,
0,484,779,504,406,218,
0,479,892,563,442,216,
0,473,877,556,438,215,
0,470,862,551,433,212,
0,479,847,543,428,211,
0,473,834,537,424,217,
0,468,818,531,419,216,
0,463,806,526,415,214,
0,459,793,519,411,211,
0,455,782,515,408,210,
0,451,771,509,433,209,
0,446,894,556,442,207,
0,441,878,550,438,205,
0,438,863,543,433,204,
0,440,848,536,429,202,
0,435,835,531,424,199,
0,431,819,525,419,199,
0,427,806,519,415,198,
0,423,793,513,412,196,
0,419,782,508,408,195,
0,415,808,504,444,193,
0,412,895,559,438,192,
0,408,878,551,433,190,
0,438,864,545,430,191,
0,446,848,539,425,189,
0,441,835,533,421,188,
0,436,819,527,415,187,
0,432,806,521,412,185,
0,428,793,515,408,184,
0,423,782,510,404,183,
0,418,860,511,438,182,
0,414,890,554,433,179,
0,409,873,547,429,179,
0,472,859,541,423,177,
0,467,844,535,420,212,
0,462,831,529,415,217,
0,455,815,523,412,216,
0,451,803,518,408,214,
0,447,791,512,403,211,
0,442,779,507,399,210,
0,437,888,564,446,208,
0,432,888,568,440,206,
0,428,871,560,436,205,
0,486,856,554,432,203,
0,480,843,547,428,227,
0,475,829,542,423,225,
0,469,813,536,418,223,
0,463,801,529,414,221,
0,459,788,524,409,219,
0,454,777,518,407,217,
0,448,894,559,453,216,
0,444,884,550,448,213,
0,440,868,543,444,227,
0,505,855,537,440,225,
0,499,840,531,435,232,
0,494,827,526,431,231,
0,487,811,519,425,228,
0,483,799,514,422,227,
0,478,787,509,417,224,
0,472,775,504,442,223,
0,467,896,555,448,220,
0,462,880,546,443,218,
0,457,866,540,439,231,
0,540,851,534,434,230,
0,533,838,527,430,237,
0,527,821,521,425,235,
0,520,808,516,420,233,
0,515,796,511,416,231,
0,508,783,505,412,229,
0,504,808,500,446,227,
0,496,892,555,440,225,
0,492,875,547,436,223,
0,526,860,540,432,240,
0,551,846,534,428,238,
0,544,831,527,423,236,
0,538,816,522,419,234,
0,532,803,516,414,231,
0,526,792,511,411,230,
0,519,780,505,407,228,
0,515,860,507,454,226,
0,508,890,553,448,224,
0,502,873,545,444,224,
0,575,859,539,440,222,
0,566,844,532,435,223,
0,559,831,527,430,221,
0,551,814,520,426,219,
0,546,802,515,421,217,
0,540,790,510,417,216,
0,534,778,504,413,214,
0,527,887,547,455,212,
0,520,888,551,451,210,
0,515,871,543,447,243,
0,529,856,536,441,240,
0,523,843,531,437,238,
0,516,829,524,433,236,
0,511,813,519,429,233,
0,505,800,513,423,231,
0,500,788,508,419,230,
0,495,777,503,415,228,
0,491,895,557,444,226,
0,483,889,548,440,224,
0,479,873,542,435,240,
0,534,858,536,431,238,
0,527,844,529,427,236,
0,521,831,524,423,233,
0,515,815,518,419,231,
0,510,803,512,414,230,
0,504,790,507,409,228,
0,499,779,502,440,226,
0,494,896,550,441,224,
0,487,882,542,436,223,
0,481,867,536,432,220,
0,534,853,529,428,219,
0,527,839,523,423,216,
0,521,825,518,419,215,
0,515,809,512,415,214,
0,510,798,507,411,211,
0,504,785,501,407,210,
0,499,814,496,440,208,
0,494,896,554,434,207,
0,487,880,545,430,205,
0,516,865,540,425,227,
0,521,850,533,421,225,
0,515,836,527,417,224,
0,509,824,521,413,222,
0,504,807,515,408,220,
0,498,795,510,404,217,
0,492,783,504,400,216,
0,487,865,504,440,214,
0,483,891,558,434,212,
0,476,874,549,430,211,
0,527,860,543,425,214,
0,520,846,536,421,212,
0,515,831,530,417,211,
0,508,819,524,413,209,
0,503,803,519,408,207,
0,497,792,513,404,206,
0,492,780,508,401,204,
0,487,888,563,442,203,
0,481,891,563,438,201,
0,476,873,555,433,216,
0,539,859,547,428,214,
0,531,844,542,424,211,
0,526,831,536,420,209,
0,519,818,530,415,207,
0,514,803,524,411,206,
0,508,791,518,408,204,
0,503,779,513,403,203,
0,497,895,568,445,201,
0,492,885,561,440,199,
0,486,870,552,435,201,
0,508,855,546,431,199,
0,502,841,540,427,204,
0,496,828,534,423,202,
0,491,815,528,419,200,
0,486,799,523,414,199,
0,480,787,516,410,198,
0,476,775,511,440,196,
0,471,896,572,440,195,
0,465,881,566,435,193,
0,460,866,558,431,203,
0,495,851,551,427,201,
0,489,838,543,423,199,
0,483,824,538,419,199,
0,479,812,532,415,196,
0,473,796,526,409,195,
0,468,784,521,406,194,
0,463,814,515,451,192,
0,459,892,542,446,191,
0,454,875,536,441,189,
0,492,860,527,436,192,
0,493,846,522,432,191,
0,487,831,515,428,216,
0,482,819,511,423,213,
0,476,807,505,419,211,
0,472,792,499,415,209,
0,466,780,495,411,207,
0,462,866,502,457,206,
0,457,889,543,451,204,
0,451,872,537,448,203,
0,483,858,529,443,203,
0,478,844,524,439,202,
0,472,830,518,434,199,
0,467,817,512,430,199,
0,463,805,507,425,197,
0,457,790,501,420,195,
0,452,778,496,416,194,
0,448,888,555,451,192,
0,444,886,553,446,191,
0,440,870,547,441,206,
0,516,856,540,437,204,
0,510,841,534,433,207,
0,504,828,527,428,206,
0,498,815,521,424,204,
0,492,803,515,420,202,
0,487,787,510,415,199,
0,482,775,505,412,199,
0,477,894,569,446,197,
0,472,883,561,440,195,
0,467,867,555,436,207,
0,555,853,547,432,206,
0,547,839,540,428,204,
0,540,825,535,423,201,
0,535,813,528,419,199,
0,528,800,523,415,199,
0,523,785,518,411,196,
0,516,775,512,443,195,
0,511,894,579,438,193,
0,505,878,572,433,192,
0,499,864,566,429,248,
0,595,848,557,424,244,
0,588,835,551,420,242,
0,581,822,544,416,240,
0,574,808,539,412,238,
0,568,797,532,408,236,
0,560,782,527,403,234,
0,555,815,521,448,231,
0,548,893,575,443,230,
0,542,876,568,438,228,
0,583,862,562,433,240,
0,615,847,553,430,238,
0,608,833,547,425,236,
0,600,820,541,421,233,
0,593,807,536,417,231,
0,585,796,529,413,230,
0,579,780,524,408,227,
0,572,866,519,444,226,
0,566,889,567,439,224,
0,559,873,560,433,222,
0,615,859,553,430,233,
0,607,844,545,425,231,
0,600,831,539,421,228,
0,591,817,533,417,227,
0,585,805,527,413,224,
0,578,793,521,409,223,
0,572,778,515,404,220,
0,566,889,567,428,219,
0,559,888,563,423,217,
0,551,871,556,419,252,
0,546,857,550,415,255,
0,540,843,542,412,252,
0,534,830,536,408,250,
0,528,816,530,403,248,
0,523,804,524,399,246,
0,518,792,519,396,243,
0,512,777,513,391,241,
0,508,895,554,439,240,
0,502,887,547,433,238,
0,496,871,540,429,236,
0,494,856,535,425,233,
0,488,841,527,420,231,
0,484,828,521,416,230,
0,480,816,515,412,227,
0,475,803,510,408,225,
0,470,792,504,404,224,
0,465,776,499,435,223,
0,461,897,563,431,220,
0,456,886,556,427,219,
0,452,870,550,423,217,
0,483,856,543,418,215,
0,478,841,535,414,214,
0,472,828,529,410,211,
0,467,815,523,406,210,
0,462,803,518,403,208,
0,457,787,512,399,207,
0,452,824,507,438,206,
0,448,898,577,432,204,
0,444,882,569,428,202,
0,440,867,563,423,200,
0,456,852,556,419,199,
0,451,839,548,415,217,
0,448,825,543,411,216,
0,443,812,536,408,214,
0,438,799,531,403,212,
0,434,785,525,399,210,
0,431,871,526,439,208,
0,426,896,569,433,207,
0,423,877,562,429,205,
0,460,863,556,425,203,
0,479,847,550,420,201,
0,473,835,542,416,224,
0,468,822,536,412,223,
0,463,808,529,408,220,
0,458,796,524,404,219,
0,454,782,518,401,216,
0,449,890,559,435,215,
0,444,889,552,431,213,
0,440,872,545,427,241,
0,532,858,540,423,241,
0,524,844,534,418,243,
0,518,830,526,414,240,
0,512,817,520,410,238,
0,507,805,515,406,236,
0,500,793,510,403,234,
0,495,778,504,399,231,
0,491,894,563,436,230,
0,484,882,556,432,228,
0,480,867,550,428,229,
0,566,852,543,423,227,
0,557,839,536,419,240,
0,550,825,529,415,237,
0,543,812,524,412,235,
0,537,799,518,408,233,
0,531,787,512,403,231,
0,526,774,507,399,229,
0,519,896,563,439,227,
0,514,881,556,433,225,
0,508,867,550,430,249,
0,583,851,543,425,247,
0,575,838,536,420,244,
0,568,824,529,416,241,
0,560,812,524,412,240,
0,555,799,518,409,238,
0,547,787,512,405,236,
0,542,819,508,433,233,
0,536,891,556,446,231,
0,529,873,548,441,230,
0,524,859,543,437,227,
0,587,844,536,432,225,
0,578,831,528,428,233,
0,571,817,523,423,231,
0,564,806,518,419,228,
0,558,793,512,415,227,
0,551,781,506,412,224,
0,545,868,502,444,223,
0,539,893,498,438,221,
0,532,876,493,433,219,
0,559,860,487,428,247,
0,581,846,483,423,244,
0,572,832,478,420,242,
0,565,819,473,415,240,
0,559,807,468,412,237,
0,551,795,464,408,236,
0,545,783,460,404,233,
0,540,891,531,446,231,
0,534,892,536,440,230,
0,527,874,529,436,249,
0,588,860,524,432,247,
0,580,846,518,428,244,
0,571,831,510,423,242,
0,564,819,504,419,239,
0,558,807,499,415,237,
0,551,794,494,411,236,
0,545,782,489,408,233,
0,540,896,563,441,231,
0,532,887,556,436,230,
0,527,871,549,432,233,
0,579,856,542,428,231,
0,572,842,536,423,230,
0,563,828,528,419,228,
0,557,816,523,415,225,
0,551,803,518,412,224,
0,543,792,512,408,222,
0,538,780,507,404,220,
0,532,896,564,445,218,
0,526,880,558,440,216,
0,520,865,551,436,215,
0,519,851,544,432,213,
0,513,837,539,428,211,
0,507,824,531,423,209,
0,502,811,525,419,207,
0,496,799,519,415,206,
0,492,787,513,412,204,
0,487,775,508,441,204,
0,482,896,560,455,201,
0,477,878,553,451,199,
0,472,864,547,447,209,
0,512,849,541,442,207,
0,507,835,535,438,207,
0,499,822,527,433,206,
0,494,809,521,429,204,
0,488,797,515,425,202,
0,483,785,510,421,200,
0,479,812,524,448,199,
0,473,892,551,441,198,
0,468,874,543,436,196,
0,494,860,538,432,196,
0,496,845,531,428,195,
0,491,831,526,423,206,
0,484,819,519,419,203,
0,479,806,513,415,201,
0,473,794,508,412,199,
0,469,782,503,408,198,
0,464,860,559,444,196,
0,459,882,553,438,195,
0,455,867,546,433,216,
0,513,852,540,429,213,
0,507,839,534,424,220,
0,500,825,527,420,217,
0,494,812,521,416,216,
0,487,799,515,412,214,
0,483,788,510,408,211,
0,478,776,504,405,210,
0,473,887,564,441,208,
0,467,883,556,435,207,
0,463,867,550,432,231,
0,518,853,543,427,228,
0,511,839,537,423,252,
0,505,825,531,419,249,
0,499,813,524,415,247,
0,493,801,519,411,244,
0,487,789,513,408,242,
0,483,777,508,403,240,
0,478,895,561,445,238,
0,472,884,553,440,236,
0,467,869,547,435,234,
0,519,854,541,430,231,
0,513,839,535,425,236,
0,507,827,529,422,233,
0,500,814,521,417,231,
0,495,801,516,414,229,
0,489,790,511,409,227,
0,484,778,505,443,225,
0,479,896,546,454,224,
0,473,876,540,448,222,
0,469,862,534,444,234,
0,508,847,527,440,231,
0,504,834,521,435,263,
0,496,821,515,431,259,
0,491,807,508,427,257,
0,484,796,504,422,255,
0,480,783,498,418,252,
0,475,811,512,449,251,
0,470,895,545,444,248,
0,465,873,539,438,246,
0,497,859,532,433,252,
0,509,845,527,429,250,
0,504,831,520,425,255,
0,496,818,515,420,253,
0,491,806,508,416,250,
0,486,793,503,412,248,
0,480,782,497,408,246,
0,476,862,547,435,243,
0,470,889,540,431,241,
0,465,868,534,425,240,
0,529,855,527,421,238,
0,523,839,522,417,236,
0,516,827,516,413,234,
0,509,814,511,409,231,
0,504,801,504,406,230,
0,498,790,499,401,227,
0,492,778,494,398,226,
0,487,887,565,440,224,
0,482,884,558,435,223,
0,477,864,551,430,224,
0,520,851,544,425,223,
0,515,836,539,421,220,
0,508,824,532,417,219,
0,500,811,526,412,217,
0,496,798,519,408,215,
0,490,786,514,405,214,
0,484,775,508,401,211,
0,480,892,556,440,209,
0,475,878,549,435,208,
0,470,860,543,430,207,
0,507,845,536,426,205,
0,500,831,531,422,207,
0,495,818,524,418,206,
0,487,806,519,414,204,
0,483,793,512,409,202,
0,478,782,506,406,200,
0,472,771,502,434,199,
0,467,892,548,443,198,
0,463,871,542,438,196,
0,459,856,536,432,199,
0,487,843,529,428,198,
0,481,829,524,423,223,
0,476,816,518,420,221,
0,470,803,512,415,219,
0,464,792,505,412,216,
0,460,780,500,408,215,
0,455,808,511,444,212,
0,450,889,548,438,211,
0,446,868,542,433,209,
0,496,854,536,428,207,
0,510,840,529,423,206,
0,504,827,524,419,204,
0,497,814,518,415,203,
0,491,801,512,412,201,
0,486,789,505,408,199,
0,480,777,499,403,198,
0,476,860,546,448,196,
0,470,889,542,444,195,
0,465,869,536,439,222,
0,542,856,529,433,219,
0,534,841,523,429,217,
0,527,828,517,424,216,
0,521,815,511,420,214,
0,514,802,506,416,211,
0,508,790,499,412,209,
0,503,779,495,409,207,
0,497,888,547,444,206,
0,492,883,540,439,204,
0,487,864,534,435,203,
0,536,850,527,429,201,
0,529,836,521,424,226,
0,524,824,515,420,224,
0,518,810,511,416,222,
0,510,798,504,412,220,
0,504,786,499,408,217,
0,499,775,494,405,216,
0,494,895,542,434,214,
0,488,888,536,430,211,
0,483,868,529,425,223,
0,548,854,524,420,220,
0,542,839,518,415,219,
0,535,827,512,412,217,
0,529,814,506,408,216,
0,521,801,499,404,214,
0,515,789,494,400,211,
0,510,777,489,433,209,
0,504,898,552,440,207,
0,499,886,545,435,206,
0,494,866,540,430,207,
0,543,851,534,424,205,
0,536,838,527,420,214,
0,530,824,521,416,212,
0,524,812,515,412,210,
0,517,799,509,408,208,
0,511,787,504,405,206,
0,505,819,527,445,204,
0,500,896,577,440,203,
0,495,879,570,435,201,
0,543,860,563,431,224,
0,572,846,556,425,222,
0,564,831,551,421,220,
0,558,819,543,417,219,
0,551,807,538,413,216,
0,543,794,531,409,215,
0,537,782,525,406,212,
0,531,864,575,445,211,
0,526,891,568,440,208,
0,519,873,561,435,225,
0,589,856,555,430,222,
0,581,841,547,425,220,
0,574,828,542,422,219,
0,567,815,536,417,217,
0,560,803,529,413,216,
0,551,791,523,409,213,
0,545,779,518,406,211,
0,540,888,563,454,209,
0,534,888,556,448,207,
0,527,872,550,444,206,
0,583,854,543,438,204,
0,575,840,537,434,248,
0,568,827,531,430,244,
0,561,814,525,425,242,
0,555,801,519,422,240,
0,547,790,512,417,238,
0,540,778,508,414,236,
0,535,894,559,446,233,
0,528,881,551,440,231,
0,523,866,545,436,230,
0,566,848,540,431,227,
0,559,835,534,427,253,
0,551,822,527,423,251,
0,546,808,521,419,248,
0,540,796,515,415,246,
0,531,784,509,411,243,
0,526,774,504,444,241,
0,520,892,563,447,239,
0,515,876,556,441,237,
0,510,861,549,438,236,
0,574,844,543,432,235,
0,567,830,536,428,232,
0,560,817,531,423,231,
0,553,804,525,419,229,
0,547,792,519,415,227,
0,539,780,512,412,225,
0,533,819,519,448,223,
0,527,892,552,443,221,
0,521,875,546,438,220,
0,536,861,540,433,217,
0,540,843,534,428,216,
0,535,829,527,423,221,
0,527,816,521,420,219,
0,522,803,516,415,217,
0,516,792,511,412,216,
0,509,780,504,408,214,
0,504,861,571,448,211,
0,499,884,563,443,211,
0,494,868,556,438,238,
0,505,855,550,433,235,
0,499,836,543,428,232,
0,494,824,537,423,231,
0,487,811,531,420,228,
0,483,798,525,415,227,
0,479,786,519,412,225,
0,472,775,513,408,223,
0,468,888,557,451,220,
0,463,887,550,447,219,
0,459,870,543,443,217,
0,518,856,537,438,216,
0,511,838,531,432,230,
0,505,824,525,428,227,
0,499,812,519,423,225,
0,494,799,513,419,224,
0,488,787,508,415,222,
0,482,775,502,412,220,
0,478,895,571,451,217,
0,472,887,564,447,216,
0,467,871,558,443,243,
0,540,856,551,438,240,
0,532,839,544,432,238,
0,526,825,539,428,236,
0,519,812,532,423,234,
0,514,799,527,420,231,
0,508,787,521,415,230,
0,502,776,515,448,227,
0,496,896,580,446,225,
0,491,880,573,441,224,
0,486,865,567,436,262,
0,536,850,560,432,259,
0,528,833,553,427,256,
0,523,819,547,423,254,
0,516,807,541,419,252,
0,511,795,535,415,249,
0,504,783,529,411,248,
0,499,812,550,445,245,
0,493,892,569,440,243,
0,487,875,563,435,241,
0,534,860,556,431,239,
0,551,846,550,427,237,
0,545,829,543,421,235,
0,539,816,537,417,233,
0,532,803,531,413,231,
0,526,792,526,409,230,
0,519,780,519,406,227,
0,513,870,590,438,225,
0,508,896,582,433,224,
0,502,879,575,428,255,
0,555,864,568,423,252,
0,547,849,561,420,249,
0,541,831,555,415,248,
0,535,819,548,412,246,
0,528,807,543,408,243,
0,523,795,537,403,241,
0,515,783,531,399,240,
0,510,891,561,436,237,
0,504,899,555,432,235,
0,499,880,548,428,264,
0,558,865,542,423,262,
0,551,851,536,419,273,
0,544,834,530,414,271,
0,538,820,524,409,268,
0,531,807,519,406,265,
0,526,796,513,402,263,
0,519,783,508,399,262,
0,513,897,557,444,258,
0,508,903,550,439,255,
0,502,886,543,435,255,
0,544,870,537,430,253,
0,537,856,531,425,251,
0,531,838,526,420,248,
0,526,825,519,416,247,
0,519,812,514,412,244,
0,513,799,509,408,242,
0,507,788,504,454,240,
0,501,900,545,463,238,
0,496,896,540,459,236,
0,491,878,533,455,237,
0,513,863,527,449,235,
0,507,845,521,446,232,
0,501,831,515,440,231,
0,496,819,510,435,230,
0,490,806,504,432,227,
0,486,794,499,428,226,
0,480,835,495,451,224,
0,474,901,540,446,222,
0,470,888,534,441,220,
0,512,871,527,438,218,
0,513,857,521,433,216,
0,507,839,515,428,220,
0,501,827,510,423,217,
0,496,814,504,419,216,
0,490,801,499,415,214,
0,484,790,494,412,212,
0,479,876,505,449,211,
0,473,901,536,444,209,
0,468,885,529,440,207,
0,537,870,524,435,206,
0,529,855,518,431,227,
0,524,838,512,427,224,
0,518,824,506,422,222,
0,511,812,500,417,220,
0,505,799,496,414,219,
0,500,787,491,409,216,
0,494,892,569,431,215,
0,487,899,580,425,212,
0,483,880,573,422,216,
0,552,865,567,417,215,
0,545,851,560,413,212,
0,539,834,553,409,211,
0,532,822,547,404,209,
0,526,808,541,401,207,
0,520,796,536,397,206,
0,515,784,529,395,204,
0,508,896,611,435,203,
0,502,890,603,431,200,
0,497,873,595,427,203,
0,552,859,588,422,200,
0,545,845,582,418,205,
0,539,828,575,414,204,
0,532,815,568,408,201,
0,526,803,563,405,199,
0,520,791,556,401,199,
0,515,779,550,438,197,
0,508,899,575,438,195,
0,503,887,568,433,193,
0,497,871,562,428,202,
0,551,856,556,423,199,
0,545,843,549,420,199,
0,539,825,543,415,197,
0,532,813,537,411,195,
0,527,800,531,408,193,
0,520,788,526,403,192,
0,515,831,521,441,191,
0,508,899,552,435,190,
0,503,884,545,432,195,
0,553,870,540,427,238,
0,573,855,534,423,236,
0,567,841,527,419,233,
0,560,824,521,415,231,
0,552,812,516,409,230,
0,546,799,511,406,227,
0,540,787,505,401,226,
0,534,875,521,440,224,
0,527,899,560,435,222,
0,520,881,553,431,236,
0,622,867,547,427,232,
0,612,852,540,423,250,
0,604,839,535,419,247,
0,596,822,528,414,244,
0,590,809,523,409,243,
0,583,797,518,406,240,
0,575,785,512,402,239,
0,569,891,575,444,236,
0,561,892,572,440,235,
0,555,875,566,435,256,
0,632,860,558,430,254,
0,624,846,551,426,252,
0,615,832,545,422,249,
0,608,816,540,417,248,
0,600,804,534,412,245,
0,593,792,527,408,243,
0,586,780,523,406,241,
0,580,895,585,437,239,
0,572,885,575,433,237,
0,564,870,569,428,235,
0,609,855,563,423,233,
0,601,840,556,420,255,
0,594,828,550,415,252,
0,587,812,543,411,250,
0,579,799,537,408,248,
0,573,787,531,403,246,
0,567,775,527,446,243,
0,560,899,591,454,241,
0,551,888,581,449,240,
0,547,871,574,444,237,
0,588,856,568,440,236,
0,580,843,561,435,233,
0,574,829,555,432,231,
0,568,813,548,426,230,
0,560,800,542,422,227,
0,553,788,536,418,225,
0,547,835,531,453,224,
0,542,899,554,448,222,
0,534,883,546,443,220,
0,543,868,540,439,219,
0,537,854,534,434,216,
0,531,840,527,430,224,
0,526,827,521,425,222,
0,519,811,516,420,220,
0,515,799,511,416,218,
0,510,787,505,412,216,
0,504,877,516,447,215,
0,499,899,551,441,213,
0,493,880,543,436,211,
0,497,865,537,432,209,
0,492,851,531,428,222,
0,487,838,525,423,220,
0,481,824,519,419,217,
0,476,808,514,415,216,
0,472,796,508,411,214,
0,467,784,503,408,212,
0,463,892,499,446,210,
0,459,900,495,441,208,
0,454,883,489,436,220,
0,486,867,483,432,217,
0,480,853,480,428,216,
0,475,839,475,423,214,
0,470,825,470,419,212,
0,464,810,466,415,210,
0,460,798,462,411,208,
0,455,786,457,409,207,
0,451,897,530,449,205,
0,446,897,523,444,204,
0,441,879,515,440,202,
0,504,864,510,435,199,
0,498,849,504,432,211,
0,492,835,499,427,209,
0,487,823,494,423,207,
0,481,807,488,418,206,
0,476,795,483,414,204,
0,472,783,479,451,203,
0,467,888,551,448,200,
0,461,871,543,444,199,
0,471,857,536,440,198,
0,531,843,529,435,196,
0,525,830,524,430,216,
0,519,816,518,426,215,
0,513,804,512,422,212,
0,507,788,507,417,211,
0,502,777,502,413,209,
0,496,828,497,448,207,
0,492,897,556,443,205,
0,484,880,548,439,204,
0,540,865,540,433,214,
0,545,851,535,429,212,
0,539,838,528,425,215,
0,532,824,523,421,213,
0,527,812,517,417,211,
0,520,796,511,412,209,
0,515,783,506,408,207,
0,510,877,519,449,206,
0,504,899,575,444,204,
0,497,881,568,440,202,
0,546,866,560,435,227,
0,539,851,553,431,225,
0,532,838,547,427,223,
0,526,825,542,423,221,
0,520,812,536,418,220,
0,515,796,529,414,217,
0,508,784,524,409,216,
0,504,892,519,444,214,
0,497,903,514,439,212,
0,492,887,509,435,227,
0,548,871,503,430,225,
0,542,856,497,425,223,
0,536,843,492,422,220,
0,529,829,487,417,219,
0,523,816,483,414,216,
0,518,800,478,408,215,
0,511,789,473,406,214,
0,507,890,543,441,211,
0,500,873,537,438,209,
0,494,859,531,433,230,
0,550,844,524,428,227,
0,543,831,518,423,227,
0,536,818,512,419,225,
0,529,806,507,415,224,
0,524,793,502,412,222,
0,518,779,496,408,220,
0,512,768,491,444,218,
0,507,897,568,439,216,
0,500,883,561,434,215,
0,504,868,555,430,213,
0,543,854,547,425,211,
0,537,839,540,422,214,
0,531,826,535,417,212,
0,524,813,528,413,210,
0,519,798,523,409,208,
0,513,786,517,404,207,
0,508,840,512,440,206,
0,502,902,564,435,204,
0,496,890,557,431,201,
0,548,873,551,427,211,
0,545,859,543,422,207,
0,539,844,536,418,207,
0,532,831,531,414,204,
0,526,818,524,410,203,
0,519,803,519,406,201,
0,515,792,513,401,199,
0,509,880,523,444,199,
0,504,901,550,439,196,
0,497,884,543,435,195,
0,551,870,537,430,217,
0,543,855,529,425,217,
0,536,841,524,422,215,
0,530,828,518,417,213,
0,524,815,512,414,211,
0,519,799,507,409,209,
0,512,787,502,404,207,
0,508,892,569,446,206,
0,502,890,562,440,204,
0,496,873,556,436,222,
0,550,858,548,432,220,
0,542,844,541,428,219,
0,536,831,535,423,216,
0,529,818,529,419,215,
0,524,806,524,415,213,
0,518,790,518,412,211,
0,512,779,512,408,209,
0,507,896,548,435,207,
0,500,888,542,430,206,
0,496,871,536,425,240,
0,575,857,527,422,238,
0,568,844,521,417,235,
0,561,830,515,413,233,
0,555,817,510,409,231,
0,548,804,504,406,229,
0,542,790,499,401,227,
0,536,779,495,447,225,
0,530,899,560,441,223,
0,524,886,553,436,222,
0,519,871,547,432,220,
0,573,856,540,428,217,
0,566,842,534,423,220,
0,559,828,527,419,217,
0,552,816,521,415,216,
0,545,803,515,412,215,
0,540,788,511,408,212,
0,534,838,505,451,211,
0,527,899,566,446,209,
0,521,883,559,440,207,
0,516,868,552,436,206,
0,585,854,543,432,204,
0,579,839,538,428,202,
0,572,827,532,423,200,
0,564,814,527,419,199,
0,558,801,520,415,198,
0,551,787,515,412,196,
0,546,881,536,444,195,
0,540,902,571,440,193,
0,534,885,564,435,192,
0,571,869,558,431,190,
0,572,855,550,427,189,
0,566,841,543,422,188,
0,559,828,537,418,188,
0,552,816,531,415,185,
0,546,803,526,411,184,
0,540,787,519,406,184,
0,535,892,542,441,182,
0,527,895,536,436,180,
0,522,876,530,432,180,
0,559,862,524,427,179,
0,550,847,518,423,196,
0,543,834,512,419,194,
0,536,821,506,415,192,
0,530,807,501,411,191,
0,524,796,496,408,189,
0,519,782,491,403,188,
0,513,895,550,433,186,
0,508,881,543,428,184,
0,502,866,536,423,184,
0,547,851,530,419,182,
0,539,838,523,415,233,
0,532,824,517,412,230,
0,527,812,511,408,227,
0,520,799,505,403,225,
0,515,787,500,399,224,
0,509,774,496,442,222,
0,504,897,553,436,220,
0,498,881,547,432,217,
0,493,867,540,428,223,
0,550,851,534,423,221,
0,542,839,527,419,227,
0,536,825,520,415,224,
0,529,812,515,412,222,
0,523,799,510,408,220,
0,517,787,504,403,218,
0,511,831,499,444,216,
0,505,895,561,440,215,
0,500,878,555,435,212,
0,496,863,548,431,217,
0,543,849,542,426,216,
0,535,835,534,422,216,
0,528,822,528,418,214,
0,523,809,523,414,212,
0,516,797,516,409,210,
0,511,785,511,406,208,
0,505,878,535,440,207,
0,500,898,562,435,205,
0,495,880,556,432,204,
0,543,865,549,427,202,
0,550,851,543,423,199,
0,542,837,536,419,199,
0,536,824,529,415,197,
0,529,811,524,411,195,
0,523,799,518,407,194,
0,518,787,512,403,192,
0,512,892,560,441,191,
0,506,891,551,436,190,
0,500,873,545,432,207,
0,527,859,540,428,204,
0,521,844,533,423,214,
0,513,831,526,419,211,
0,508,818,519,415,209,
0,502,806,515,411,207,
0,496,793,509,408,205,
0,491,782,504,403,204,
0,487,884,582,443,202,
0,481,868,574,438,199,
0,476,854,568,434,199,
0,483,839,560,429,198,
0,478,826,554,425,211,
0,472,814,546,420,209,
0,467,801,540,416,207,
0,463,788,534,413,206,
0,458,777,528,409,204,
0,454,766,523,406,203,
0,449,900,563,445,200,
0,445,892,556,440,199,
0,441,875,551,435,209,
0,521,860,543,432,207,
0,515,846,537,427,206,
0,508,831,530,423,204,
0,502,819,524,419,201,
0,496,807,519,415,199,
0,491,795,513,411,199,
0,486,783,508,444,197,
0,480,900,550,444,195,
0,475,886,543,439,194,
0,472,870,537,434,215,
0,534,856,531,430,212,
0,525,841,526,425,211,
0,519,828,518,422,208,
0,513,815,512,417,207,
0,508,803,507,414,205,
0,502,791,502,409,204,
0,496,831,524,455,201,
0,492,900,548,449,199,
0,486,884,542,444,199,
0,536,868,536,440,199,
0,562,854,529,435,198,
0,553,839,524,432,219,
0,547,827,516,428,216,
0,540,814,511,423,214,
0,534,801,505,419,212,
0,527,790,500,415,211,
0,523,877,558,449,209,
0,516,900,550,444,207,
0,511,882,543,440,231,
0,582,867,537,435,227,
0,574,853,531,431,227,
0,565,839,525,426,224,
0,559,826,518,422,222,
0,551,813,512,418,220,
0,545,801,507,414,219,
0,539,789,502,410,216,
0,534,891,551,454,215,
0,527,894,544,448,213,
0,521,876,538,444,211,
0,588,861,531,439,209,
0,580,847,526,434,233,
0,572,833,519,430,231,
0,564,820,513,425,227,
0,558,807,508,422,226,
0,551,796,502,417,224,
0,545,783,497,414,222,
0,539,896,554,443,220,
0,533,887,547,437,218,
0,527,871,542,432,230,
0,591,856,535,428,227,
0,583,842,528,423,225,
0,575,828,523,419,223,
0,568,816,515,415,220,
0,561,803,510,412,219,
0,555,792,504,408,217,
0,548,780,500,443,216,
0,542,899,563,440,214,
0,536,882,556,435,211,
0,531,867,551,430,213,
0,574,852,543,425,211,
0,568,839,537,422,217,
0,559,825,531,417,216,
0,551,812,524,414,214,
0,545,799,519,409,211,
0,540,788,513,406,210,
0,534,829,527,451,208,
0,527,896,544,445,207,
0,521,879,539,440,213,
0,547,864,532,435,240,
0,547,849,526,431,238,
0,540,835,519,427,236,
0,532,823,515,423,233,
0,527,809,508,418,231,
0,520,798,502,414,229,
0,515,785,497,410,227,
0,510,874,583,448,225,
0,504,903,579,443,224,
0,499,888,572,438,238,
0,558,871,565,433,235,
0,551,857,559,428,249,
0,543,843,551,423,246,
0,536,830,546,420,243,
0,529,817,539,415,241,
0,524,804,532,412,239,
0,518,792,527,408,237,
0,512,892,558,451,235,
0,507,895,551,447,233,
0,501,876,545,441,251,
0,566,862,538,436,248,
0,559,847,532,432,247,
0,551,834,527,428,244,
0,543,821,519,423,242,
0,537,808,513,419,239,
0,531,796,508,415,238,
0,525,784,504,412,236,
0,519,896,570,440,233,
0,514,888,563,435,231,
0,508,871,556,430,230,
0,569,856,550,425,227,
0,563,843,543,421,229,
0,556,830,537,417,227,
0,547,816,530,413,225,
0,541,803,524,409,223,
0,535,792,519,406,221,
0,529,780,513,444,220,
0,523,897,563,441,217,
0,518,878,556,436,216,
0,512,864,550,431,220,
0,542,849,543,427,217,
0,536,835,537,423,238,
0,529,822,531,419,236,
0,521,809,524,415,233,
0,516,798,519,411,231,
0,510,785,513,407,229,
0,505,823,547,425,227,
0,499,895,583,420,225,
0,494,873,575,416,224,
0,526,859,569,412,237,
0,523,844,562,408,235,
0,516,831,556,403,234,
0,511,818,550,399,231,
0,504,806,542,396,231,
0,498,793,536,392,227,
0,492,782,530,390,225,
0,487,871,550,438,224,
0,483,892,543,432,222,
0,478,871,536,428,227,
0,515,856,531,423,225,
0,508,843,524,419,226,
0,503,829,519,415,224,
0,497,816,513,411,222,
0,491,803,507,407,220,
0,485,792,502,403,217,
0,480,780,497,399,216,
0,476,891,552,443,215,
0,470,892,546,438,212,
0,465,871,540,433,220,
0,513,856,534,428,219,
0,507,842,527,423,233,
0,502,828,521,419,231,
0,496,816,515,415,230,
0,488,803,509,412,227,
0,483,792,504,408,225,
0,478,780,499,404,224,
0,473,896,562,449,222,
0,468,896,555,444,220,
0,463,874,548,439,217,
0,518,859,542,435,216,
0,511,845,536,430,224,
0,505,831,530,425,222,
0,499,818,524,422,220,
0,493,806,517,417,218,
0,487,793,511,414,216,
0,483,782,507,449,215,
0,477,899,537,444,212,
0,472,888,531,440,211,
0,479,868,524,433,228,
0,541,854,519,429,227,
0,535,840,513,425,225,
0,527,827,508,420,224,
0,522,814,502,417,222,
0,515,801,496,413,220,
0,508,790,491,409,217,
0,504,830,527,443,216,
0,498,897,559,438,214,
0,492,880,551,433,216,
0,543,861,546,428,240,
0,545,847,540,423,238,
0,539,833,534,419,244,
0,532,820,527,415,242,
0,526,807,521,412,240,
0,519,796,515,408,238,
0,513,783,509,403,236,
0,508,876,566,448,233,
0,502,899,558,441,231,
0,496,881,551,438,271,
0,572,862,545,432,268,
0,563,847,539,428,265,
0,556,834,532,423,263,
0,550,821,527,419,260,
0,543,808,520,415,258,
0,536,796,514,411,255,
0,529,783,509,408,254,
0,524,892,566,444,251,
0,518,896,559,440,248,
0,512,877,551,435,248,
0,588,859,545,430,247,
0,580,844,539,425,243,
0,574,831,533,422,242,
0,567,818,527,417,240,
0,560,806,521,413,238,
0,551,793,515,409,236,
0,545,782,509,406,234,
0,540,896,583,439,231,
0,534,890,575,434,230,
0,527,873,570,430,230,
0,583,855,563,423,228,
0,575,841,556,420,227,
0,568,828,550,415,225,
0,562,815,543,412,224,
0,555,802,538,408,222,
0,547,790,531,404,220,
0,541,779,526,434,218,
0,536,879,595,429,216,
0,529,863,588,424,215,
0,526,849,580,420,236,
0,595,831,574,415,233,
0,588,819,568,412,231,
0,580,806,561,408,230,
0,573,793,555,403,227,
0,564,782,548,399,225,
0,558,771,541,396,224,
0,551,819,553,447,222,
0,545,893,554,441,220,
0,540,876,547,436,218,
0,590,862,541,432,224,
0,599,844,536,427,223,
0,591,830,529,423,220,
0,583,817,524,419,219,
0,577,804,519,414,217,
0,568,792,513,411,216,
0,562,780,506,407,214,
0,556,875,537,441,211,
0,550,896,530,436,209,
0,543,878,524,432,239,
0,542,863,518,428,236,
0,536,845,512,422,234,
0,529,831,507,418,231,
0,524,819,502,414,230,
0,518,806,496,409,228,
0,511,793,492,406,226,
0,505,782,486,403,224,
0,501,893,577,431,222,
0,496,900,569,426,220,
0,491,881,563,422,224,
0,566,867,556,417,222,
0,559,849,551,412,224,
0,551,835,543,408,222,
0,545,822,537,404,220,
0,539,809,531,401,219,
0,531,798,526,397,216,
0,525,785,519,395,215,
0,519,897,530,435,212,
0,513,895,524,431,211,
0,508,877,519,427,269,
0,603,862,512,422,265,
0,595,844,507,417,263,
0,587,831,502,413,261,
0,579,817,497,409,259,
0,573,805,492,405,255,
0,564,793,487,401,254,
0,558,783,481,436,252,
0,551,900,556,431,249,
0,546,895,548,427,248,
0,540,876,543,423,268,
0,620,857,536,418,265,
0,612,844,530,413,263,
0,604,830,524,409,261,
0,598,817,519,405,258,
0,590,805,513,401,255,
0,581,793,508,398,254,
0,575,835,537,440,251,
0,568,898,559,434,249,
0,561,881,551,430,248,
0,611,867,546,425,267,
0,643,848,540,421,265,
0,635,835,534,415,265,
0,626,822,527,412,263,
0,619,808,521,408,261,
0,611,796,516,404,259,
0,601,784,511,399,256,
0,595,875,557,438,254,
0,588,896,550,433,252,
0,582,878,543,428,249,
0,649,863,536,423,248,
0,639,845,531,420,246,
0,632,831,524,415,243,
0,624,819,519,411,241,
0,615,806,513,408,240,
0,608,793,508,403,238,
0,600,782,503,399,236,
0,593,892,541,443,233,
0,585,894,534,438,231,
0,579,876,527,433,248,
0,634,861,522,429,245,
0,625,844,516,425,243,
0,617,830,511,419,240,
0,609,817,505,415,239,
0,603,804,499,412,236,
0,595,792,495,408,235,
0,587,781,488,404,233,
0,579,896,539,435,231,
0,573,889,532,430,228,
0,567,872,527,426,241,
0,624,858,520,422,240,
0,615,841,515,417,238,
0,608,828,509,412,236,
0,600,815,504,408,233,
0,593,802,498,405,231,
0,587,790,493,401,230,
0,578,779,487,444,227,
0,571,898,550,439,225,
0,564,883,543,434,224,
0,560,869,536,430,222,
0,626,854,531,425,220,
0,617,836,524,421,218,
0,609,824,519,415,216,
0,602,811,513,412,216,
0,595,798,508,408,214,
0,588,787,503,404,211,
0,579,838,531,441,210,
0,572,899,547,436,208,
0,567,883,541,432,211,
0,615,868,536,428,247,
0,620,854,528,423,244,
0,612,836,523,419,242,
0,604,824,517,414,240,
0,598,811,511,410,238,
0,590,799,506,406,236,
0,583,787,500,402,234,
0,575,876,563,439,231,
0,568,895,556,433,230,
0,561,877,549,429,287,
0,619,863,543,424,285,
0,610,847,536,420,283,
0,603,831,530,415,280,
0,595,818,524,412,277,
0,588,806,519,408,275,
0,581,793,513,403,272,
0,574,782,508,399,270,
0,567,891,543,432,268,
0,560,892,536,428,264,
0,553,875,531,423,267,
0,617,860,524,419,263,
0,609,846,519,415,262,
0,601,829,513,410,259,
0,594,816,508,407,258,
0,587,803,502,403,255,
0,580,792,497,399,254,
0,573,780,492,396,252,
0,566,896,561,436,249,
0,559,888,554,432,247,
0,551,872,547,428,244,
0,622,857,541,423,243,
0,614,844,535,419,241,
0,606,827,529,414,240,
0,598,814,524,411,238,
0,591,801,518,407,236,
0,583,790,512,403,233,
0,577,778,507,448,231,
0,569,898,558,444,230,
0,562,883,551,439,228,
0,556,868,545,434,247,
0,615,854,539,430,244,
0,607,839,532,425,242,
0,600,824,527,420,240,
0,591,811,520,415,238,
0,585,799,515,412,236,
0,578,786,510,408,233,
0,572,834,504,449,231,
0,563,897,556,444,230,
0,556,880,549,440,228,
0,608,865,543,435,246,
0,617,851,536,431,243,
0,609,836,531,427,243,
0,601,820,524,422,240,
0,594,807,519,417,239,
0,588,796,513,414,236,
0,580,783,508,409,235,
0,574,873,535,449,231,
0,566,885,568,444,230,
0,559,869,562,440,239,
0,627,855,556,435,236,
0,619,840,550,432,235,
0,610,828,543,427,232,
0,603,811,537,422,231,
0,595,799,531,418,228,
0,588,787,525,414,227,
0,582,775,519,410,225,
0,575,892,560,444,224,
0,567,887,551,440,221,
0,560,871,544,435,233,
0,620,856,538,431,231,
0,611,842,532,427,231,
0,604,829,526,423,230,
0,596,812,519,417,227,
0,590,799,515,413,225,
0,582,788,509,409,224,
0,575,776,504,412,222,
0,569,895,555,451,220,
0,560,882,546,446,217,
0,555,867,540,441,232,
0,607,852,534,436,231,
0,600,839,527,432,228,
0,591,825,521,428,227,
0,583,809,515,423,224,
0,577,797,511,419,223,
0,571,785,505,415,221,
0,564,775,500,451,219,
0,558,893,577,446,217,
0,550,876,568,441,215,
0,547,862,561,436,235,
0,600,847,555,432,232,
0,592,833,548,428,242,
0,585,820,543,423,240,
0,578,804,536,419,238,
0,572,792,531,415,236,
0,564,781,525,411,233,
0,558,831,519,443,231,
0,550,888,591,438,230,
0,543,871,582,433,236,
0,595,857,575,428,263,
0,604,844,568,423,262,
0,595,830,561,420,259,
0,588,816,556,416,257,
0,582,801,550,411,255,
0,575,789,543,408,252,
0,568,777,537,403,251,
0,562,871,538,461,248,
0,553,883,560,455,246,
0,547,867,551,451,269,
0,616,854,545,447,265,
0,608,839,539,441,263,
0,600,826,533,438,261,
0,593,813,527,433,259,
0,585,798,521,428,255,
0,579,785,516,423,254,
0,572,774,511,420,252,
0,566,891,558,441,249,
0,558,886,550,436,248,
0,551,869,542,432,247,
0,606,855,536,428,244,
0,598,841,529,423,248,
0,591,828,524,419,246,
0,583,812,518,415,243,
0,575,799,512,411,241,
0,569,787,507,407,240,
0,563,775,502,407,238,
0,557,896,587,438,236,
0,548,889,579,433,233,
0,543,872,570,428,238,
0,608,857,563,423,236,
0,600,844,557,420,233,
0,591,831,551,415,231,
0,584,817,543,412,230,
0,577,802,539,408,228,
0,571,790,532,403,226,
0,564,782,527,440,224,
0,558,899,540,434,223,
0,550,886,534,430,221,
0,545,871,526,425,238,
0,592,856,520,422,235,
0,585,842,515,417,235,
0,578,828,510,413,232,
0,571,812,504,409,231,
0,564,799,499,404,229,
0,558,788,494,400,227,
0,551,839,489,440,225,
0,545,897,563,435,224,
0,537,881,556,431,222,
0,536,866,547,427,220,
0,529,851,542,423,231,
0,524,838,536,419,238,
0,519,824,529,415,236,
0,513,808,524,411,233,
0,508,796,518,406,231,
0,503,784,512,402,230,
0,498,881,518,441,227,
0,493,898,557,436,225,
0,487,880,551,432,224,
0,491,865,542,428,221,
0,486,851,536,423,220,
0,480,837,530,419,217,
0,476,824,524,415,216,
0,472,807,519,411,214,
0,467,796,513,406,212,
0,462,783,508,402,211,
0,459,892,579,446,209,
0,454,896,571,440,207,
0,448,878,562,436,207,
0,483,863,556,432,205,
0,476,847,550,428,205,
0,472,835,543,423,204,
0,466,822,537,419,201,
0,461,806,531,415,199,
0,455,793,526,411,199,
0,451,782,519,415,198,
0,448,897,555,447,196,
0,443,888,547,441,195,
0,438,871,540,438,193,
0,467,857,534,433,192,
0,462,844,527,428,218,
0,456,830,521,423,216,
0,452,817,516,420,214,
0,448,801,510,416,211,
0,443,790,505,412,210,
0,439,784,500,455,208,
0,434,899,571,449,207,
0,430,891,563,444,205,
0,442,875,556,440,204,
0,492,860,549,435,201,
0,486,846,543,432,221,
0,480,831,537,427,219,
0,475,819,531,423,217,
0,470,803,525,419,216,
0,465,792,519,414,214,
0,460,838,515,452,211,
0,455,897,552,447,209,
0,451,880,546,442,207,
0,513,865,538,438,217,
0,515,851,531,433,216,
0,510,837,526,428,214,
0,504,824,519,424,211,
0,498,811,515,420,210,
0,492,796,509,416,207,
0,487,783,504,412,207,
0,482,878,545,446,204,
0,477,892,585,440,203,
0,472,875,577,436,201,
0,530,860,569,432,208,
0,524,846,563,428,221,
0,517,831,556,423,219,
0,511,819,550,419,216,
0,505,807,543,415,215,
0,499,792,537,411,214,
0,495,780,532,407,211,
0,489,888,568,440,209,
0,484,876,561,435,207,
0,479,860,555,431,206,
0,535,847,547,426,204,
0,527,833,541,422,249,
0,521,819,535,417,246,
0,515,807,528,414,243,
0,510,795,523,409,241,
0,504,780,518,405,240,
0,499,769,512,408,238,
0,494,892,571,435,236,
0,488,877,563,431,233,
0,483,862,556,427,231,
0,516,847,548,422,230,
0,511,834,542,418,227,
0,504,821,536,414,225,
0,499,807,530,409,224,
0,494,796,524,406,222,
0,487,781,519,401,220,
0,483,777,513,440,219,
0,478,894,588,435,216,
0,473,877,580,431,215,
0,468,864,574,427,220,
0,511,848,566,422,216,
0,505,835,559,417,216,
0,499,822,552,414,215,
0,494,809,547,409,212,
0,488,796,540,406,211,
0,483,782,535,401,209,
0,479,844,529,435,207,
0,473,896,575,431,206,
0,468,878,569,426,204,
0,465,863,563,422,203,
0,524,848,555,418,216,
0,517,835,548,414,231,
0,511,822,542,409,228,
0,505,809,536,406,225,
0,499,797,530,401,224,
0,495,782,524,398,222,
0,489,879,538,437,220,
0,483,894,568,432,218,
0,479,876,561,428,216,
0,508,862,555,423,223,
0,506,847,547,419,230,
0,500,833,540,415,227,
0,495,820,535,411,225,
0,489,807,528,408,223,
0,484,796,523,403,221,
0,479,781,518,399,220,
0,475,892,563,441,217,
0,469,891,556,436,216,
0,463,873,550,432,214,
0,521,859,543,428,212,
0,513,845,536,423,217,
0,508,831,529,419,216,
0,502,818,524,415,214,
0,496,806,518,412,212,
0,491,793,512,408,210,
0,486,779,508,412,209,
0,480,896,546,448,207,
0,475,887,539,443,205,
0,470,871,533,438,227,
0,543,856,527,433,224,
0,535,842,519,429,222,
0,528,828,513,424,220,
0,523,816,508,420,218,
0,516,803,504,416,216,
0,511,792,497,413,215,
0,505,786,493,451,213,
0,500,899,558,445,211,
0,495,888,551,440,209,
0,489,871,544,436,209,
0,499,856,538,432,207,
0,492,843,531,427,215,
0,487,829,525,423,212,
0,482,816,519,419,211,
0,477,803,513,415,209,
0,472,792,508,411,207,
0,467,842,504,447,206,
0,463,896,575,441,204,
0,458,878,568,436,202,
0,454,864,561,432,200,
0,483,849,554,428,199,
0,478,835,546,423,206,
0,472,822,540,419,204,
0,467,809,534,415,201,
0,462,798,528,412,199,
0,457,785,523,408,199,
0,452,881,539,440,198,
0,448,896,571,434,195,
0,444,878,564,430,204,
0,499,863,558,425,233,
0,504,848,551,422,231,
0,499,835,543,417,229,
0,493,822,537,413,227,
0,487,809,531,409,225,
0,483,797,526,406,223,
0,477,785,519,401,221,
0,472,892,545,443,220,
0,467,892,539,438,217,
0,462,875,532,434,217,
0,537,860,526,430,216,
0,527,846,520,425,214,
0,521,832,513,421,211,
0,516,819,508,417,210,
0,510,807,503,413,208,
0,504,795,497,409,207,
0,499,783,492,406,205,
0,494,897,575,441,204,
0,487,891,568,436,201,
0,483,874,561,432,230,
0,540,859,553,428,227,
0,531,845,547,423,225,
0,525,831,540,419,223,
0,519,819,534,415,221,
0,513,806,527,412,219,
0,508,794,523,408,217,
0,502,782,517,404,216,
0,496,896,552,438,214,
0,492,880,545,432,211,
0,487,865,540,428,238,
0,543,851,534,423,236,
0,536,838,527,419,236,
0,529,824,519,415,233,
0,523,811,515,412,231,
0,516,799,509,408,230,
0,511,787,504,404,227,
0,505,846,499,444,226,
0,500,900,563,438,224,
0,495,886,556,433,222,
0,494,870,550,429,220,
0,550,856,543,424,219,
0,542,841,537,420,242,
0,536,828,529,416,239,
0,529,815,524,412,237,
0,523,803,518,408,235,
0,518,791,512,404,232,
0,512,883,525,448,231,
0,506,900,557,441,229,
0,500,883,550,437,227,
0,547,867,543,432,234,
0,543,852,537,428,233,
0,536,839,531,423,241,
0,529,825,524,419,239,
0,524,813,519,415,237,
0,518,801,513,412,235,
0,512,789,508,408,232,
0,507,892,561,440,231,
0,500,884,553,434,228,
0,496,868,547,430,227,
0,569,854,541,425,225,
0,561,840,535,422,226,
0,552,828,529,417,224,
0,546,814,521,414,222,
0,540,802,516,409,220,
0,534,790,511,406,219,
0,527,779,505,401,216,
0,523,896,563,451,215,
0,516,887,556,445,213,
0,511,871,550,440,236,
0,551,856,543,436,235,
0,545,842,536,432,231,
0,537,828,529,428,230,
0,531,816,524,423,227,
0,525,803,518,419,225,
0,519,792,512,415,224,
0,513,780,507,412,222,
0,508,899,556,441,220,
0,503,890,550,436,218,
0,497,873,543,432,241,
0,567,858,536,428,239,
0,560,845,531,423,259,
0,551,831,523,419,255,
0,544,818,518,415,254,
0,539,806,512,411,252,
0,532,793,507,408,249,
0,526,783,502,444,248,
0,520,903,566,440,245,
0,515,896,559,433,243,
0,517,877,551,429,241,
0,583,862,546,425,239,
0,575,847,540,420,239,
0,568,834,532,417,237,
0,560,821,526,412,235,
0,554,808,520,408,233,
0,547,796,515,405,231,
0,542,848,536,440,230,
0,536,905,563,435,227,
0,529,903,556,429,225,
0,568,881,550,424,239,
0,562,866,543,420,237,
0,556,852,537,416,239,
0,547,839,529,412,236,
0,540,825,524,408,233,
0,535,812,519,404,231,
0,529,799,513,401,230,
0,523,883,584,439,228,
0,517,901,578,433,226,
0,512,882,571,428,224,
0,556,867,564,423,222,
0,550,853,558,420,220,
0,543,839,551,415,219,
0,536,825,543,412,217,
0,529,813,537,408,215,
0,523,801,532,404,213,
0,517,789,527,400,211,
0,512,892,565,444,209,
0,506,882,558,438,208,
0,500,867,551,433,212,
0,564,852,545,429,210,
0,556,839,539,424,248,
0,550,825,532,420,244,
0,542,812,526,416,242,
0,536,799,519,412,240,
0,529,788,514,408,238,
0,524,776,509,405,236,
0,518,882,547,436,233,
0,512,862,541,431,231,
0,507,848,535,427,254,
0,536,834,528,422,252,
0,530,820,523,418,249,
0,524,807,517,414,247,
0,516,796,510,410,244,
0,511,783,504,406,242,
0,505,772,499,403,240,
0,499,761,495,448,238,
0,495,891,551,442,236,
0,489,870,543,436,233,
0,493,856,538,432,235,
0,569,841,531,428,232,
0,562,828,526,423,231,
0,556,815,519,419,228,
0,547,803,513,415,227,
0,540,791,508,412,225,
0,535,779,503,408,223,
0,528,820,531,442,221,
0,523,892,560,436,219,
0,517,871,552,432,217,
0,573,856,547,427,217,
0,588,842,540,423,225,
0,580,828,534,419,246,
0,574,816,527,415,243,
0,565,803,520,411,241,
0,559,792,515,407,239,
0,551,780,510,403,237,
0,547,874,568,445,235,
0,540,896,560,440,233,
0,534,873,553,435,262,
0,611,859,547,430,258,
0,601,845,541,426,255,
0,593,831,535,422,254,
0,587,818,529,417,251,
0,577,806,521,414,248,
0,571,793,516,409,246,
0,564,782,511,406,244,
0,559,891,562,439,241,
0,551,888,555,434,240,
0,545,868,548,429,241,
0,624,854,542,423,239,
0,615,839,536,420,249,
0,607,826,529,415,248,
0,600,814,524,412,246,
0,591,801,517,408,243,
0,583,790,511,404,240,
0,576,777,506,403,239,
0,570,895,553,448,236,
0,563,883,547,443,235,
0,557,864,540,437,232,
0,555,850,535,432,231,
0,549,836,528,428,229,
0,543,823,523,423,227,
0,536,811,517,419,225,
0,529,798,510,415,223,
0,524,786,504,412,221,
0,519,775,499,451,220,
0,513,863,568,447,217,
0,508,848,560,441,216,
0,503,831,554,436,238,
0,498,817,547,432,236,
0,493,804,542,428,233,
0,488,792,536,423,231,
0,483,781,529,419,230,
0,478,769,522,415,227,
0,473,759,516,412,225,
0,468,811,536,450,223,
0,463,884,556,444,222,
0,460,868,550,440,220,
0,464,851,543,434,217,
0,459,836,536,430,216,
0,455,824,531,425,230,
0,450,811,525,422,227,
0,445,798,519,417,225,
0,440,786,512,414,223,
0,436,775,507,409,221,
0,433,872,572,450,219,
0,429,888,564,445,217,
0,425,871,558,440,217,
0,449,853,551,435,215,
0,444,839,545,431,214,
0,440,825,539,427,211,
0,435,812,532,423,210,
0,429,800,527,419,208,
0,424,788,519,415,207,
0,420,777,515,411,206,
0,417,889,559,439,204,
0,413,882,551,434,202,
0,409,867,545,430,200,
0,476,849,539,423,199,
0,470,835,533,420,199,
0,465,822,527,415,198,
0,460,809,521,412,196,
0,454,798,515,408,195,
0,449,785,509,404,193,
0,444,774,504,401,192,
0,440,897,534,435,190,
0,435,898,527,431,188,
0,431,880,521,427,215,
0,515,860,515,422,212,
0,508,847,510,417,211,
0,503,833,504,413,209,
0,497,820,499,409,207,
0,490,807,494,406,205,
0,485,795,487,401,203,
0,480,792,483,443,201,
0,475,900,553,438,199,
0,470,902,547,433,198,
0,480,879,540,429,197,
0,550,864,534,423,195,
0,543,849,528,419,230,
0,536,835,523,415,227,
0,530,823,516,412,225,
0,523,810,511,408,224,
0,516,798,504,403,221,
0,512,855,540,443,219,
0,505,903,575,437,217,
0,499,899,568,432,227,
0,564,876,562,428,258,
0,593,860,556,423,255,
0,586,847,549,419,253,
0,579,833,543,415,251,
0,572,820,537,411,249,
0,564,807,531,407,247,
0,558,796,524,403,244,
0,551,881,559,437,242,
0,544,902,551,432,240,
0,539,885,545,428,251,
0,611,865,539,423,248,
0,602,851,532,418,246,
0,595,838,527,414,243,
0,588,824,521,410,241,
0,580,812,515,406,240,
0,572,799,510,402,238,
0,565,787,504,399,236,
0,559,892,556,438,233,
0,551,891,547,432,231,
0,546,874,542,428,231,
0,598,856,536,423,230,
0,590,841,529,419,228,
0,583,828,524,415,226,
0,575,815,518,411,224,
0,569,803,512,407,223,
0,561,791,505,403,221,
0,555,779,500,405,219,
0,548,839,558,444,217,
0,542,825,551,440,216,
0,536,812,545,435,247,
0,571,797,538,430,244,
0,563,785,531,425,242,
0,557,773,526,420,240,
0,551,761,520,416,238,
0,543,751,515,412,236,
0,536,741,508,408,234,
0,530,739,504,447,231,
0,524,881,560,441,230,
0,519,865,553,436,227,
0,515,851,547,432,262,
0,561,834,540,428,259,
0,555,820,535,423,255,
0,548,807,528,419,254,
0,542,796,523,414,252,
0,536,783,517,411,249,
0,527,772,510,407,248,
0,523,825,542,436,245,
0,516,893,564,432,243,
0,511,876,558,428,245,
0,564,862,551,423,255,
0,560,844,545,419,254,
0,553,830,539,414,252,
0,547,817,533,409,249,
0,540,804,527,406,248,
0,535,792,521,402,245,
0,527,780,514,399,243,
0,521,880,563,435,240,
0,515,899,556,430,239,
0,510,881,550,426,236,
0,558,867,543,422,235,
0,551,848,536,416,233,
0,543,835,531,412,231,
0,537,822,525,408,229,
0,531,809,519,404,227,
0,526,797,513,401,225,
0,518,785,507,398,224,
0,513,893,551,440,222,
0,507,900,543,435,220,
0,502,882,537,431,218,
0,566,867,531,427,216,
0,559,849,526,421,229,
0,551,835,519,417,227,
0,545,823,514,413,225,
0,539,809,508,408,223,
0,532,798,503,405,221,
0,525,785,496,404,220,
0,519,899,555,452,217,
0,513,904,547,448,216,
0,508,888,542,444,243,
0,571,871,536,439,241,
0,563,853,529,433,239,
0,557,839,523,429,237,
0,551,826,518,424,235,
0,543,814,512,421,232,
0,537,801,507,417,231,
0,530,790,500,449,228,
0,524,894,551,444,227,
0,519,877,545,440,225,
0,523,863,540,435,264,
0,598,847,533,431,262,
0,590,831,527,425,259,
0,583,818,521,421,257,
0,575,806,515,417,255,
0,568,793,510,413,253,
0,562,782,504,409,251,
0,554,836,536,448,248,
0,547,899,556,441,246,
0,542,883,550,437,244,
0,598,868,543,432,249,
0,632,854,537,428,248,
0,623,836,531,423,248,
0,615,824,525,419,246,
0,608,811,519,415,243,
0,600,798,514,411,242,
0,593,786,508,408,240,
0,585,879,567,440,238,
0,577,900,559,435,236,
0,572,883,551,430,233,
0,655,868,545,425,231,
0,646,854,539,422,233,
0,637,836,533,416,231,
0,629,824,527,412,229,
0,621,811,521,408,227,
0,614,799,515,404,225,
0,606,787,510,401,224,
0,598,891,571,438,222,
0,590,891,563,433,220,
0,583,873,558,429,260,
0,673,859,551,424,257,
0,664,845,543,420,255,
0,655,828,538,415,253,
0,646,815,532,412,251,
0,638,803,527,408,248,
0,630,791,520,403,247,
0,622,779,515,406,244,
0,614,897,562,436,241,
0,606,892,555,432,240,
0,600,875,548,428,266,
0,671,860,542,423,263,
0,663,846,536,419,261,
0,654,829,530,414,259,
0,646,816,524,409,255,
0,637,804,519,406,255,
0,630,792,512,402,252,
0,622,783,508,445,250,
0,612,900,551,440,248,
0,605,891,545,435,245,
0,599,875,539,431,276,
0,656,859,532,427,273,
0,647,845,527,423,271,
0,639,828,520,417,268,
0,632,815,515,414,266,
0,623,803,510,409,263,
0,615,791,504,406,262,
0,607,841,499,451,259,
0,600,901,540,446,256,
0,592,889,534,441,255,
0,639,873,527,436,252,
0,648,858,521,432,251,
0,639,844,515,428,248,
0,632,828,510,423,246,
0,624,815,504,419,244,
0,616,802,499,415,242,
0,609,791,494,411,240,
0,600,880,515,441,239,
0,593,902,542,436,236,
0,586,886,536,432,247,
0,652,870,529,428,243,
0,643,856,524,423,251,
0,635,842,518,419,248,
0,627,825,512,415,246,
0,619,812,507,411,243,
0,611,799,501,407,241,
0,604,788,496,403,239,
0,595,893,562,443,237,
0,588,898,552,439,235,
0,582,879,546,434,241,
0,637,864,540,430,239,
0,628,850,534,425,259,
0,620,836,527,421,257,
0,612,820,521,415,255,
0,605,807,516,412,252,
0,598,796,511,408,249,
0,591,783,505,408,248,
0,582,896,556,436,246,
0,575,889,547,432,243,
0,569,872,540,428,241,
0,625,857,534,423,239,
0,616,844,527,419,238,
0,609,831,522,415,236,
0,601,814,516,409,233,
0,594,801,511,406,231,
0,588,790,505,402,230,
0,580,779,500,448,228,
0,572,896,547,443,226,
0,566,881,539,438,224,
0,563,866,532,433,234,
0,631,851,526,429,231,
0,623,838,520,425,251,
0,615,822,515,421,248,
0,607,809,509,415,246,
0,600,796,504,412,243,
0,592,784,499,408,241,
0,585,833,494,436,240,
0,577,897,563,432,237,
0,570,880,555,428,235,
0,621,865,547,423,236,
0,630,851,542,419,233,
0,621,837,536,415,234,
0,614,821,529,411,231,
0,606,807,524,406,230,
0,599,796,518,402,228,
0,591,783,512,399,227,
0,584,876,536,440,224,
0,575,892,556,435,223,
0,569,874,548,431,243,
0,633,860,542,427,241,
0,624,846,536,423,239,
0,615,831,529,419,236,
0,608,816,524,414,235,
0,601,803,518,409,232,
0,593,792,512,406,231,
0,587,780,507,401,228,
0,580,891,569,437,227,
0,572,887,561,432,225,
0,565,870,553,428,247,
0,631,856,547,423,243,
0,622,842,540,419,268,
0,614,828,535,415,265,
0,607,812,528,411,263,
0,599,799,523,406,260,
0,591,787,517,402,258,
0,584,776,512,402,255,
0,579,897,564,436,254,
0,569,896,556,432,252,
0,563,878,550,428,258,
0,627,863,543,423,255,
0,620,849,536,419,255,
0,611,835,531,415,254,
0,604,819,524,411,252,
0,596,807,519,406,249,
0,590,794,513,402,248,
0,583,783,508,438,246,
0,575,899,552,432,243,
0,568,887,543,428,241,
0,561,871,537,423,257,
0,611,856,531,419,255,
0,603,842,526,415,253,
0,595,828,519,411,251,
0,588,813,514,408,248,
0,581,800,508,403,247,
0,575,788,504,399,244,
0,568,833,499,444,243,
0,561,895,564,439,240,
0,553,878,556,434,238,
0,607,863,549,430,236,
0,620,847,543,425,235,
0,612,835,536,422,235,
0,604,822,531,417,232,
0,597,806,525,413,231,
0,590,793,519,408,229,
0,583,782,513,404,227,
0,575,876,526,445,225,
0,569,892,568,440,224,
0,561,875,560,435,222,
0,636,860,553,431,243,
0,626,846,547,427,240,
0,618,832,541,423,238,
0,611,819,535,419,236,
0,603,803,529,414,234,
0,595,792,523,409,231,
0,588,780,518,406,230,
0,583,892,577,440,228,
0,575,887,569,435,226,
0,567,871,561,430,224,
0,620,856,555,425,222,
0,611,842,548,422,241,
0,604,828,542,417,239,
0,596,816,536,414,236,
0,589,800,529,408,235,
0,582,788,524,404,231,
0,575,777,519,408,231,
0,569,882,569,440,228,
0,562,866,563,435,227,
0,555,851,555,431,246,
0,615,838,548,425,241,
0,607,824,542,422,240,
0,600,812,536,417,238,
0,591,799,529,414,236,
0,585,783,524,408,233,
0,578,772,518,405,231,
0,571,763,513,440,230,
0,565,890,542,435,227,
0,559,873,536,430,226,
0,552,860,527,425,259,
0,615,845,521,422,257,
0,608,831,515,417,255,
0,600,818,510,413,252,
0,593,806,504,409,250,
0,586,791,499,404,248,
0,579,779,495,400,246,
0,572,858,490,437,243,
0,566,902,569,432,241,
0,560,892,563,428,240,
0,612,875,555,423,259,
0,615,859,547,419,257,
0,607,845,541,415,255,
0,600,831,536,411,252,
0,591,819,529,408,251,
0,585,803,524,402,248,
0,578,792,518,399,247,
0,572,879,535,440,244,
0,565,896,560,435,242,
0,559,878,553,431,240,
0,620,863,545,426,238,
0,611,848,539,422,236,
0,604,835,533,417,235,
0,596,822,527,414,232,
0,589,809,521,409,231,
0,582,793,515,405,229,
0,575,782,510,401,227,
0,569,840,560,436,225,
0,562,825,551,432,224,
0,556,812,545,427,255,
0,624,799,537,423,251,
0,615,787,531,419,248,
0,608,775,525,415,247,
0,600,764,519,411,244,
0,593,753,513,407,242,
0,585,740,508,401,240,
0,579,731,504,404,238,
0,572,871,585,438,236,
0,566,856,577,433,234,
0,559,842,571,429,250,
0,608,828,562,423,247,
0,600,815,556,420,245,
0,593,803,550,415,243,
0,585,790,543,412,240,
0,579,779,537,408,239,
0,572,764,531,403,236,
0,566,754,526,443,235,
0,559,865,571,437,232,
0,552,850,563,432,231,
0,547,837,558,428,259,
0,614,823,549,423,255,
0,605,810,543,420,259,
0,598,798,536,415,255,
0,591,785,531,412,254,
0,583,774,525,408,252,
0,575,760,519,403,249,
0,569,763,515,431,248,
0,563,788,571,425,245,
0,556,775,563,421,243,
0,615,764,558,417,241,
0,635,752,549,413,239,
0,627,742,543,408,238,
0,619,732,537,404,236,
0,611,722,531,401,233,
0,604,712,525,398,231,
0,596,702,519,392,230,
0,590,828,536,439,227,
0,583,849,545,433,226,
0,575,835,539,429,224,
0,636,822,533,425,224,
0,627,808,525,420,231,
0,619,796,519,416,230,
0,611,783,514,412,228,
0,604,772,508,408,226,
0,596,761,504,404,224,
0,590,748,498,399,222,
0,583,888,563,433,220,
0,575,877,555,429,219,
0,569,862,547,424,231,
0,633,847,542,420,229,
0,624,833,534,415,227,
0,616,820,527,412,224,
0,609,808,522,408,223,
0,601,796,516,404,220,
0,594,783,511,400,219,
0,588,770,505,407,217,
0,580,899,560,445,216,
0,574,906,553,440,214,
0,567,894,547,436,247,
0,627,875,540,432,244,
0,620,861,533,427,241,
0,612,847,527,423,239,
0,604,833,521,419,237,
0,597,820,515,415,235,
0,590,807,510,411,233,
0,583,793,504,455,231,
0,575,900,559,448,229,
0,569,890,551,444,227,
0,563,873,545,440,252,
0,624,859,539,435,249,
0,615,845,531,430,246,
0,608,831,525,426,243,
0,600,819,519,422,241,
0,592,806,513,418,240,
0,585,791,508,414,238,
0,579,830,504,445,236,
0,572,888,541,440,233,
0,566,871,534,435,231,
0,559,856,528,431,247,
0,633,841,522,427,244,
0,625,828,515,423,241,
0,616,816,510,418,240,
0,609,803,504,414,238,
0,601,791,499,410,236,
0,594,776,494,407,233,
0,588,876,516,443,231,
0,580,892,552,438,230,
0,574,874,546,433,227,
0,608,859,540,430,261,
0,627,845,534,425,259,
0,620,831,526,421,255,
0,611,819,520,417,254,
0,604,806,515,413,252,
0,596,794,509,409,248,
0,590,780,504,405,247,
0,583,889,563,440,244,
0,575,881,556,435,243,
0,569,866,549,431,241,
0,647,851,543,426,239,
0,636,838,536,422,248,
0,628,824,529,417,244,
0,620,812,524,414,241,
0,612,799,518,410,240,
0,605,787,512,406,238,
0,598,773,507,402,236,
0,591,896,546,440,233,
0,583,889,539,435,231,
0,577,873,533,431,230,
0,649,858,527,427,228,
0,639,844,519,422,259,
0,630,831,513,418,255,
0,622,818,508,414,253,
0,615,805,503,409,251,
0,608,793,497,407,248,
0,600,788,493,403,247,
0,593,901,546,449,244,
0,585,904,540,445,242,
0,579,886,534,440,275,
0,664,870,527,436,271,
0,652,856,519,432,270,
0,643,841,514,428,267,
0,636,828,508,423,264,
0,627,815,504,419,262,
0,620,803,497,415,259,
0,612,856,493,453,258,
0,605,903,562,448,255,
0,598,901,555,444,253,
0,591,881,550,440,252,
0,671,865,542,435,249,
0,660,851,535,431,248,
0,652,838,529,426,245,
0,643,824,523,422,243,
0,636,812,518,418,241,
0,627,799,512,414,239,
0,620,881,527,444,237,
0,613,896,560,438,235,
0,606,879,553,433,233,
0,627,864,547,429,231,
0,639,849,540,423,230,
0,630,835,532,420,233,
0,622,822,527,415,231,
0,614,809,520,412,228,
0,607,798,515,408,227,
0,600,785,510,404,225,
0,592,894,534,443,224,
0,585,896,527,438,222,
0,579,878,521,433,249,
0,615,864,515,429,247,
0,607,849,510,424,244,
0,597,835,503,420,242,
0,590,823,497,416,240,
0,583,810,492,412,237,
0,575,798,487,408,236,
0,569,785,483,405,233,
0,563,899,561,440,231,
0,556,898,553,435,230,
0,551,879,547,432,230,
0,616,864,541,427,227,
0,608,849,536,423,229,
0,600,836,527,419,227,
0,591,823,521,415,224,
0,584,811,515,410,223,
0,577,798,511,407,221,
0,571,786,505,403,219,
0,564,900,574,440,217,
0,558,894,567,436,216,
0,551,876,560,432,216,
0,604,861,553,428,214,
0,595,847,547,423,214,
0,587,833,540,419,212,
0,579,820,534,415,210,
0,572,807,527,412,208,
0,566,796,521,408,207,
0,559,783,517,441,206,
0,553,902,538,435,204,
0,547,891,531,431,203,
0,541,874,526,427,233,
0,607,859,519,423,231,
0,600,845,514,418,236,
0,590,831,508,414,233,
0,583,819,502,410,231,
0,575,806,497,407,230,
0,568,794,492,402,227,
0,563,831,519,448,225,
0,556,899,547,440,224,
0,550,881,540,436,222,
0,588,867,534,432,243,
0,609,852,527,428,240,
0,601,838,522,423,239,
0,592,825,515,419,236,
0,585,812,510,415,233,
0,578,799,504,411,231,
0,572,788,499,408,230,
0,566,875,570,452,228,
0,558,896,562,447,226,
0,551,878,556,443,255,
0,590,863,549,438,252,
0,582,848,543,433,248,
0,575,835,536,429,247,
0,566,822,529,424,243,
0,560,809,524,420,241,
0,553,798,518,417,240,
0,547,785,512,413,238,
0,542,889,556,440,236,
0,536,881,548,435,233,
0,529,867,543,431,236,
0,590,851,536,426,233,
0,582,838,530,422,231,
0,575,824,524,418,230,
0,566,812,517,414,227,
0,560,799,511,410,225,
0,553,787,506,406,224,
0,547,775,501,403,222,
0,540,898,551,440,220,
0,535,902,543,434,219,
0,528,883,537,430,245,
0,603,867,531,425,243,
0,595,852,526,421,244,
0,588,839,519,417,242,
0,579,825,513,412,240,
0,572,813,507,408,238,
0,566,800,502,405,236,
0,559,789,497,441,233,
0,552,899,558,438,231,
0,546,887,551,432,230,
0,540,871,544,428,227,
0,619,856,537,423,226,
0,611,842,531,419,240,
0,601,828,526,415,239,
0,593,816,519,412,236,
0,587,803,513,408,233,
0,579,792,508,403,231,
0,573,839,521,448,230,
0,566,903,553,443,227,
0,560,896,547,436,226,
0,602,876,540,432,238,
0,617,862,534,428,235,
0,609,847,527,423,233,
0,600,834,523,419,231,
0,593,821,515,415,228,
0,585,808,510,412,227,
0,579,796,504,408,225,
0,572,878,534,435,223,
0,566,902,527,430,221,
0,559,882,521,424,236,
0,608,867,515,420,233,
0,600,853,510,415,231,
0,591,839,504,412,230,
0,583,826,499,408,228,
0,575,813,492,404,225,
0,569,801,487,400,224,
0,562,789,483,397,222,
0,556,891,542,430,220,
0,550,899,535,425,218,
0,543,877,528,420,243,
0,611,862,522,415,240,
0,604,847,516,412,238,
0,595,834,511,408,236,
0,587,821,505,403,234,
0,579,809,499,399,231,
0,573,796,494,396,230,
0,566,785,489,393,227,
0,560,896,583,441,225,
0,553,886,575,436,224,
0,547,867,569,432,265,
0,614,851,563,427,263,
0,606,838,556,423,259,
0,598,824,550,419,257,
0,589,812,543,415,255,
0,582,799,536,411,252,
0,575,787,529,407,250,
0,568,775,524,443,248,
0,562,899,549,440,246,
0,556,883,543,435,243,
0,550,868,536,429,249,
0,611,854,531,425,247,
0,603,839,524,420,244,
0,595,827,519,416,243,
0,586,813,513,412,240,
0,579,801,507,408,238,
0,572,789,502,405,236,
0,566,828,523,448,235,
0,559,899,551,441,231,
0,553,879,545,437,231,
0,587,864,539,432,254,
0,601,849,533,428,252,
0,594,836,527,423,251,
0,587,823,521,419,248,
0,578,810,515,415,246,
0,572,798,508,411,243,
0,564,786,504,408,241,
0,559,879,576,448,240,
0,551,903,568,444,238,
0,545,894,561,439,273,
0,604,875,555,433,270,
0,595,860,548,429,267,
0,588,847,543,424,264,
0,580,833,536,420,262,
0,572,820,531,416,260,
0,565,807,523,412,257,
0,559,796,518,408,255,
0,552,891,564,444,253,
0,546,892,558,440,251,
0,540,871,551,435,275,
0,614,856,544,429,271,
0,605,842,538,425,270,
0,598,828,532,421,267,
0,590,816,527,416,264,
0,581,803,519,413,263,
0,574,792,514,409,259,
0,568,780,508,406,257,
0,561,896,558,446,255,
0,555,896,551,441,253,
0,548,873,543,437,252,
0,611,859,537,431,249,
0,603,845,531,427,249,
0,595,831,526,423,248,
0,588,818,519,419,246,
0,579,806,513,415,243,
0,572,793,508,411,240,
0,566,782,504,448,239,
0,560,898,558,444,237,
0,552,885,551,440,235,
0,547,866,545,435,236,
0,606,851,539,429,233,
0,599,838,532,424,231,
0,591,824,527,420,231,
0,583,812,521,417,228,
0,575,799,514,413,227,
0,568,787,508,409,224,
0,562,823,537,443,223,
0,555,892,560,438,220,
0,549,875,552,432,219,
0,579,856,546,428,217,
0,591,843,540,423,220,
0,584,829,534,419,244,
0,577,816,527,415,242,
0,571,803,522,411,240,
0,562,792,515,408,238,
0,556,780,510,403,236,
0,550,871,573,439,233,
0,543,896,566,433,231,
0,537,879,559,429,235,
0,592,860,552,423,231,
0,584,846,546,419,233,
0,577,831,540,415,231,
0,571,819,534,412,228,
0,563,807,527,408,227,
0,556,795,521,403,225,
0,549,783,515,399,223,
0,543,891,579,443,221,
0,536,896,572,438,219,
0,531,876,566,433,217,
0,610,858,559,428,216,
0,601,844,552,423,238,
0,595,831,546,419,236,
0,587,817,540,415,233,
0,580,806,534,411,231,
0,572,793,527,408,230,
0,564,782,521,403,227,
0,558,896,604,436,225,
0,551,888,596,432,223,
0,545,871,590,427,233,
0,610,853,582,422,231,
0,602,839,575,417,230,
0,595,826,568,414,227,
0,588,813,563,409,226,
0,580,800,556,406,224,
0,572,789,548,402,222,
0,566,777,543,443,220,
0,559,898,560,439,218,
0,552,886,552,433,216,
0,547,870,547,430,241,
0,605,852,540,423,239,
0,597,838,535,419,237,
0,590,824,529,415,235,
0,583,812,523,412,232,
0,575,799,518,408,231,
0,568,787,511,403,228,
0,561,833,527,448,227,
0,554,903,561,442,225,
0,548,902,555,438,223,
0,575,882,548,433,229,
0,587,863,542,428,227,
0,579,848,536,423,225,
0,572,835,530,419,223,
0,566,822,524,415,221,
0,559,809,519,412,220,
0,551,797,512,408,217,
0,545,877,565,446,216,
0,539,896,557,440,214,
0,532,879,551,436,212,
0,594,864,544,432,211,
0,585,846,537,427,244,
0,578,831,532,423,241,
0,571,819,526,418,239,
0,564,807,520,414,236,
0,558,795,515,410,235,
0,550,783,508,407,231,
0,543,892,543,435,230,
0,537,903,537,430,228,
0,531,886,531,425,228,
0,600,871,524,422,225,
0,591,852,519,415,240,
0,583,839,513,412,238,
0,577,825,508,408,236,
0,570,812,503,404,233,
0,563,800,497,400,231,
0,556,788,491,398,230,
0,549,896,563,441,227,
0,543,886,556,436,225,
0,537,870,550,432,240,
0,604,856,543,428,239,
0,595,838,536,423,257,
0,588,824,531,418,254,
0,581,812,524,414,252,
0,574,799,519,411,249,
0,568,787,513,407,248,
0,560,776,507,444,244,
0,552,898,558,440,243,
0,547,886,551,435,240,
0,540,871,543,431,241,
0,601,856,538,425,239,
0,594,839,532,421,238,
0,587,825,526,416,236,
0,579,812,519,413,233,
0,573,799,515,408,231,
0,564,787,509,406,230,
0,558,822,524,442,227,
0,551,899,561,436,225,
0,545,883,554,432,224,
0,582,868,547,428,225,
0,600,854,541,423,223,
0,592,836,536,418,226,
0,585,823,529,414,224,
0,578,810,524,410,223,
0,572,798,518,407,220,
0,563,786,512,403,219,
0,557,868,555,440,216,
0,550,899,547,435,215,
0,543,881,541,431,221,
0,617,867,535,427,219,
0,609,851,528,423,241,
0,601,835,523,417,239,
0,593,822,517,414,237,
0,587,808,511,409,235,
0,579,796,505,406,232,
0,571,785,500,401,231,
0,565,893,568,440,228,
0,558,906,561,435,227,
0,551,907,555,430,243,
0,620,887,547,425,240,
0,611,871,542,422,238,
0,604,852,536,416,236,
0,595,839,529,412,233,
0,589,826,524,408,231,
0,582,813,518,404,230,
0,573,801,512,401,227,
0,567,899,573,441,225,
0,560,903,566,436,224,
0,553,884,560,432,229,
0,617,868,552,428,227,
0,609,855,547,423,225,
0,601,837,540,418,223,
0,595,824,535,414,221,
0,587,811,528,410,220,
0,580,799,523,406,217,
0,572,787,518,440,216,
0,566,899,568,435,214,
0,559,892,560,431,212,
0,552,875,554,427,243,
0,609,860,547,423,240,
0,601,843,541,419,248,
0,593,829,536,413,246,
0,587,816,529,409,243,
0,579,803,524,406,241,
0,572,792,518,401,239,
0,564,816,513,439,237,
0,558,886,560,433,235,
0,551,870,552,428,232,
0,587,856,547,423,254,
0,600,841,540,420,252,
0,593,824,534,415,249,
0,585,812,527,411,248,
0,579,799,523,408,245,
0,572,787,516,403,243,
0,564,775,511,399,241,
0,557,863,515,440,239,
0,551,881,560,435,236,
0,544,865,553,431,273,
0,608,851,547,426,270,
0,599,838,540,422,268,
0,591,820,535,417,265,
0,583,807,528,412,263,
0,577,796,523,408,260,
0,570,783,517,404,259,
0,563,772,512,401,255,
0,556,887,575,444,254,
0,548,876,568,439,252,
0,543,862,560,434,254,
0,608,847,553,430,252,
0,600,833,547,425,249,
0,592,817,542,421,248,
0,585,805,536,415,246,
0,578,792,529,412,243,
0,572,781,524,408,241,
0,564,769,518,406,240,
0,557,898,551,440,238,
0,551,905,544,435,235,
0,543,892,539,431,234,
0,606,875,531,427,231,
0,599,860,526,423,232,
0,591,843,519,418,231,
0,583,829,515,414,229,
0,575,816,509,409,227,
0,569,804,504,406,225,
0,563,792,499,444,224,
0,555,900,560,440,222,
0,548,892,552,435,220,
0,543,875,546,431,224,
0,608,860,540,427,222,
0,600,846,534,423,220,
0,593,829,527,419,217,
0,585,816,521,414,216,
0,579,803,516,409,215,
0,572,792,511,406,213,
0,566,816,505,440,211,
0,557,886,558,434,209,
0,551,870,551,430,208,
0,585,856,543,425,248,
0,601,841,537,421,244,
0,594,828,531,417,243,
0,587,812,527,413,240,
0,579,799,520,408,238,
0,572,787,515,403,236,
0,566,775,509,399,234,
0,560,870,515,455,231,
0,551,890,585,449,230,
0,545,872,578,444,230,
0,591,859,572,440,227,
0,583,844,564,435,227,
0,575,831,559,432,224,
0,569,815,551,426,223,
0,563,801,545,422,221,
0,556,790,540,418,219,
0,550,778,534,414,217,
0,543,891,562,443,216,
0,536,894,554,439,214,
0,530,876,547,434,243,
0,607,862,542,430,240,
0,599,847,536,425,240,
0,591,834,529,421,238,
0,583,818,524,415,236,
0,577,805,518,412,233,
0,570,793,512,408,231,
0,563,782,508,404,230,
0,558,896,571,435,228,
0,548,889,562,431,226,
0,543,872,556,427,227,
0,627,858,548,422,225,
0,619,844,543,418,235,
0,611,830,536,414,231,
0,604,815,531,408,230,
0,596,802,524,405,228,
0,589,790,519,401,227,
0,582,778,513,438,224,
0,575,897,562,436,223,
0,567,883,553,432,220,
0,560,867,547,428,229,
0,651,852,540,423,227,
0,643,839,535,419,232,
0,634,825,528,415,231,
0,626,809,523,409,228,
0,619,798,517,406,227,
0,611,785,511,402,224,
0,604,830,507,447,223,
0,596,899,547,441,221,
0,588,882,538,436,219,
0,615,867,532,432,227,
0,659,852,526,428,226,
0,649,839,519,423,239,
0,641,825,514,419,237,
0,633,809,509,415,235,
0,625,798,504,411,233,
0,617,785,498,407,231,
0,611,881,508,447,229,
0,603,905,551,441,227,
0,594,908,542,437,263,
0,680,897,536,432,271,
0,670,876,529,428,270,
0,660,862,524,423,267,
0,652,847,518,419,264,
0,643,831,512,415,263,
0,636,818,507,411,260,
0,627,806,502,408,258,
0,620,894,565,425,255,
0,613,905,560,420,254,
0,604,898,552,416,283,
0,682,878,546,412,280,
0,671,864,540,408,277,
0,664,849,534,403,275,
0,655,836,527,400,272,
0,646,819,521,396,270,
0,638,807,516,391,268,
0,631,795,511,390,265,
0,623,898,572,440,263,
0,615,900,564,435,260,
0,607,881,556,431,258,
0,673,866,550,425,255,
0,664,851,543,422,255,
0,655,838,537,417,253,
0,647,825,531,414,252,
0,639,809,526,408,249,
0,631,797,519,405,247,
0,623,785,514,440,246,
0,615,899,559,436,243,
0,608,887,551,432,241,
0,600,871,543,428,244,
0,669,856,537,423,242,
0,660,842,531,419,249,
0,651,829,526,415,248,
0,643,816,519,411,245,
0,635,800,514,406,243,
0,627,788,508,402,241,
0,620,824,504,444,239,
0,612,898,556,439,236,
0,603,881,548,434,235,
0,630,867,540,430,236,
0,670,852,535,425,234,
0,660,838,528,422,231,
0,652,824,523,417,231,
0,643,812,516,413,228,
0,636,796,511,408,227,
0,627,785,505,404,225,
0,620,871,515,449,223,
0,612,898,568,444,222,
0,604,880,561,440,220,
0,688,865,553,435,225,
0,683,851,547,431,224,
0,674,837,540,427,221,
0,664,824,535,423,220,
0,656,811,528,419,217,
0,647,796,523,414,216,
0,639,783,518,409,215,
0,632,889,563,448,213,
0,624,892,568,443,211,
0,615,875,560,439,228,
0,693,860,551,433,244,
0,683,846,546,430,244,
0,673,831,540,425,242,
0,664,819,534,420,240,
0,656,807,527,417,238,
0,647,792,522,412,236,
0,639,780,516,408,233,
0,632,896,570,438,231,
0,624,889,563,433,230,
0,615,872,556,429,231,
0,643,858,547,424,228,
0,634,844,542,420,239,
0,626,831,536,415,236,
0,619,817,530,412,235,
0,611,805,524,408,231,
0,604,790,518,403,231,
0,596,779,513,439,228,
0,590,896,566,438,227,
0,583,882,559,433,225,
0,575,867,551,428,233,
0,596,852,543,423,231,
0,589,838,538,420,233,
0,582,825,531,415,231,
0,575,812,526,412,228,
0,568,797,519,408,227,
0,562,785,515,403,225,
0,556,827,510,447,224,
0,551,899,565,441,221,
0,543,884,559,436,220,
0,550,869,551,432,240,
0,554,854,543,428,236,
0,547,840,537,423,236,
0,541,827,531,419,233,
0,535,814,526,415,231,
0,529,799,519,412,230,
0,524,787,515,407,228,
0,519,875,536,447,226,
0,513,896,592,441,224,
0,508,879,585,437,222,
0,568,864,578,432,238,
0,560,849,569,428,235,
0,553,835,563,423,233,
0,547,823,557,420,231,
0,540,810,551,415,228,
0,534,795,544,412,227,
0,528,783,539,408,225,
0,523,892,568,444,223,
0,516,901,560,440,221,
0,511,883,553,435,238,
0,580,868,547,430,236,
0,572,854,540,426,232,
0,566,840,534,422,231,
0,559,827,527,417,228,
0,551,814,522,414,226,
0,545,799,516,409,224,
0,540,787,511,405,223,
0,534,897,574,438,221,
0,527,900,566,433,219,
0,521,881,559,429,217,
0,580,866,551,423,216,
0,572,852,545,420,236,
0,566,838,539,415,233,
0,559,825,532,412,231,
0,552,812,527,408,230,
0,546,797,521,404,227,
0,540,785,515,444,225,
0,534,891,560,443,224,
0,527,874,552,438,222,
0,522,860,547,433,233,
0,588,845,539,429,231,
0,580,831,532,424,231,
0,574,819,527,420,230,
0,567,806,520,416,228,
0,560,793,515,412,226,
0,553,779,510,408,224,
0,547,821,505,449,223,
0,541,896,560,444,220,
0,536,879,552,439,219,
0,529,864,547,435,255,
0,593,850,539,430,254,
0,585,836,532,425,251,
0,578,824,527,422,248,
0,572,811,520,417,247,
0,564,798,515,414,244,
0,558,783,510,409,242,
0,551,875,511,441,240,
0,545,900,556,436,238,
0,539,883,550,432,236,
0,565,867,543,428,263,
0,598,853,536,423,262,
0,591,839,529,419,263,
0,583,826,524,415,262,
0,575,813,518,412,259,
0,569,800,512,408,257,
0,563,785,507,403,255,
0,557,891,559,443,252,
0,550,896,551,438,251,
0,543,878,545,433,248,
0,590,863,539,429,247,
0,579,849,531,425,244,
0,572,835,526,420,241,
0,566,823,519,417,240,
0,560,809,514,412,238,
0,552,798,508,408,236,
0,547,783,504,404,234,
0,540,898,575,450,231,
0,534,905,568,445,230,
0,528,890,561,440,228,
0,529,873,555,436,227,
0,521,859,547,432,225,
0,516,845,540,428,223,
0,511,831,535,423,221,
0,505,819,528,419,219,
0,500,806,523,415,217,
0,496,792,518,447,216,
0,491,899,579,444,214,
0,486,891,571,440,212,
0,481,874,564,435,216,
0,508,860,558,430,214,
0,500,846,550,426,215,
0,495,831,543,422,212,
0,489,819,537,417,210,
0,484,806,531,414,209,
0,480,793,526,409,207,
0,475,831,520,444,206,
0,470,902,555,439,204,
0,465,892,547,435,203,
0,462,875,542,430,206,
0,507,860,536,425,204,
0,499,846,527,421,214,
0,494,832,521,417,212,
0,487,819,516,414,210,
0,483,807,511,409,207,
0,478,795,505,406,207,
0,472,875,517,448,205,
0,467,898,563,442,203,
0,463,880,556,438,201,
0,477,865,550,433,199,
0,492,851,543,429,199,
0,486,837,536,424,198,
0,480,824,529,420,196,
0,475,812,524,416,195,
0,470,799,518,412,193,
0,465,787,512,408,193,
0,460,889,569,447,192,
0,455,886,565,441,190,
0,451,870,558,438,207,
0,508,856,551,432,206,
0,500,841,545,428,207,
0,494,828,537,423,205,
0,487,816,531,420,203,
0,483,803,526,415,201,
0,478,791,519,412,199,
0,472,779,515,408,199,
0,467,859,566,440,196,
0,463,844,558,435,195,
0,457,831,551,432,220,
0,529,817,545,427,217,
0,523,804,539,423,222,
0,515,792,531,419,219,
0,509,780,525,415,217,
0,504,769,519,411,216,
0,498,758,514,408,214,
0,492,748,508,403,212,
0,487,899,547,443,210,
0,482,897,540,438,208,
0,478,879,534,433,223,
0,551,864,527,429,220,
0,545,849,521,424,223,
0,536,836,515,420,220,
0,530,823,508,416,219,
0,524,809,504,412,216,
0,519,798,498,408,215,
0,513,786,494,435,213,
0,508,902,547,441,211,
0,502,896,541,437,209,
0,496,877,535,432,235,
0,561,862,528,428,232,
0,551,847,523,423,231,
0,545,834,515,420,228,
0,540,821,510,415,227,
0,533,808,504,412,224,
0,527,796,499,408,223,
0,521,812,516,451,221,
0,515,896,572,444,219,
0,510,878,564,440,217,
0,543,864,559,435,225,
0,573,849,551,431,223,
0,564,835,545,427,234,
0,558,823,538,423,231,
0,551,809,532,419,230,
0,544,798,526,414,227,
0,539,785,520,411,225,
0,532,861,563,440,224,
0,526,893,562,434,222,
0,520,875,556,430,220,
0,555,860,549,425,218,
0,547,846,543,422,233,
0,540,833,536,417,230,
0,533,819,529,414,227,
0,527,807,524,409,225,
0,521,795,518,406,224,
0,515,783,512,402,222,
0,510,888,577,444,220,
0,504,901,570,438,218,
0,499,883,563,433,230,
0,551,867,556,429,227,
0,543,852,550,424,225,
0,536,839,543,420,224,
0,529,825,536,416,221,
0,524,813,531,412,219,
0,518,800,524,408,217,
0,512,788,519,404,216,
0,507,863,569,440,214,
0,501,844,562,435,211,
0,496,830,556,431,224,
0,542,816,550,427,223,
0,536,804,543,422,221,
0,527,792,536,418,219,
0,521,780,529,414,216,
0,515,768,524,410,215,
0,510,758,518,406,213,
0,504,748,513,428,211,
0,499,880,562,435,209,
0,494,864,555,430,207,
0,489,851,549,425,252,
0,556,836,543,422,249,
0,549,823,536,417,248,
0,540,810,530,413,245,
0,535,798,523,409,242,
0,528,786,518,405,240,
0,523,774,512,401,239,
0,517,799,526,444,236,
0,511,892,578,439,235,
0,505,874,571,433,231,
0,526,860,564,428,231,
0,556,845,558,423,228,
0,549,831,551,419,242,
0,541,819,545,415,240,
0,535,806,537,412,238,
0,528,794,531,408,236,
0,523,782,526,404,233,
0,518,862,560,443,231,
0,511,903,560,438,230,
0,505,886,552,432,231,
0,568,871,546,428,230,
0,560,856,540,423,228,
0,553,842,534,419,226,
0,544,828,527,415,224,
0,538,816,521,411,222,
0,532,803,515,408,220,
0,526,792,510,403,219,
0,520,889,546,445,216,
0,515,894,539,440,215,
0,509,876,532,435,231,
0,577,861,527,430,230,
0,570,847,520,426,241,
0,563,833,515,422,239,
0,555,820,508,417,237,
0,548,807,503,414,234,
0,542,796,497,409,231,
0,536,783,493,406,231,
0,530,895,543,440,228,
0,524,887,537,435,226,
0,518,871,531,431,239,
0,577,856,524,425,237,
0,570,843,519,422,235,
0,563,829,513,417,232,
0,555,816,506,414,231,
0,548,803,501,409,228,
0,542,792,496,406,227,
0,536,780,491,431,224,
0,530,899,550,441,223,
0,524,885,543,437,220,
0,519,870,536,432,224,
0,577,856,531,428,222,
0,571,841,524,423,222,
0,563,828,519,419,220,
0,555,815,511,415,219,
0,548,803,506,411,216,
0,542,791,501,407,215,
0,536,822,515,439,212,
0,530,900,547,433,211,
0,524,883,540,429,209,
0,545,868,535,423,244,
0,566,854,528,419,241,
0,559,839,523,415,240,
0,551,827,517,411,238,
0,543,814,510,408,236,
0,537,801,504,403,233,
0,531,790,499,399,231,
0,526,864,553,439,229,
0,519,899,549,433,227,
0,515,878,543,428,233,
0,568,863,536,423,231,
0,560,848,531,419,229,
0,553,835,524,415,227,
0,547,822,519,412,225,
0,539,809,512,408,223,
0,532,797,506,403,221,
0,527,785,501,399,220,
0,521,888,571,444,217,
0,515,897,563,440,216,
0,510,875,556,434,216,
0,577,860,550,430,214,
0,570,846,543,425,213,
0,563,831,537,420,211,
0,556,819,531,416,210,
0,547,807,524,412,207,
0,542,795,519,409,206,
0,536,783,513,406,204,
0,529,895,563,465,203,
0,524,892,556,461,201,
0,518,871,550,455,200,
0,565,856,543,450,199,
0,558,843,536,446,220,
0,551,829,531,441,218,
0,544,816,525,437,216,
0,536,803,518,433,214,
0,531,792,512,429,212,
0,524,780,507,449,210,
0,519,889,566,455,208,
0,513,873,559,450,207,
0,508,856,551,444,224,
0,566,841,545,440,222,
0,558,828,540,435,224,
0,551,815,533,431,222,
0,545,802,527,427,220,
0,537,790,519,423,217,
0,531,778,515,419,216,
0,525,799,519,455,214,
0,519,894,568,450,211,
0,513,878,561,445,210,
0,536,859,555,440,209,
0,565,845,548,435,207,
0,558,831,543,432,227,
0,551,818,536,427,225,
0,545,806,531,423,223,
0,537,793,523,419,220,
0,531,782,518,415,219,
0,526,856,583,447,217,
0,519,896,577,441,215,
0,513,879,571,437,216,
0,579,860,564,432,214,
0,571,846,558,428,230,
0,563,831,551,423,227,
0,557,819,545,419,225,
0,550,807,539,415,223,
0,543,795,531,411,220,
0,536,783,526,408,219,
0,531,889,572,444,217,
0,524,903,564,440,216,
0,519,891,558,435,216,
0,579,870,551,430,214,
0,572,856,545,425,231,
0,564,841,539,421,230,
0,558,828,533,416,227,
0,551,815,527,412,225,
0,543,803,519,408,223,
0,537,792,515,406,221,
0,531,896,553,448,219,
0,525,896,546,444,217,
0,519,877,540,440,238,
0,577,859,534,433,235,
0,569,845,527,430,233,
0,563,831,521,425,231,
0,556,819,516,421,230,
0,549,806,510,417,227,
0,541,793,504,413,225,
0,536,782,499,432,224,
0,529,899,534,441,221,
0,524,892,527,437,220,
0,518,875,521,432,226,
0,559,856,515,427,224,
0,551,841,510,423,228,
0,544,828,504,419,226,
0,539,816,499,415,224,
0,531,803,494,411,222,
0,524,791,487,407,220,
0,519,835,493,448,218,
0,513,903,547,443,216,
0,508,907,540,438,215,
0,540,895,535,433,244,
0,568,871,527,428,242,
0,561,856,523,423,240,
0,555,843,516,420,238,
0,548,830,511,415,236,
0,540,817,505,412,233,
0,534,804,499,408,231,
0,528,871,563,440,230,
0,523,901,574,435,227,
0,516,887,568,430,225,
0,542,871,560,426,224,
0,535,852,553,420,222,
0,528,839,547,416,220,
0,522,825,542,412,218,
0,516,812,536,408,216,
0,509,799,529,404,215,
0,504,788,523,401,212,
0,499,887,564,440,211,
0,494,892,557,435,209,
0,487,875,551,431,207,
0,483,860,543,427,206,
0,479,843,538,422,206,
0,473,829,532,417,204,
0,470,816,526,413,202,
0,464,803,520,409,200,
0,459,792,515,405,199,
0,455,780,508,401,198,
0,451,895,559,436,195,
0,446,892,551,432,194,
0,442,875,546,428,211,
0,492,860,540,423,208,
