=~=~=~=~=~=~=~=~=~=~=~= PuTTY log 2021.04.22 13:03:15 =~=~=~=~=~=~=~=~=~=~=~=
9,99,558,
0,489,452,137,103,551,
0,501,445,135,102,545,
0,495,,497,
0,511,399,206,103,543,
0,505,396,204,102,536,
0,499,391,203,101,529,
0,494,389,200,100,523,
0,487,385,199,99,5208,103,497,
0,511,3,511,6,103,543,
0,505,396,204,102,536,
0,499,391,203,101,529,
0,494,389,200,100,523,
0,487,385,199,99,518,
0,481,382,198,99,511,
0,478,444,195,108,505,
0,515,438,195,108,500,
0,509,433,192,107,494,
0,504,428,214,105,48
0,497,423,211,105,526,
0,492,419,209,103,519,
0,486,4StartUp!
120,487,451,137,112,520,
0,483,448,155,111,553,
0,480,444,153,110,548,
0,476,440,152,110,543,
0,472,436,152,109,538,
0,467,433,151,108,534,
0,463,430,150,108,528,
0,460,427,148,107,524,
0,456,447,147,109,519,
0,489,443,146,108,515,
0,486,438,145,107,510,
0,480,433,144,106,504,
0,473,428,143,105,499,
0,467,423,159,104,559,
0,463,419,158,103,551,
0,457,415,156,103,545,
0,452,411,155,102,538,
0,448,406,153,101,531,
0,444,442,152,105,526,
0,470,436,151,104,519,
0,463,432,150,103,514,
0,459,427,175,103,508,
0,452,423,172,102,551,
0,448,417,171,101,544,
0,443,413,169,100,537,
0,438,409,167,99,531,
0,433,404,167,99,525,
0,430,401,166,98,520,
0,425,460,164,98,515,
0,487,454,163,97,509,
0,483,451,163,97,505,
0,480,446,161,96,500,
0,473,440,160,96,508,
0,468,436,179,95,551,
0,463,432,177,94,545,
0,458,427,175,94,539,
0,454,423,174,93,532,
0,448,418,172,92,526,
0,444,438,171,129,519,
0,524,455,169,127,514,
0,518,451,167,127,508,
0,511,446,167,126,503,
0,505,440,166,125,504,
0,499,435,185,124,550,
0,492,431,184,123,543,
0,487,426,182,122,536,
1,481,422,180,121,529,
1,476,417,179,120,523,
1,472,476,177,141,517,
2,525,468,176,139,511,
2,518,463,175,138,505,
3,512,457,179,136,499,
3,506,452,177,135,563,
3,500,448,182,134,557,
3,494,443,180,134,550,
4,487,438,179,132,542,
4,483,433,177,131,536,
4,478,428,176,130,529,
4,472,500,174,142,523,
4,550,492,172,140,517,
4,542,487,173,140,512,
4,536,481,242,138,505,
5,529,476,240,137,560,
5,523,470,237,135,552,
5,515,465,235,135,544,
5,510,460,232,134,537,
5,504,455,231,132,531,
5,499,450,228,131,526,
5,495,491,227,138,519,
5,534,483,225,136,513,
4,527,478,224,135,508,
4,521,472,222,135,503,
4,515,467,220,134,551,
5,510,461,218,132,543,
4,503,455,216,131,536,
5,497,451,214,130,529,
5,492,446,212,129,524,
4,487,441,211,129,518,
4,526,492,209,129,511,
5,519,485,207,127,505,
4,512,480,206,127,500,
4,507,473,204,126,495,
4,500,468,203,126,563,
4,495,463,201,124,556,
4,487,458,199,124,547,
4,483,454,198,123,541,
4,478,448,196,121,536,
4,473,458,195,134,529,
4,519,483,193,132,523,
4,512,476,192,131,517,
4,506,470,190,129,511,
3,499,464,189,129,511,
4,495,460,222,127,568,
4,489,455,220,127,561,
4,483,449,217,126,552,
4,477,445,216,125,545,
4,472,440,214,124,539,
3,467,507,211,139,533,
3,526,502,210,137,527,
3,519,494,208,135,521,
3,513,487,207,135,515,
3,508,483,205,134,574,
3,502,477,254,132,573,
3,496,472,252,131,566,
3,489,467,248,131,558,
3,483,461,247,129,551,
3,479,455,244,129,544,
3,473,527,242,137,538,
3,536,519,240,135,531,
3,528,512,238,135,526,
3,523,507,236,134,519,
3,516,500,235,132,585,
3,511,495,231,131,577,
3,504,489,231,130,571,
3,497,483,228,129,561,
3,492,479,227,127,555,
3,487,473,225,127,548,
3,489,500,223,131,543,
3,537,494,221,130,536,
3,531,487,220,128,530,
3,524,481,217,127,524,
3,519,476,216,126,581,
3,513,471,215,126,574,
3,505,465,212,124,567,
3,500,460,211,124,558,
3,495,455,209,123,551,
3,489,451,207,131,545,
3,527,447,206,136,539,
3,524,441,204,135,532,
3,518,436,203,134,526,
3,512,432,201,133,520,
3,507,428,199,131,560,
3,500,423,199,131,552,
3,494,419,197,129,547,
2,487,415,195,128,538,
3,483,411,193,127,531,
3,478,422,192,140,526,
3,546,460,191,139,519,
2,539,455,190,138,514,
2,532,448,188,136,508,
2,526,444,187,135,509,
2,519,439,185,134,575,
2,514,434,184,134,568,
2,507,430,183,132,561,
2,501,424,181,131,553,
1,496,420,179,130,547,
2,491,468,179,131,540,
1,540,462,177,131,534,
1,534,455,176,129,527,
2,527,450,180,127,522,
1,521,445,179,127,567,
1,515,440,177,126,572,
1,509,435,176,125,564,
1,503,431,175,124,558,
1,496,426,173,124,550,
1,492,422,172,123,543,
1,486,467,171,134,537,
1,529,460,169,133,531,
1,524,455,167,131,525,
1,517,449,170,131,519,
1,511,444,174,129,565,
1,505,439,188,128,558,
1,499,434,185,127,551,
1,493,430,184,126,543,
1,487,425,183,125,536,
1,483,420,181,124,530,
1,487,482,179,135,524,
1,527,476,177,135,518,
1,521,469,177,134,512,
0,515,463,175,132,507,
1,510,459,174,131,558,
1,504,454,172,130,551,
0,498,448,171,129,543,
1,492,444,169,127,537,
1,486,439,167,127,529,
1,481,434,167,127,524,
1,524,489,166,129,518,
0,520,483,164,127,512,
1,515,476,164,127,506,
1,508,471,171,126,500,
0,504,465,172,124,569,
1,497,460,171,124,563,
0,492,455,169,123,556,
0,484,450,167,121,549,
0,480,445,167,120,541,
1,475,460,165,126,535,
0,536,508,163,125,528,
0,528,503,163,124,523,
0,522,495,185,123,516,
0,515,488,207,121,515,
0,510,483,204,120,583,
0,504,478,203,120,575,
0,499,472,201,119,569,
0,492,467,199,118,562,
0,486,463,198,118,554,
0,481,503,195,124,547,
0,527,496,194,123,541,
0,521,489,192,121,535,
0,515,483,191,120,528,
0,509,477,190,120,577,
0,504,472,188,119,588,
0,497,467,187,118,581,
0,492,462,185,117,574,
0,486,456,184,116,567,
0,480,451,182,115,559,
0,475,492,180,128,551,
0,531,487,179,127,545,
0,524,480,177,126,539,
0,519,473,176,125,533,
0,512,468,191,124,601,
0,507,463,199,123,593,
0,500,458,196,121,585,
0,495,453,195,121,579,
0,487,448,193,120,572,
0,483,444,192,119,563,
0,478,481,190,120,556,
0,507,475,188,119,550,
0,500,470,209,118,543,
0,495,463,235,117,537,
0,489,458,233,115,601,
0,483,452,231,115,593,
0,479,448,228,114,585,
0,473,443,227,113,579,
0,467,438,224,112,572,
0,463,433,223,112,563,
0,510,505,221,113,556,
0,509,499,219,112,550,
0,504,493,217,111,543,
0,497,486,216,111,537,
0,492,480,214,110,596,
0,487,475,211,108,588,
0,481,470,210,108,581,
0,476,464,208,107,574,
0,469,460,206,106,568,
0,464,455,205,119,559,
0,527,478,203,119,552,
0,519,472,201,118,546,
0,513,467,199,117,540,
0,508,460,199,115,534,
0,502,455,208,115,600,
0,496,450,206,114,592,
0,491,445,204,113,585,
0,485,440,203,112,577,
0,479,435,200,111,571,
0,473,457,199,114,563,
0,513,451,198,112,556,
0,508,446,196,112,550,
0,502,441,195,111,543,
0,496,435,193,110,597,
0,490,431,192,109,615,
0,484,426,190,108,607,
0,480,422,188,107,599,
0,473,417,188,107,591,
0,467,414,185,105,584,
0,463,472,184,107,575,
0,526,467,183,105,568,
0,519,461,182,104,563,
0,513,455,180,103,556,
0,507,449,179,103,620,
0,502,444,177,103,611,
0,496,440,176,102,604,
0,491,435,175,101,596,
0,485,431,174,100,589,
0,479,426,172,99,583,
0,474,481,171,107,575,
0,509,476,169,107,567,
0,503,470,167,105,560,
0,497,464,167,104,553,
0,492,460,211,103,608,
0,486,454,209,103,600,
0,480,448,207,102,591,
0,476,443,205,101,584,
0,471,439,204,100,577,
0,465,434,201,99,571,
0,460,490,199,102,563,
0,510,484,199,101,557,
0,502,479,197,100,551,
0,496,473,195,99,545,
0,491,467,193,99,623,
0,487,462,192,98,614,
0,481,457,191,97,606,
0,476,452,189,96,599,
0,471,448,188,96,591,
0,465,443,185,95,583,
0,461,515,184,97,577,
0,480,509,184,96,570,
0,474,504,182,96,563,
0,468,499,180,95,557,
0,463,493,179,95,558,
0,458,487,177,94,551,
0,454,481,176,93,546,
0,449,476,175,92,540,
0,444,472,174,92,534,
0,440,466,173,91,527,
0,438,507,172,103,523,
0,515,500,169,103,516,
0,509,495,168,103,510,
0,503,488,167,102,504,
0,497,483,167,101,571,
0,492,478,165,100,563,
0,486,471,163,99,556,
0,480,467,163,98,549,
0,476,462,161,97,543,
0,471,457,160,97,536,
0,465,499,159,113,530,
0,526,493,158,112,524,
0,519,487,157,111,518,
0,513,480,156,110,512,
0,507,475,158,109,568,
0,501,470,171,108,560,
0,496,464,169,107,552,
0,490,460,167,105,546,
0,483,455,167,105,540,
0,478,449,164,103,531,
0,479,496,163,111,526,
0,527,489,162,110,519,
0,521,483,163,10StartUp!
121,460,406,155,113,527,
0,455,403,154,120,523,
0,460,449,153,120,519,
0,494,446,152,119,514,
0,489,441,152,118,510,
0,485,438,151,117,505,
0,481,435,150,116,502,
0,477,431,149,116,518,
0,472,427,196,115,547,
0,468,423,195,114,542,
0,465,419,193,113,536,
0,460,415,191,112,528,
0,454,411,189,112,523,
0,449,407,188,112,515,
0,483,403,185,111,509,
0,477,399,184,110,504,
0,472,395,183,110,498,
0,466,390,182,108,492,
0,462,386,179,108,552,
0,455,383,179,107,545,
0,451,379,177,106,539,
0,447,376,176,105,532,
0,440,372,174,104,524,
0,436,415,172,115,519,
0,489,444,171,114,512,
0,483,439,169,113,507,
0,478,433,168,112,502,
0,472,428,167,111,504,
0,467,423,166,110,543,
0,462,419,164,109,537,
0,457,415,164,109,533,
0,454,412,163,108,527,
0,448,408,161,107,519,
0,444,465,160,131,513,
0,539,460,159,130,508,
0,532,454,158,129,502,
0,526,449,204,127,496,
0,519,443,201,126,553,
0,513,438,201,125,545,
0,508,433,199,124,538,
0,502,428,198,123,531,
0,496,423,196,122,526,
0,490,419,194,121,519,
0,485,457,193,147,512,
0,534,452,191,145,507,
0,527,448,189,143,501,
0,520,442,188,143,496,
0,514,436,189,141,558,
0,508,432,187,140,551,
1,503,427,185,139,543,
1,497,423,184,137,537,
1,492,418,183,136,531,
1,484,414,181,136,524,
2,497,495,179,150,518,
2,536,487,178,148,511,
2,529,483,177,147,505,
2,523,477,176,145,500,
3,517,471,189,144,504,
3,511,465,187,143,499,
3,505,460,185,142,493,
3,499,455,184,141,487,
3,494,450,182,140,483,
3,487,446,180,145,477,
3,545,516,179,147,472,
3,537,510,177,146,467,
3,531,504,176,144,463,
3,525,497,175,143,459,
3,519,490,202,142,515,
3,513,485,199,141,509,
3,507,480,199,140,504,
3,502,475,197,139,497,
3,496,469,195,137,492,
3,489,469,193,156,486,
3,545,468,192,153,480,
3,537,463,190,152,475,
3,531,457,189,152,470,
3,525,453,187,150,475,
3,519,448,185,148,518,
3,513,443,184,147,511,
3,507,438,183,146,505,
4,502,433,181,145,499,
4,495,430,179,143,494,
4,489,439,178,148,487,
4,524,433,176,147,481,
3,518,428,175,146,477,
4,512,423,174,144,472,
4,506,420,172,143,531,
4,500,415,171,142,524,
3,495,411,169,141,518,
4,489,408,168,140,512,
3,484,403,167,139,505,
3,478,399,166,138,500,
4,472,501,164,156,493,
4,548,494,163,155,487,
3,541,487,162,153,483,
3,535,483,161,152,478,
3,527,477,187,151,531,
4,522,471,206,149,524,
3,516,465,204,148,518,
3,510,460,201,147,511,
3,504,455,199,146,505,
3,497,450,199,145,499,
3,497,519,196,143,493,
3,521,512,195,143,487,
3,515,505,193,142,482,
3,510,500,192,141,477,
3,504,494,190,140,518,
3,498,487,188,138,512,
3,492,482,187,137,505,
3,487,476,185,135,499,
3,482,472,184,135,495,
3,476,467,183,159,489,
3,560,525,181,163,482,
3,555,518,179,161,477,
3,547,512,179,160,472,
3,542,505,177,159,467,
3,536,500,177,158,505,
3,529,493,176,156,499,
3,523,487,174,155,493,
2,517,482,173,153,487,
2,511,477,172,152,482,
3,504,499,170,157,477,
3,539,516,168,156,471,
3,532,510,167,155,465,
3,526,504,199,153,460,
3,519,498,198,152,472,
3,513,492,219,151,519,
2,508,486,216,150,513,
2,503,480,215,148,507,
2,496,476,213,147,500,
2,492,471,211,146,496,
2,485,471,209,145,490,
2,610,465,207,144,483,
2,602,460,205,143,478,
2,594,455,204,142,472,
2,587,451,202,141,542,
2,579,445,200,140,536,
2,573,440,199,139,531,
2,567,436,198,137,524,
2,560,432,195,136,518,
2,553,428,194,135,512,
2,547,446,193,142,507,
2,625,440,191,140,499,
1,616,435,190,140,494,
2,608,431,188,138,488,
1,601,426,187,137,543,
2,593,420,185,135,536,
1,587,416,184,135,529,
1,579,412,182,134,523,
1,573,408,181,133,516,
1,567,405,179,132,511,
1,591,451,178,142,505,
1,622,445,176,140,498,
1,614,440,175,140,492,
1,605,435,174,138,487,
1,598,431,190,137,548,
1,591,424,188,135,542,
1,583,420,186,135,535,
1,576,415,184,134,528,
1,570,412,184,132,523,
1,563,408,182,145,517,
1,614,420,179,153,511,
1,605,415,178,152,504,
1,598,411,177,151,499,
1,591,407,176,150,492,
1,583,403,174,148,487,
1,575,398,172,147,483,
1,569,393,172,146,478,
1,563,391,169,145,472,
1,556,387,168,143,467,
1,550,410,167,145,463,
1,611,415,166,143,458,
1,603,411,165,142,452,
1,595,407,166,141,448,
1,588,402,167,140,451,
0,581,398,219,140,500,
0,574,392,217,138,495,
1,568,388,215,137,489,
1,560,385,213,135,483,
0,554,381,211,135,478,
1,548,417,209,139,473,
0,595,412,207,137,467,
0,587,408,206,135,462,
0,579,403,204,135,456,
0,572,399,202,134,519,
0,566,395,199,133,518,
0,559,390,199,131,512,
0,552,385,197,131,505,
0,547,382,195,129,499,
0,540,378,194,129,495,
0,535,458,193,137,489,
0,608,452,191,135,483,
0,600,447,190,135,477,
0,591,441,188,134,472,
0,584,437,187,134,527,
0,577,432,185,132,521,
0,571,427,184,131,515,
0,564,422,183,130,508,
0,558,417,181,129,503,
0,551,414,179,129,497,
0,545,436,178,140,492,
0,588,431,176,139,487,
0,581,427,176,137,480,
0,574,422,174,136,475,
0,568,417,172,135,515,
0,560,413,172,135,508,
0,553,408,170,133,503,
0,547,403,168,132,497,
0,541,399,167,131,492,
0,535,396,167,135,486,
0,550,444,165,137,481,
0,590,438,163,135,476,
0,583,433,163,135,470,
0,575,428,161,134,464,
0,569,423,160,133,527,
0,561,419,159,132,519,
0,556,414,158,131,514,
0,549,409,157,130,508,
0,543,406,156,129,503,
0,536,439,155,143,497,
0,605,454,153,142,491,
0,594,448,152,142,486,
0,587,444,152,140,480,
0,579,439,151,139,479,
0,572,434,157,137,527,
0,566,430,156,137,521,
0,560,423,155,135,515,
0,552,419,153,134,510,
0,547,415,152,134,504,
0,540,412,151,139,498,
0,574,407,150,137,492,
0,564,403,148,135,486,
0,558,399,148,135,480,
0,551,395,147,135,542,
0,544,391,163,134,543,
0,538,387,162,132,536,
0,531,383,160,131,530,
0,526,379,159,130,524,
0,520,376,158,129,518,
0,515,450,157,141,512,
0,579,444,156,140,506,
0,569,440,153,139,499,
0,563,435,152,137,494,
0,556,430,165,136,550,
0,550,425,167,135,543,
0,543,420,165,135,536,
0,536,415,163,133,529,
0,531,411,163,132,524,
0,524,407,161,131,518,
0,519,445,159,133,512,
0,581,440,159,131,505,
0,572,434,157,131,499,
0,564,430,156,129,494,
0,558,425,156,129,531,
0,551,420,154,127,524,
0,544,415,153,127,518,
0,538,411,152,126,512,
0,532,407,151,125,506,
0,526,402,149,137,500,
0,527,438,148,139,495,
0,572,433,147,137,489,
0,563,428,145,136,483,
0,556,423,144,135,478,
0,550,419,156,134,519,
0,543,415,154,133,513,
0,536,410,153,132,507,
0,530,405,152,131,502,
0,524,401,151,129,496,
0,519,467,149,147,491,
0,588,465,147,145,484,
0,584,460,147,144,480,
0,575,455,145,143,473,
0,568,449,167,142,468,
0,561,444,166,141,480,
0,555,440,164,140,473,
0,548,435,163,139,468,
0,542,430,161,137,463,
0,536,424,159,135,459,
0,530,485,159,143,455,
0,577,479,158,141,449,
0,568,472,156,140,445,
0,560,467,155,140,440,
0,553,462,153,137,436,
0,547,456,153,137,432,
0,541,451,152,135,428,
0,536,447,151,135,425,
0,529,441,150,134,422,
0,523,436,148,132,417,
0,518,463,147,141,415,
0,571,459,146,140,411,
0,561,453,145,139,408,
0,555,448,143,137,403,
0,548,443,143,136,457,
0,542,439,142,135,451,
0,536,433,141,135,446,
0,529,429,140,133,441,
0,524,423,139,132,436,
0,518,419,137,131,432,
0,512,470,137,145,428,
0,583,463,135,143,423,
0,574,459,135,143,419,
0,568,454,134,141,414,
0,560,448,168,140,468,
0,553,444,167,139,463,
0,547,439,165,138,457,
0,540,434,163,137,452,
0,535,428,162,135,448,
0,528,434,161,143,443,
0,527,481,159,148,438,
0,572,476,159,147,433,
0,563,470,196,146,429,
0,556,464,199,144,423,
0,550,460,198,143,480,
0,543,454,195,143,475,
0,536,449,194,141,469,
0,531,444,192,140,463,
0,524,439,191,139,459,
0,519,460,190,145,454,
0,568,467,188,143,449,
0,565,462,186,143,444,
0,556,455,188,141,440,
0,550,451,185,140,439,
0,543,446,184,139,482,
0,536,441,183,138,476,
0,531,436,181,137,471,
0,524,431,179,135,465,
0,519,427,178,135,460,
0,513,433,176,150,455,
0,575,428,175,147,451,
0,568,423,174,147,446,
0,559,419,172,145,441,
0,551,415,171,144,487,
0,545,411,169,143,481,
0,539,408,167,142,476,
0,532,403,167,141,471,
0,527,398,166,140,465,
0,520,395,164,139,460,
0,515,451,163,152,455,
0,558,444,163,152,451,
0,551,440,161,150,446,
0,543,435,159,148,441,
0,536,430,159,147,480,
0,529,425,158,146,473,
0,524,420,156,145,467,
0,518,416,155,143,463,
0,512,411,153,143,457,
0,507,408,152,142,454,
0,502,476,152,151,448,
0,560,470,151,149,444,
0,551,464,150,147,439,
0,543,460,156,147,434,
0,537,455,154,145,473,
0,531,449,152,144,468,
0,525,444,152,143,463,
0,519,440,151,142,457,
0,513,433,149,141,452,
0,508,430,148,144,448,
0,504,473,147,143,444,
0,539,467,146,142,439,
0,532,462,147,141,434,
0,524,456,145,140,430,
0,519,452,144,139,479,
0,512,447,143,137,473,
0,507,442,142,137,467,
0,501,438,141,135,462,
0,496,432,140,135,457,
0,491,428,139,151,452,
0,541,423,138,149,448,
0,536,419,137,147,443,
0,529,414,137,147,439,
0,521,410,147,145,433,
0,515,407,145,144,473,
0,509,402,144,143,467,
0,504,398,143,142,463,
0,498,395,142,141,457,
0,492,390,140,140,452,
0,487,492,140,153,448,
0,564,486,138,152,443,
0,557,480,137,150,438,
0,551,473,154,148,433,
0,542,468,152,147,429,
0,536,463,152,147,462,
0,529,458,150,145,457,
0,524,453,148,143,451,
0,518,448,147,143,448,
0,512,442,146,142,442,
0,507,482,145,151,438,
0,571,476,143,149,433,
0,563,471,143,147,428,
0,556,465,142,147,423,
0,547,460,140,145,459,
0,541,455,140,144,460,
0,535,449,140,143,455,
0,529,445,138,142,450,
0,523,440,137,141,445,
0,517,435,135,140,440,
0,512,482,135,143,436,
0,558,476,134,142,432,
0,551,470,133,141,427,
0,543,465,132,140,423,
0,536,460,135,139,478,
0,529,455,134,137,470,
0,524,449,133,135,464,
0,518,444,132,135,460,
0,512,440,131,134,455,
0,505,435,130,135,449,
0,504,472,129,142,445,
0,548,467,128,140,440,
0,542,462,172,140,435,
0,536,455,168,138,431,
0,527,451,167,137,481,
0,521,446,167,135,473,
0,515,441,165,135,467,
0,510,436,163,134,463,
0,504,432,162,132,457,
0,499,436,161,147,452,
0,569,443,159,145,448,
0,568,438,159,143,443,
0,561,432,157,143,439,
0,555,428,156,142,434,
0,547,423,158,140,494,
0,540,419,157,139,487,
0,534,415,156,138,483,
0,527,411,155,137,477,
0,521,407,153,135,472,
0,516,484,152,148,467,
0,560,478,151,147,462,
0,553,472,150,145,456,
0,547,466,148,144,452,
0,540,461,147,143,448,
0,531,455,146,142,497,
0,526,451,145,141,492,
0,519,446,143,140,487,
0,514,441,143,139,481,
0,508,436,142,137,476,
0,504,473,140,156,471,
0,555,467,140,155,465,
0,547,462,139,153,460,
0,541,457,159,152,455,
0,534,451,157,152,492,
0,527,447,155,150,502,
0,520,442,153,149,496,
0,515,438,152,147,491,
0,509,432,152,147,484,
0,504,428,150,145,480,
0,498,451,149,153,475,
0,567,446,147,152,469,
0,559,441,146,151,464,
0,551,436,145,149,459,
0,545,432,144,147,515,
0,537,427,143,147,507,
0,531,423,143,145,502,
0,525,418,142,144,496,
0,519,414,140,143,489,
0,513,410,140,142,484,
0,508,451,139,143,480,
0,552,446,137,141,474,
0,545,440,136,140,470,
0,540,435,135,139,463,
0,532,432,137,138,508,
0,525,427,135,137,499,
0,519,422,135,135,494,
0,513,417,134,135,488,
0,508,413,133,134,483,
0,502,409,132,139,478,
0,563,404,131,144,472,
0,562,400,130,143,467,
0,556,396,136,142,463,
0,548,392,135,140,457,
0,543,389,140,140,511,
0,534,385,139,139,503,
0,527,382,137,137,497,
0,521,379,137,135,492,
0,516,375,135,135,486,
0,511,390,135,143,481,
0,575,412,134,142,476,
0,568,407,132,141,471,
0,560,403,131,140,465,
0,553,398,131,139,460,
0,545,394,150,137,455,
0,539,390,147,136,450,
0,532,386,146,135,446,
0,527,383,145,135,441,
0,520,379,143,134,436,
0,515,415,143,147,432,
0,561,408,141,145,428,
0,553,404,140,144,423,
0,547,399,140,143,419,
0,540,396,138,142,460,
0,532,391,156,140,473,
0,526,387,155,140,467,
0,519,384,153,139,462,
0,515,380,152,137,456,
0,508,376,151,136,452,
0,504,433,150,143,448,
0,551,427,148,142,442,
0,543,422,147,140,438,
0,537,417,221,139,433,
0,531,413,219,137,471,
0,523,408,216,137,465,
0,518,404,214,135,459,
0,511,399,211,135,453,
0,505,396,210,134,448,
0,499,391,208,133,444,
0,496,438,207,137,439,
0,531,431,205,135,434,
0,525,426,204,135,430,
0,519,422,201,134,425,
0,513,417,199,133,479,
0,505,412,199,131,472,
0,500,408,196,131,465,
0,495,403,195,129,460,
0,489,399,193,129,455,
0,484,396,192,132,451,
0,532,440,191,140,446,
0,532,433,189,139,441,
0,526,428,188,137,436,
0,519,423,186,136,432,
0,514,419,184,135,481,
0,506,415,184,135,476,
0,500,411,182,134,470,
0,495,407,180,132,463,
0,490,403,179,131,460,
0,485,415,177,151,455,
0,547,440,176,150,449,
0,540,435,175,147,445,
0,533,430,174,147,440,
0,527,425,172,145,435,
0,520,421,171,144,487,
0,513,416,169,143,482,
0,507,412,167,142,475,
0,502,408,167,141,470,
0,496,403,166,140,465,
0,491,435,164,147,460,
0,550,428,163,145,455,
0,543,423,162,143,450,
0,536,419,161,143,446,
0,529,414,159,142,480,
0,524,409,159,140,489,
0,516,406,158,140,484,
0,511,401,156,139,478,
0,504,398,155,137,472,
0,499,393,153,135,467,
0,494,451,152,162,462,
0,552,444,152,160,456,
0,545,439,151,159,452,
0,539,434,150,158,448,
0,532,429,148,156,509,
0,526,423,147,155,503,
0,519,420,146,154,496,
0,513,415,145,152,489,
0,507,412,143,152,484,
0,502,408,143,151,479,
0,518,448,142,161,473,
0,572,441,141,159,468,
0,564,436,140,158,463,
0,558,432,139,156,459,
0,551,427,138,156,502,
0,543,423,137,155,496,
0,536,418,135,153,489,
0,530,414,135,152,483,
0,524,409,134,151,478,
0,519,405,134,151,472,
0,537,476,132,152,467,
0,536,468,131,151,462,
0,529,463,167,149,457,
0,523,457,166,147,452,
0,518,452,164,147,504,
0,511,448,163,145,499,
0,504,443,161,145,493,
0,499,438,159,143,486,
0,493,433,159,142,480,
0,487,448,158,175,476,
0,551,477,156,172,470,
0,543,470,155,171,465,
0,537,464,154,168,460,
0,531,460,152,167,455,
0,525,455,167,166,504,
0,519,449,166,164,499,
0,512,444,163,163,493,
0,505,440,163,162,487,
0,500,435,161,161,480,
0,495,469,159,163,476,
0,557,463,159,161,471,
0,550,455,157,159,465,
0,543,451,156,159,460,
0,536,446,155,158,476,
0,531,441,153,156,481,
0,524,436,152,155,476,
0,517,432,151,154,470,
0,511,428,150,152,463,
0,505,423,148,152,459,
0,500,476,147,167,454,
0,556,469,146,166,449,
0,549,463,145,164,444,
0,543,457,143,163,440,
0,536,452,143,161,487,
0,529,448,142,160,482,
0,524,443,141,159,476,
0,516,438,140,158,472,
0,510,432,139,157,464,
0,504,428,137,156,460,
0,519,468,136,182,455,
0,561,462,135,180,450,
0,554,455,135,178,446,
0,547,451,134,176,440,
0,541,446,133,175,479,
0,535,440,131,174,473,
0,528,435,131,172,467,
0,521,431,129,171,463,
0,515,427,128,169,455,
0,509,423,127,172,451,
0,563,472,127,176,447,
0,559,465,126,175,441,
0,551,459,126,173,438,
0,545,454,124,172,433,
0,539,449,124,170,432,
0,532,444,123,168,428,
0,526,440,122,167,423,
0,519,435,121,166,419,
0,513,430,120,164,414,
0,508,426,120,192,411,
0,572,433,119,192,407,
0,563,428,118,190,403,
0,557,423,118,188,399,
0,551,418,116,187,396,
0,543,414,115,185,428,
0,537,409,115,184,423,
0,531,406,115,182,418,
0,524,401,113,180,412,
0,518,398,113,179,408,
0,512,441,112,206,404,
0,578,435,111,204,399,
0,571,431,111,201,396,
0,563,424,111,199,393,
0,557,420,110,198,431,
0,550,415,115,196,441,
0,543,412,114,195,436,
0,537,407,113,193,432,
0,529,403,112,192,427,
0,524,399,111,190,423,
0,518,492,110,207,417,
0,568,486,110,204,414,
0,561,480,109,203,409,
0,553,473,110,199,406,
0,547,467,113,199,439,
0,540,462,125,197,433,
0,535,457,124,195,428,
0,528,452,123,193,423,
0,520,448,121,192,419,
0,515,443,120,191,415,
0,519,504,120,205,409,
0,561,497,119,203,406,
0,555,492,118,201,402,
0,547,484,116,199,398,
0,541,480,116,198,440,
0,535,474,115,195,435,
0,528,468,114,194,430,
0,523,463,113,193,425,
0,515,459,112,192,419,
0,510,454,111,219,415,
0,551,489,111,217,412,
0,550,483,110,216,408,
0,543,478,146,213,403,
0,536,471,144,211,399,
0,530,465,143,209,435,
0,524,460,142,207,431,
0,518,455,140,206,425,
0,512,451,140,204,421,
0,504,446,138,203,415,
0,499,460,137,216,412,
0,570,500,135,214,408,
0,562,495,135,212,403,
0,556,489,134,211,399,
0,548,481,132,208,396,
0,542,476,131,207,419,
0,536,472,131,205,415,
0,529,466,129,204,411,
0,522,461,128,202,407,
0,516,455,127,200,401,
0,511,547,126,222,398,
0,576,538,126,219,393,
0,569,531,124,216,390,
0,563,525,124,215,387,
0,556,517,123,212,384,
0,548,511,123,211,380,
0,543,505,122,209,377,
0,536,499,121,207,374,
0,528,494,120,206,371,
0,523,488,120,204,368,
0,516,544,119,223,364,
0,586,537,118,220,361,
0,579,531,116,218,359,
0,571,524,116,216,356,
0,564,516,115,214,359,
0,558,511,115,212,356,
0,551,504,114,211,353,
0,544,499,113,209,350,
0,536,494,112,207,348,
0,531,487,112,206,344,
0,529,576,111,227,342,
0,577,568,110,225,339,
0,571,561,121,223,336,
0,563,554,122,221,334,
0,556,546,121,219,385,
0,550,540,120,217,382,
0,543,533,119,216,377,
0,537,527,118,214,374,
0,529,521,117,211,370,
0,524,515,116,218,366,
0,591,534,115,219,361,
0,590,527,114,217,359,
0,583,520,113,216,355,
0,575,514,112,214,352,
0,569,507,114,211,384,
0,562,502,113,210,380,
0,556,496,112,208,376,
0,549,491,111,207,371,
0,541,486,110,205,368,
0,536,495,109,224,364,
0,583,529,108,223,359,
0,575,523,108,221,356,
0,568,518,175,219,353,
0,561,510,172,217,350,
0,555,504,171,215,391,
0,548,498,169,214,387,
0,542,492,167,211,384,
0,536,487,166,209,379,
0,527,481,165,208,376,
0,523,553,163,238,371,
0,583,556,162,235,367,
0,575,550,160,233,364,
0,568,543,162,231,359,
0,561,535,160,229,377,
0,555,528,159,227,385,
0,548,523,158,225,381,
0,542,516,156,223,377,
0,536,510,156,221,374,
0,527,504,154,220,369,
0,522,555,152,228,365,
0,582,547,152,227,361,
0,575,540,150,225,359,
0,568,534,149,223,355,
0,560,526,148,221,399,
0,554,519,147,219,394,
0,547,513,145,217,390,
0,541,508,144,216,386,
0,535,502,143,214,382,
0,527,497,143,212,379,
0,534,560,141,229,374,
0,586,551,140,227,370,
0,579,545,139,225,367,
0,572,539,138,224,363,
0,564,531,137,222,408,
0,558,524,135,219,403,
0,551,518,135,217,399,
0,545,512,134,216,396,
0,539,507,133,214,391,
0,531,501,132,214,387,
0,568,550,131,216,383,
0,561,543,130,215,379,
0,555,536,129,213,376,
0,547,529,127,211,371,
0,541,521,127,209,399,
0,535,515,126,207,395,
0,528,510,125,206,391,
0,523,504,124,204,387,
0,516,498,124,203,384,
0,510,512,123,219,380,
0,564,548,121,216,375,
0,557,541,121,215,371,
0,550,535,133,213,368,
0,543,527,131,211,364,
0,537,519,131,209,391,
0,531,515,130,207,387,
0,524,508,128,206,383,
0,519,503,127,204,379,
0,512,497,127,203,375,
0,507,536,125,221,371,
0,573,528,124,219,367,
0,566,522,123,216,364,
0,559,516,136,215,359,
0,551,510,135,213,384,
0,545,503,134,211,385,
0,540,497,133,209,380,
0,532,492,131,207,376,
0,527,486,131,206,372,
0,521,481,129,204,369,
0,514,516,128,212,366,
0,574,510,127,211,360,
0,566,504,135,209,358,
0,559,498,174,207,354,
0,552,492,172,206,395,
0,546,486,170,204,390,
0,540,480,168,202,385,
0,534,475,167,199,382,
0,527,470,166,199,377,
0,521,465,164,198,375,
0,519,536,163,220,371,
0,563,529,161,219,366,
0,556,523,169,216,363,
0,549,516,175,215,359,
0,543,511,174,213,380,
0,536,504,172,211,376,
0,530,497,171,209,372,
0,524,492,169,207,369,
0,518,487,167,206,365,
0,512,481,167,214,361,
0,582,519,165,214,358,
0,583,512,163,212,353,
0,575,506,199,211,351,
0,568,499,195,209,348,
0,562,495,194,207,380,
0,556,487,192,205,376,
0,549,482,191,204,372,
0,543,476,189,201,368,
0,536,472,187,199,364,
0,530,486,185,227,361,
0,558,523,184,225,358,
0,551,516,183,223,353,
0,543,510,181,221,350,
0,537,504,179,219,347,
0,531,499,211,217,344,
0,525,491,208,215,341,
0,519,486,207,213,338,
0,513,480,205,211,335,
0,508,475,203,210,332,
0,503,556,201,232,330,
0,579,547,199,230,327,
0,572,540,198,228,324,
0,564,534,196,227,322,
0,558,527,195,224,358,
0,551,521,193,223,366,
0,544,513,192,220,363,
0,537,508,190,219,359,
0,531,502,188,216,355,
0,526,496,188,216,352,
0,519,512,185,224,349,
0,568,506,184,223,344,
0,560,499,183,220,342,
0,553,494,181,219,338,
0,547,488,179,217,367,
0,540,483,178,216,363,
0,534,477,177,213,359,
0,527,472,176,211,355,
0,521,467,174,210,352,
0,516,462,173,208,348,
0,511,523,172,227,345,
0,588,515,170,225,341,
0,580,510,169,224,338,
0,574,504,167,222,335,
0,567,497,167,220,332,
0,560,492,166,219,329,
0,553,485,164,216,326,
0,547,480,163,215,323,
0,540,475,161,213,321,
0,535,470,160,235,318,
0,532,465,159,239,316,
0,579,460,158,237,312,
0,572,455,190,235,311,
0,565,451,188,232,308,
0,559,447,220,231,339,
0,551,441,217,229,336,
0,545,436,215,227,333,
0,539,432,213,225,329,
0,533,428,211,223,327,
0,527,449,209,231,323,
0,575,512,207,230,320,
0,579,505,206,227,317,
0,572,499,204,225,314,
0,564,494,202,224,312,
0,558,488,200,222,353,
0,551,483,199,220,349,
0,545,476,198,218,345,
0,539,471,195,216,343,
0,532,465,194,215,339,
0,527,532,193,244,335,
0,582,524,192,242,332,
0,574,516,189,240,329,
0,566,511,188,238,326,
0,560,504,186,236,352,
0,553,499,184,233,348,
0,547,494,184,231,344,
0,540,487,182,230,340,
0,534,481,180,227,337,
0,527,476,179,226,334,
0,523,556,178,239,331,
0,567,547,176,236,327,
0,560,541,175,235,324,
0,552,535,176,233,321,
0,546,527,174,231,350,
0,540,522,173,229,346,
0,534,515,172,227,343,
0,527,508,170,225,339,
0,521,503,169,224,335,
0,515,497,167,221,333,
0,510,534,167,248,329,
0,548,527,166,245,327,
0,542,519,163,243,323,
0,536,514,163,241,319,
0,529,508,161,239,350,
0,523,502,160,237,345,
0,517,496,159,235,342,
0,511,489,158,232,339,
0,505,484,157,231,335,
0,499,480,156,240,333,
0,500,527,155,243,329,
0,564,521,153,241,326,
0,558,515,152,240,323,
0,551,508,152,238,319,
0,543,504,150,236,326,
0,538,497,149,234,323,
0,531,492,147,231,319,
0,526,484,147,230,316,
0,519,480,146,227,313,
0,514,495,145,247,312,
0,553,536,143,243,308,
0,566,529,143,241,306,
0,560,523,142,240,303,
0,552,516,140,238,301,
0,546,511,140,236,323,
0,540,504,139,233,319,
0,533,497,137,231,317,
0,527,492,136,230,314,
0,521,487,135,228,312,
0,515,563,135,248,308,
0,563,563,134,245,305,
0,553,556,133,243,303,
0,547,549,132,240,300,
0,540,542,131,239,325,
0,534,536,130,236,326,
0,527,529,129,235,323,
0,521,521,128,233,319,
0,515,515,127,231,316,
0,510,510,127,229,313,
0,504,555,126,246,311,
0,568,547,125,243,308,
0,559,541,124,241,305,
0,551,535,169,240,302,
0,545,527,167,238,300,
0,539,521,165,236,297,
0,532,515,163,233,295,
0,526,508,162,231,292,
0,519,503,161,230,291,
0,515,497,159,228,289,
0,509,564,159,245,287,
0,564,556,157,243,284,
0,556,549,156,240,283,
0,548,543,154,239,280,
0,542,536,153,236,278,
0,536,529,152,235,276,
0,529,524,151,232,275,
0,524,516,150,231,272,
0,518,510,148,228,271,
0,512,504,147,229,269,
0,510,551,146,231,267,
0,578,545,145,231,265,
0,568,539,160,228,263,
0,562,531,159,227,262,
0,556,526,157,225,298,
0,548,519,156,224,295,
0,542,513,155,222,292,
0,536,506,153,220,289,
0,529,500,152,217,287,
0,524,519,151,228,284,
0,550,570,150,227,281,
0,565,563,148,225,280,
0,557,556,147,223,277,
0,550,550,146,221,273,
0,543,543,147,220,319,
0,536,536,146,217,316,
0,531,529,145,216,312,
0,524,523,143,215,310,
0,519,516,143,212,307,
0,513,573,142,246,304,
0,572,565,140,243,301,
0,563,558,140,240,299,
0,555,551,140,239,295,
0,548,543,139,236,321,
0,542,537,137,235,319,
0,536,531,136,232,316,
0,529,525,135,231,312,
0,524,518,135,229,310,
0,518,512,134,227,307,
0,512,631,133,238,304,
0,572,620,131,236,302,
0,564,611,131,233,299,
0,556,604,134,231,295,
0,550,595,132,230,323,
0,543,588,131,227,319,
0,536,582,130,226,317,
0,530,574,129,224,314,
0,524,566,127,222,312,
0,519,559,127,220,308,
0,513,584,127,228,305,
0,556,575,126,227,303,
0,550,569,125,225,300,
0,541,562,158,223,297,
0,535,556,156,221,324,
0,528,549,155,220,320,
0,522,543,153,217,318,
0,516,536,152,216,315,
0,511,529,152,214,312,
0,505,524,150,220,309,
0,500,571,148,224,305,
0,560,563,147,222,303,
0,552,556,147,220,300,
0,543,550,147,219,297,
0,538,543,148,216,327,
0,531,536,147,216,325,
0,525,531,145,214,322,
0,519,524,144,211,319,
0,513,517,143,210,316,
0,508,526,143,225,313,
0,529,571,141,224,310,
0,551,563,140,223,307,
0,543,557,179,220,304,
0,536,550,201,219,302,
0,529,543,199,217,301,
0,524,536,198,216,297,
0,517,530,195,214,295,
0,511,524,194,212,293,
0,505,516,192,210,291,
0,500,598,191,224,288,
0,572,600,189,221,286,
0,563,591,188,220,284,
0,556,583,185,217,281,
0,547,577,184,216,313,
0,542,569,183,214,328,
0,536,563,182,212,326,
0,529,556,179,211,322,
0,523,550,179,209,319,
0,518,542,177,207,316,
0,512,569,176,232,313,
0,562,561,174,231,310,
0,555,555,173,228,307,
0,548,547,172,226,304,
0,540,541,170,225,346,
0,534,535,168,223,342,
0,527,528,167,221,339,
0,521,523,166,220,335,
0,515,517,165,217,332,
0,510,510,163,216,329,
0,504,560,163,216,326,
0,544,553,161,215,323,
0,537,546,159,213,319,
0,531,540,161,211,317,
0,524,533,159,209,363,
0,518,527,159,207,358,
0,512,520,158,207,355,
0,505,515,156,205,352,
0,500,508,156,204,348,
0,495,502,155,206,344,
0,492,561,153,209,341,
0,547,554,152,207,338,
0,540,547,152,205,335,
0,534,540,152,204,332,
0,527,535,197,202,356,
0,519,527,194,200,353,
0,514,521,192,199,350,
0,508,515,191,198,346,
0,503,510,190,196,343,
0,497,504,188,206,339,
0,537,547,187,204,336,
0,558,540,184,203,333,
0,551,534,184,201,331,
0,543,527,182,199,327,
0,536,521,192,198,374,
0,529,515,191,196,369,
0,524,509,189,195,366,
0,518,504,188,194,362,
0,512,498,185,192,359,
0,506,556,184,203,355,
0,552,548,183,200,352,
0,545,541,182,199,348,
0,539,535,179,198,345,
0,530,527,178,195,343,
0,524,521,177,194,365,
0,518,515,176,193,361,
0,512,510,174,191,358,
0,507,504,172,190,354,
0,501,499,171,188,351,
0,496,528,170,193,348,
0,547,521,168,192,344,
0,540,515,167,190,341,
0,534,509,167,188,338,
0,526,504,165,188,359,
0,519,497,163,185,371,
0,513,492,162,184,367,
0,508,487,161,183,363,
0,502,481,159,182,359,
0,496,476,159,180,356,
0,492,471,158,198,352,
0,546,465,156,196,349,
0,540,461,155,195,346,
0,533,457,159,193,343,
0,525,452,159,192,379,
0,519,448,157,190,374,
0,513,444,156,189,369,
0,508,440,155,188,366,
0,502,435,153,185,362,
0,496,431,152,184,359,
0,492,493,151,196,355,
0,544,487,150,195,352,
0,537,481,183,193,349,
0,531,476,190,192,345,
0,524,471,188,190,378,
0,518,464,185,188,373,
0,511,460,184,188,369,
0,505,455,183,185,365,
0,499,449,182,184,361,
0,495,445,179,185,359,
0,527,524,178,196,355,
0,542,518,177,194,352,
0,536,511,175,193,348,
0,529,505,174,191,345,
0,521,499,220,190,342,
0,515,494,216,188,338,
0,509,487,215,187,335,
0,504,483,213,185,332,
0,498,478,211,184,329,
0,492,529,209,207,327,
0,496,540,207,208,323,
0,489,534,206,207,321,
0,484,527,204,205,318,
0,480,520,203,204,316,
0,473,515,200,201,352,
0,468,508,199,199,348,
0,463,503,197,199,344,
0,459,496,195,196,340,
0,455,492,194,195,337,
0,451,571,192,200,334,
0,472,563,191,199,331,
0,467,555,189,196,327,
0,461,548,202,195,325,
0,455,542,199,193,347,
0,450,536,199,192,363,
0,446,528,196,191,358,
0,441,523,194,189,355,
0,437,516,193,188,351,
0,433,511,192,186,348,
0,430,595,190,194,344,
0,465,587,188,192,341,
0,460,579,187,191,338,
0,455,572,185,189,335,
0,450,564,184,188,366,
0,444,558,183,185,361,
0,440,551,181,184,356,
0,435,544,179,184,353,
0,430,537,179,182,350,
0,426,531,177,180,347,
0,423,577,176,193,344,
0,468,569,175,192,339,
0,463,562,173,190,337,
0,458,556,172,188,334,
0,453,549,171,187,347,
0,448,542,169,185,343,
0,442,536,167,184,339,
0,438,529,167,182,335,
0,433,524,166,181,332,
0,429,518,164,185,329,
0,440,588,163,196,326,
0,461,579,161,194,323,
0,455,572,162,192,321,
0,451,565,160,191,318,
0,446,559,159,189,356,
0,440,551,158,188,352,
0,435,545,157,187,348,
0,431,539,156,185,344,
0,427,532,155,184,342,
0,422,527,153,204,339,
0,478,601,152,204,335,
0,472,593,152,201,332,
0,467,585,213,199,329,
0,461,578,211,199,326,
0,455,571,208,197,363,
0,449,564,206,195,359,
0,445,558,204,193,354,
0,440,551,203,192,351,
0,435,543,200,191,348,
0,432,575,199,193,344,
0,487,572,198,192,341,
0,480,564,195,190,338,
0,475,558,248,188,335,
0,469,551,245,187,346,
0,464,543,243,184,359,
0,457,537,240,184,356,
0,452,531,238,182,352,
0,448,526,236,180,349,
0,444,519,233,179,345,
0,439,599,231,203,342,
0,483,588,230,200,339,
0,478,579,228,199,335,
0,472,572,226,198,333,
0,467,566,224,195,370,
0,462,559,223,194,366,
0,455,551,220,193,361,
0,451,545,219,192,358,
0,446,539,217,190,354,
0,441,532,216,188,351,
0,437,610,214,195,347,
0,483,600,211,193,344,
0,477,591,212,192,341,
0,472,583,222,190,338,
0,466,577,220,188,381,
0,461,569,217,187,377,
0,455,563,216,185,373,
0,449,556,214,184,368,
0,445,549,211,183,364,
0,440,543,210,184,361,
0,467,611,208,195,358,
0,497,600,207,192,355,
0,492,592,205,191,352,
0,486,585,204,190,348,
0,480,577,202,188,380,
0,475,571,200,187,376,
0,468,564,199,185,371,
0,463,557,197,184,368,
0,459,551,195,182,364,
0,454,543,194,185,361,
0,492,562,192,185,358,
0,486,553,192,183,354,
0,480,547,190,182,352,
0,475,540,188,180,348,
0,470,534,187,179,384,
0,463,527,185,177,380,
0,457,521,184,176,376,
0,452,516,183,175,371,
0,448,510,182,174,368,
0,444,552,180,184,364,
0,493,564,179,182,360,
0,487,556,177,179,357,
0,481,548,176,178,354,
0,476,542,175,177,371,
0,471,536,174,176,387,
0,465,529,172,174,383,
0,460,524,171,173,377,
0,455,518,169,172,374,
0,449,511,167,171,370,
0,445,551,167,176,366,
0,502,544,166,174,363,
0,495,536,165,172,359,
0,489,529,195,171,356,
0,483,524,193,169,390,
0,478,517,191,167,385,
0,473,511,190,167,382,
0,467,505,188,166,376,
0,462,500,186,165,372,
0,456,495,184,163,369,
0,452,572,184,166,366,
0,467,564,182,164,362,
0,462,556,180,163,359,
0,457,548,179,162,355,
0,451,543,177,161,400,
0,448,536,176,159,396,
0,443,529,175,159,391,
0,437,523,173,158,387,
0,432,517,172,157,383,
0,428,511,170,156,380,
0,455,591,169,166,376,
0,483,583,167,164,371,
0,477,574,167,163,368,
0,472,568,166,161,364,
0,467,560,163,159,415,
0,461,553,163,159,412,
0,455,547,161,158,407,
0,449,540,159,156,401,
0,445,534,159,156,398,
0,440,527,158,157,393,
0,494,574,156,156,390,
0,487,566,156,155,386,
0,482,557,156,153,384,
0,476,550,155,152,379,
0,472,543,172,152,427,
0,466,537,171,151,422,
0,460,531,169,150,417,
0,455,524,167,148,412,
0,450,519,167,147,408,
0,446,540,165,155,404,
0,478,541,163,153,399,
0,472,535,162,152,396,
0,467,527,161,151,391,
0,462,519,159,150,406,
0,457,514,162,148,425,
0,451,508,161,147,420,
0,446,503,159,146,415,
0,440,497,158,145,411,
0,436,492,156,144,407,
0,432,545,156,144,403,
0,472,537,154,143,399,
0,466,531,153,143,395,
0,461,523,152,141,391,
0,455,516,151,140,399,
0,451,511,151,140,396,
0,446,504,150,139,391,
0,440,499,148,137,387,
0,435,493,147,137,384,
0,431,487,146,135,380,
0,427,483,145,147,376,
0,465,478,144,145,372,
0,460,473,143,145,369,
0,455,467,143,143,366,
0,449,463,148,142,407,
0,444,457,147,141,402,
0,440,454,145,140,398,
0,434,449,144,139,393,
0,430,444,143,137,389,
0,425,440,142,147,385,
0,449,521,141,165,382,
0,472,515,140,163,377,
0,467,508,176,162,374,
0,462,500,182,160,371,
0,457,495,180,159,421,
0,451,489,179,158,416,
0,448,483,177,156,412,
0,441,479,176,155,408,
0,436,473,174,154,402,
0,432,468,172,161,399,
0,467,536,171,163,395,
0,462,529,169,163,391,
0,455,521,167,161,387,
0,451,515,167,159,384,
0,447,509,191,158,428,
0,441,504,188,157,423,
0,436,497,187,156,419,
0,431,492,185,154,414,
0,427,487,184,153,409,
0,423,529,182,175,404,
0,462,561,180,173,400,
0,455,553,179,171,396,
0,451,545,178,169,393,
0,447,539,176,167,390,
0,441,531,176,167,385,
0,436,526,174,166,382,
0,432,519,172,164,378,
0,427,513,172,163,375,
0,423,508,169,161,371,
0,419,574,167,179,367,
0,455,566,167,178,364,
0,449,559,166,176,360,
0,444,550,164,175,358,
0,440,543,163,173,401,
0,435,537,161,172,396,
0,430,531,160,171,391,
0,425,524,159,169,388,
0,420,519,158,167,384,
0,415,512,157,167,380,
0,412,569,156,193,376,
0,463,561,155,191,371,
0,458,554,153,190,368,
0,453,545,152,188,365,
0,448,539,152,185,379,
0,443,532,150,184,375,
0,439,527,149,183,371,
0,433,520,147,182,368,
0,428,515,147,180,364,
0,423,508,145,185,359,
0,470,570,144,209,356,
0,496,562,143,207,353,
0,490,555,143,205,350,
0,484,547,142,204,347,
0,480,540,140,201,344,
0,473,534,140,199,341,
0,468,527,139,198,338,
0,463,521,137,196,335,
0,457,515,135,195,332,
0,452,510,135,224,329,
0,536,575,135,223,326,
0,527,568,134,220,323,
0,521,561,133,219,321,
0,515,552,132,217,319,
0,510,546,143,215,361,
0,504,540,141,213,358,
0,498,533,140,211,353,
0,492,527,139,209,351,
0,486,520,137,207,347,
0,481,540,135,220,344,
0,536,545,135,217,339,
0,529,539,134,216,337,
0,523,532,150,215,334,
0,516,524,147,212,344,
0,511,518,146,210,355,
0,505,512,145,208,352,
0,499,507,143,207,348,
0,494,501,143,205,344,
0,487,496,141,204,342,
0,483,556,140,227,337,
0,527,548,139,224,334,
0,519,541,138,223,332,
0,514,535,137,221,327,
0,508,527,135,219,348,
0,502,519,135,217,344,
0,496,514,135,216,341,
0,491,508,134,214,338,
0,486,503,132,211,335,
0,480,497,131,210,332,
0,475,579,130,224,327,
0,531,571,129,222,324,
0,524,563,128,220,322,
0,518,556,128,217,319,
0,512,548,134,216,352,
0,507,541,132,214,348,
0,500,535,131,212,344,
0,495,528,130,210,340,
0,489,522,129,208,337,
0,483,516,127,209,335,
0,487,568,127,211,331,
0,508,560,126,210,327,
0,502,553,174,207,324,
0,496,546,172,206,321,
0,491,538,169,204,342,
0,484,531,167,203,338,
0,480,525,167,201,335,
0,475,519,166,199,332,
0,470,513,163,199,328,
0,463,508,162,217,325,
0,516,563,161,217,322,
0,509,555,159,216,319,
0,504,548,159,214,316,
0,497,542,157,211,313,
0,492,534,156,209,355,
0,487,527,155,207,352,
0,481,521,153,207,348,
0,476,515,152,205,345,
0,471,510,152,203,342,
0,464,514,150,206,338,
0,495,510,149,204,335,
0,489,504,147,203,332,
0,483,499,148,201,328,
0,478,493,147,199,349,
0,472,487,172,198,364,
0,467,481,170,196,359,
0,463,476,168,195,357,
0,457,472,167,193,353,
0,453,467,166,192,350,
0,448,571,164,198,345,
0,512,569,163,195,343,
0,505,561,161,194,339,
0,499,555,182,192,336,
0,494,547,184,191,376,
0,487,540,182,189,371,
0,483,533,180,188,368,
0,478,527,179,186,364,
0,472,520,177,184,360,
0,467,515,176,184,358,
0,461,598,175,194,353,
0,497,590,173,192,350,
0,491,582,172,191,347,
0,486,575,174,190,344,
0,480,568,173,188,386,
0,475,559,172,186,382,
0,470,551,169,185,377,
0,464,545,167,184,374,
0,460,539,167,182,370,
0,455,532,166,182,367,
0,481,582,164,190,362,
0,505,574,163,188,359,
0,500,567,167,187,355,
0,494,559,167,185,352,
0,488,552,177,184,395,
0,483,543,176,182,391,
0,478,537,175,180,387,
0,472,531,173,179,383,
0,467,526,172,178,379,
0,463,572,170,185,376,
0,532,674,168,185,370,
0,525,664,167,184,367,
0,519,655,166,182,364,
0,512,646,164,180,359,
0,507,638,175,179,399,
0,500,627,174,177,395,
0,496,619,172,176,391,
0,489,611,171,175,387,
0,484,604,169,174,384,
0,478,601,167,184,380,
0,505,593,166,182,375,
0,499,587,164,180,371,
0,494,579,163,179,368,
0,487,572,162,177,369,
0,483,567,173,176,377,
0,478,558,171,174,374,
0,472,551,169,172,370,
0,467,545,167,172,367,
0,463,540,167,171,363,
0,456,564,166,192,359,
0,511,557,163,191,355,
0,504,550,163,189,352,
0,498,543,161,188,349,
0,492,536,159,187,399,
0,487,531,159,184,395,
0,481,524,158,183,391,
0,476,518,157,181,387,
0,472,512,156,180,383,
0,466,507,154,179,379,
0,460,577,153,178,376,
0,492,569,152,176,371,
0,487,562,152,175,368,
0,481,556,151,174,364,
0,476,548,158,172,404,
0,470,542,156,172,399,
0,465,534,155,169,396,
0,460,527,153,167,391,
0,455,521,152,167,388,
0,451,515,152,167,385,
0,482,569,151,172,380,
0,504,561,148,171,376,
0,499,555,147,169,372,
0,494,547,147,167,369,
0,487,541,145,167,408,
0,482,535,144,166,403,
0,476,527,143,164,399,
0,472,519,142,163,396,
0,467,515,141,162,391,
0,462,568,140,177,388,
0,550,747,139,176,384,
0,542,734,137,175,380,
0,536,723,147,174,376,
0,529,712,146,172,372,
0,524,703,188,171,415,
0,517,690,185,169,411,
0,511,681,184,167,407,
0,505,671,182,167,403,
0,499,664,181,165,399,
0,494,664,179,176,395,
0,497,655,178,174,391,
0,492,647,176,173,386,
0,487,639,214,172,383,
0,481,630,211,170,397,
0,476,623,209,168,415,
0,471,614,207,167,411,
0,466,606,206,166,407,
0,462,599,204,164,403,
0,456,591,202,163,398,
0,452,626,200,167,395,
0,480,617,199,166,391,
0,473,608,196,164,385,
0,468,600,195,163,382,
0,463,593,193,162,402,
0,458,585,192,160,398,
0,453,577,191,159,393,
0,448,571,190,158,390,
0,444,564,188,157,385,
0,440,558,187,156,382,
0,435,622,185,161,378,
0,492,613,184,159,375,
0,486,604,182,159,371,
0,480,596,180,158,367,
0,475,589,179,156,405,
0,470,582,177,156,400,
0,464,572,176,154,396,
0,460,566,175,153,391,
0,455,559,174,152,388,
0,449,552,172,163,385,
0,446,563,171,181,381,
0,487,556,169,179,377,
0,483,550,167,178,372,
0,477,543,167,176,369,
0,472,537,166,175,403,
0,466,531,164,174,399,
0,462,524,163,172,395,
0,456,519,162,171,391,
0,451,513,161,169,387,
0,448,508,159,192,384,
0,448,561,159,190,379,
0,487,555,157,188,376,
0,481,547,220,187,371,
0,476,541,216,185,368,
0,471,535,214,184,422,
0,465,527,211,183,417,
0,460,519,210,180,413,
0,455,514,208,179,409,
0,450,508,207,177,404,
0,446,547,205,199,401,
0,494,566,203,196,396,
0,486,558,201,195,392,
0,480,551,199,193,388,
0,475,543,198,192,385,
0,470,537,196,190,381,
0,464,531,195,188,377,
0,460,524,193,187,374,
0,455,518,192,185,370,
0,449,511,190,184,367,
0,445,592,189,199,364,
0,504,583,187,197,359,
0,496,575,185,195,357,
0,489,568,184,194,353,
0,484,561,183,192,405,
0,479,555,182,191,399,
0,473,548,179,189,396,
0,468,540,178,188,391,
0,463,533,177,185,387,
0,458,527,176,184,384,
0,454,584,175,196,380,
0,494,575,173,195,376,
0,486,568,172,193,372,
0,480,561,170,192,368,
0,475,555,169,190,408,
0,470,547,167,188,403,
0,464,541,167,187,399,
0,460,534,166,185,395,
0,455,527,164,184,391,
0,449,521,163,184,387,
0,446,579,162,186,384,
0,492,572,160,184,380,
0,484,564,159,184,376,
0,479,557,159,182,371,
0,473,551,159,180,391,
0,468,543,159,179,388,
0,463,537,158,177,384,
0,458,529,156,176,380,
0,454,523,155,175,376,
0,449,517,153,177,374,
0,447,574,153,179,369,
0,487,567,152,177,366,
0,480,560,223,176,361,
0,475,552,220,175,359,
0,470,546,224,173,391,
0,463,539,222,172,387,
0,460,532,220,171,384,
0,455,525,217,169,380,
0,449,519,216,167,376,
0,445,553,214,177,372,
0,483,575,212,176,369,
0,476,569,210,174,365,
0,470,562,208,172,361,
0,464,555,207,171,387,
0,460,548,205,169,409,
0,454,541,203,167,405,
0,449,535,201,167,401,
0,444,527,199,166,396,
0,440,520,199,164,392,
0,435,547,197,181,389,
0,527,540,195,179,385,
0,519,533,194,177,382,
0,512,527,194,176,377,
0,506,519,192,175,419,
0,500,514,191,174,414,
0,495,508,190,172,409,
0,489,504,188,171,405,
0,484,496,187,169,401,
0,479,492,185,167,396,
0,473,553,184,182,393,
0,509,546,183,180,389,
0,503,539,181,179,385,
0,496,532,183,177,380,
0,489,526,219,176,422,
0,484,519,227,175,417,
0,480,513,224,173,413,
0,474,508,223,172,408,
0,468,500,220,170,404,
0,463,495,219,169,400,
0,460,555,216,179,396,
0,507,547,216,178,391,
0,500,540,213,176,388,
0,494,534,211,175,384,
0,487,527,228,174,380,
0,482,521,226,172,376,
0,477,515,224,171,373,
0,472,509,222,169,370,
0,467,502,220,167,367,
0,462,496,219,177,363,
0,465,551,216,176,359,
0,507,543,215,176,356,
0,500,536,213,174,353,
0,493,529,211,172,350,
0,487,524,209,171,384,
0,482,518,207,169,380,
0,477,511,206,168,376,
0,472,505,204,167,371,
0,467,498,203,166,368,
0,462,536,201,185,365,
0,521,565,199,184,361,
0,517,558,198,182,358,
0,510,551,196,180,355,
0,504,543,194,179,359,
0,497,536,193,177,372,
0,492,531,192,176,369,
0,487,524,190,174,365,
0,481,518,188,173,361,
0,476,511,187,171,358,
0,472,575,185,186,355,
0,504,567,184,184,352,
0,497,560,183,183,348,
0,489,552,182,181,345,
0,484,545,179,179,390,
0,479,539,199,178,385,
0,473,532,199,176,381,
0,468,526,196,176,377,
0,463,519,195,174,374,
0,459,512,193,172,369,
0,454,551,192,195,366,
0,494,543,191,193,363,
0,487,536,189,192,359,
0,481,530,188,190,356,
0,476,524,185,188,407,
0,471,518,184,187,401,
0,465,512,183,185,397,
0,460,505,181,184,393,
0,455,499,179,183,389,
0,451,493,179,181,385,
0,447,551,177,185,382,
0,515,543,176,184,377,
0,508,537,174,183,375,
0,501,531,173,182,371,
0,496,524,172,180,419,
0,489,518,171,179,415,
0,484,512,169,177,411,
0,480,506,167,176,407,
0,473,500,167,175,403,
0,468,494,166,179,399,
0,463,568,164,184,394,
0,486,561,163,183,391,
0,480,554,163,182,387,
0,473,547,161,179,384,
0,468,540,159,179,422,
0,463,534,159,177,417,
0,458,527,158,176,413,
0,454,521,156,175,408,
0,448,513,156,173,404,
0,444,508,155,182,400,
0,517,503,153,179,396,
0,510,497,152,178,392,
0,504,492,152,177,389,
0,496,487,150,176,385,
0,491,481,150,174,427,
0,486,476,148,172,423,
0,480,472,147,172,418,
0,475,467,147,169,414,
0,470,462,145,169,409,
0,464,529,144,179,406,
0,508,521,143,177,401,
0,502,515,143,176,397,
0,496,509,147,174,393,
0,487,504,145,173,399,
0,483,497,145,172,426,
0,478,492,143,171,422,
0,472,487,143,168,417,
0,467,480,142,167,412,
0,462,473,140,166,408,
0,457,543,140,179,404,
0,487,536,139,177,400,
0,482,529,137,176,397,
0,476,524,140,175,393,
0,470,517,139,174,441,
0,464,511,158,172,434,
0,460,505,156,171,430,
0,455,499,155,169,425,
0,449,494,153,167,420,
0,445,487,152,167,416,
0,440,572,152,179,412,
0,504,563,150,177,408,
0,498,556,177,176,403,
0,492,549,201,174,399,
0,485,543,215,172,430,
0,480,536,212,171,423,
0,475,529,210,169,419,
0,469,523,208,168,415,
0,463,516,207,167,411,
0,459,510,205,166,407,
0,460,565,204,172,403,
0,489,557,201,171,399,
0,483,551,199,169,395,
0,479,543,198,167,391,
0,472,536,196,167,387,
0,466,531,195,165,384,
0,461,524,193,163,380,
0,455,518,192,163,376,
0,451,512,190,161,372,
0,447,549,188,163,369,
0,495,572,187,163,366,
0,487,565,185,162,363,
0,483,558,184,161,359,
0,477,551,183,159,356,
0,471,543,181,159,409,
0,465,537,179,158,403,
0,460,531,179,156,399,
0,455,525,177,156,396,
0,450,519,176,155,391,
0,446,526,174,175,388,
0,505,519,173,172,384,
0,499,513,172,171,380,
0,493,507,171,169,376,
0,487,502,169,167,384,
0,480,496,167,167,417,
0,476,491,167,166,412,
0,470,486,165,164,408,
0,465,480,163,163,403,
0,460,475,163,162,399,
0,455,543,161,175,396,
0,492,536,160,173,391,
0,486,529,159,172,387,
0,480,523,193,170,384,
0,475,516,192,169,419,
0,467,510,189,167,414,
0,463,504,188,166,408,
0,457,499,186,165,403,
0,452,493,184,163,399,
0,448,487,184,162,396,
0,444,577,182,176,391,
0,532,569,180,175,388,
0,526,562,179,173,384,
0,519,555,177,172,381,
0,513,548,176,170,401,
0,506,542,174,168,396,
0,500,536,173,167,391,
0,495,529,172,167,387,
0,489,523,171,165,384,
0,484,516,169,163,380,
0,479,536,167,169,376,
0,489,529,167,167,372,
0,484,524,165,167,369,
0,479,517,163,165,366,
0,473,511,163,163,414,
0,467,505,162,163,409,
0,462,499,160,161,403,
0,457,494,159,159,399,
0,452,488,158,159,395,
0,448,483,157,160,391,
0,481,546,156,160,387,
0,476,539,155,159,384,
0,470,532,154,158,380,
0,465,526,153,156,376,
0,460,519,159,156,420,
0,454,513,158,155,415,
0,448,508,156,153,411,
0,444,502,155,152,406,
0,440,496,153,152,402,
0,435,517,152,169,398,
0,468,571,152,167,393,
0,463,563,151,166,390,
0,458,556,151,164,386,
0,452,549,150,163,391,
0,448,542,196,161,425,
0,442,536,193,160,420,
0,437,529,192,159,415,
0,433,523,190,158,412,
0,429,518,188,156,408,
0,425,607,187,169,403,
0,455,604,185,167,399,
0,449,595,184,167,396,
0,444,588,183,165,391,
0,440,580,180,163,436,
0,435,573,179,163,430,
0,429,567,177,161,424,
0,424,560,176,159,420,
0,421,552,175,159,415,
0,417,546,173,158,412,
0,413,540,172,175,408,
0,484,532,171,173,403,
0,479,527,169,172,399,
0,473,519,172,170,396,
0,467,515,171,168,435,
0,463,508,169,167,430,
0,455,504,167,166,423,
0,451,497,166,164,419,
0,447,492,164,163,415,
0,441,487,163,163,412,
0,447,564,162,183,408,
0,492,555,161,180,403,
0,486,547,174,179,399,
0,481,540,176,177,396,
0,476,534,174,176,429,
0,470,527,172,175,423,
0,463,521,171,174,419,
0,459,515,169,172,414,
0,454,510,167,171,409,
0,449,504,167,179,406,
0,497,540,166,179,401,
0,491,531,164,178,398,
0,485,526,163,176,393,
0,480,519,161,175,390,
0,474,513,159,174,396,
0,467,507,159,172,392,
0,462,500,158,171,387,
0,457,496,156,169,384,
0,452,490,155,167,380,
0,448,512,153,181,377,
0,492,550,152,179,374,
0,486,540,152,177,370,
0,480,534,151,176,367,
0,474,527,150,174,370,
0,469,521,151,173,403,
0,463,515,150,172,399,
0,457,509,147,171,393,
0,452,504,147,169,390,
0,448,497,145,167,386,
0,444,562,144,184,382,
0,483,553,143,182,379,
0,478,543,143,179,375,
0,472,537,142,178,371,
0,467,531,141,176,414,
0,462,525,140,175,408,
0,455,519,139,174,404,
0,451,513,137,172,399,
0,446,507,136,171,395,
0,441,500,135,169,391,
0,436,556,135,172,387,
0,483,548,134,171,384,
0,478,540,135,168,380,
0,472,532,144,167,376,
0,466,527,143,166,427,
0,462,519,142,164,422,
0,455,514,141,163,417,
0,450,508,140,162,412,
0,446,503,139,161,408,
0,440,497,137,160,403,
0,457,556,135,180,399,
0,506,549,135,178,395,
0,499,540,135,176,391,
0,494,534,135,175,387,
0,488,527,134,174,430,
0,483,521,132,172,424,
0,476,515,131,171,420,
0,472,508,131,169,415,
0,466,503,129,167,410,
0,461,497,129,174,406,
0,489,555,127,176,402,
0,483,545,127,175,398,
0,478,539,155,172,394,
0,472,532,153,171,391,
0,467,526,152,169,424,
0,462,519,151,168,420,
0,455,513,150,167,415,
0,451,508,147,166,411,
0,446,502,147,165,406,
0,441,515,145,179,402,
0,495,545,144,176,398,
0,487,536,143,175,394,
0,483,529,142,174,390,
0,478,524,141,172,399,
0,472,517,154,171,430,
0,467,511,152,169,425,
0,460,505,152,167,420,
0,455,499,150,167,415,
0,451,494,148,166,411,
0,447,552,147,177,407,
0,479,545,146,175,403,
0,472,536,147,174,399,
0,467,529,239,172,395,
0,462,523,236,171,448,
0,457,517,233,169,441,
0,452,511,231,167,436,
0,446,505,229,167,432,
0,441,499,227,165,426,
0,437,494,225,164,422,
0,433,564,224,175,417,
0,476,556,222,173,414,
0,470,547,220,172,409,
0,465,540,217,169,406,
0,460,534,216,168,448,
0,455,527,214,167,443,
0,450,521,212,166,438,
0,444,515,211,164,433,
0,440,509,209,163,428,
0,435,504,207,162,423,
0,440,554,206,174,419,
0,480,547,204,172,415,
0,474,538,203,171,411,
0,468,531,200,169,407,
0,463,525,199,167,441,
0,458,519,198,167,436,
0,454,512,196,165,432,
0,448,507,195,163,427,
0,443,501,193,162,422,
0,438,496,192,184,417,
0,487,564,190,185,413,
0,480,558,188,184,408,
0,475,548,187,183,404,
0,470,542,185,181,401,
0,464,536,184,179,449,
0,459,529,184,177,444,
0,454,523,182,176,440,
0,448,517,180,175,435,
0,444,511,179,174,429,
0,440,523,177,193,424,
0,495,543,176,192,420,
0,487,537,175,190,415,
0,483,529,174,188,412,
0,477,523,172,186,409,
0,472,516,171,184,455,
0,467,511,169,183,449,
0,462,504,168,182,444,
0,455,499,167,180,440,
0,450,493,166,179,434,
0,446,553,165,195,430,
0,487,545,163,193,425,
0,482,539,163,192,421,
0,477,531,161,190,417,
0,472,524,159,188,459,
0,466,518,159,187,456,
0,461,512,158,185,451,
0,455,505,157,184,447,
0,450,499,156,183,441,
0,446,495,155,181,436,
0,440,536,153,195,432,
0,489,528,152,193,427,
0,483,521,152,192,423,
0,478,514,150,190,419,
0,472,508,153,188,475,
0,467,502,153,186,468,
0,462,496,152,184,463,
0,457,491,151,184,459,
0,451,486,149,182,453,
0,446,480,148,180,448,
0,459,551,147,190,443,
0,499,543,146,188,438,
0,492,537,157,187,433,
0,487,528,156,185,429,
0,481,523,179,184,425,
0,476,516,177,183,422,
0,471,510,176,181,417,
0,465,504,174,179,413,
0,460,499,172,178,409,
0,455,493,171,182,404,
0,507,533,169,184,400,
0,501,526,167,183,396,
0,496,519,187,182,393,
0,489,512,185,179,390,
0,484,506,184,178,408,
0,479,500,182,176,404,
0,473,495,180,176,399,
0,468,489,179,174,396,
0,462,483,177,172,391,
0,457,511,176,188,387,
0,499,560,174,187,384,
0,492,551,173,184,380,
0,487,545,172,184,377,
0,481,536,170,182,381,
0,476,530,168,180,417,
0,471,524,167,179,413,
0,465,518,166,177,408,
0,460,512,165,176,404,
0,455,505,163,175,399,
0,450,582,162,184,396,
0,487,575,161,183,391,
0,480,568,159,182,387,
0,475,561,158,179,384,
0,470,551,157,178,402,
0,463,545,172,176,397,
0,459,539,170,176,393,
0,454,532,168,174,389,
0,449,527,167,172,385,
0,444,520,166,171,381,
0,440,585,164,199,377,
0,491,577,163,197,374,
0,484,569,162,195,370,
0,480,563,161,193,367,
0,473,553,159,192,419,
0,468,547,158,190,414,
0,463,540,157,188,409,
0,458,534,156,187,404,
0,453,527,155,185,401,
0,448,521,153,184,396,
0,449,578,152,199,391,
0,494,570,151,199,388,
0,487,563,150,196,384,
0,482,556,148,195,380,
0,476,547,156,193,412,
0,472,540,155,192,408,
0,466,535,153,190,403,
0,462,527,152,188,399,
0,455,521,151,187,395,
0,450,516,150,189,391,
0,503,547,148,187,386,
0,504,540,147,185,383,
0,498,532,146,184,379,
0,492,527,145,183,376,
0,487,519,143,182,415,
0,481,512,143,180,411,
0,476,507,142,179,408,
0,472,501,141,177,403,
0,464,496,140,176,399,
0,460,515,139,186,393,
0,494,555,137,184,390,
0,487,547,136,183,386,
0,483,540,162,182,383,
0,477,534,160,179,379,
0,472,526,159,178,419,
0,466,519,158,176,415,
0,462,513,156,175,411,
0,456,508,155,174,407,
0,451,502,153,172,402,
0,446,568,152,177,397,
0,472,560,151,176,393,
0,467,552,150,175,390,
0,462,545,148,173,385,
0,456,539,147,172,436,
0,451,531,185,169,433,
0,447,524,184,168,428,
0,442,519,182,167,423,
0,438,512,180,167,419,
0,432,507,179,165,415,
0,428,551,177,188,410,
0,465,543,176,185,406,
0,460,536,174,184,402,
0,455,530,173,182,398,
0,449,524,171,180,428,
0,444,515,169,179,423,
0,440,510,167,177,419,
0,435,504,167,176,414,
0,431,498,166,175,409,
0,425,492,164,174,406,
0,425,540,163,189,400,
0,472,531,161,187,396,
0,466,526,160,185,393,
0,461,519,159,184,389,
0,455,513,158,183,385,
0,451,505,157,180,382,
0,446,499,156,179,378,
0,441,494,155,178,375,
0,436,487,153,176,371,
0,431,483,152,185,368,
0,508,533,151,190,364,
0,519,526,150,188,359,
0,513,519,148,187,358,
0,508,513,169,185,354,
0,502,505,167,184,352,
0,496,500,167,182,348,
0,491,494,165,180,345,
0,485,488,163,179,343,
0,480,483,162,177,340,
0,473,487,161,189,337,
0,507,521,159,187,334,
0,500,515,158,185,331,
0,494,508,157,184,327,
0,488,503,156,182,333,
0,483,496,155,181,371,
0,478,489,153,179,368,
0,472,484,152,177,364,
0,467,479,151,176,359,
0,463,473,150,175,356,
0,456,540,148,186,353,
0,489,532,147,184,349,
0,483,525,145,184,345,
0,478,519,147,182,343,
0,472,513,145,180,383,
0,467,505,145,179,377,
0,462,499,144,177,374,
0,457,494,143,176,369,
0,452,487,142,174,366,
0,448,483,141,173,362,
0,442,556,140,194,359,
0,487,548,139,192,355,
0,483,542,137,191,352,
0,476,535,136,189,348,
0,472,527,148,188,401,
0,466,520,150,185,396,
0,461,515,148,184,391,
0,455,508,147,183,388,
0,451,503,145,181,384,
0,447,497,144,179,381,
0,452,551,143,185,377,
0,495,543,142,184,372,
0,488,536,140,182,369,
0,483,530,140,180,366,
0,478,524,152,179,406,
0,472,516,151,177,401,
0,467,510,149,176,396,
0,462,504,147,175,393,
0,457,498,147,173,388,
0,452,493,145,192,385,
0,518,580,143,199,381,
0,514,572,143,196,376,
0,508,566,143,195,373,
0,502,558,142,193,369,
0,496,551,143,192,385,
0,491,543,143,191,381,
0,486,536,142,188,377,
0,480,530,140,187,374,
0,475,524,140,185,370,
0,470,541,139,198,367,
0,511,559,136,196,363,
0,505,551,135,195,359,
0,499,545,135,193,355,
0,493,539,134,192,353,
0,487,531,134,190,391,
0,482,524,132,188,388,
0,477,518,131,187,384,
0,472,512,131,185,380,
0,467,507,129,184,376,
0,462,580,129,190,372,
0,500,571,127,188,369,
0,494,563,127,187,365,
0,488,556,126,185,361,
0,483,550,126,184,400,
0,478,543,126,182,395,
0,472,535,125,180,391,
0,467,528,124,179,387,
0,462,523,124,178,384,
0,457,516,123,176,380,
0,453,574,121,202,376,
0,506,566,120,199,372,
0,499,559,120,199,368,
0,494,551,133,197,364,
0,487,545,134,195,415,
0,483,539,135,193,411,
0,478,531,135,192,406,
0,472,524,134,191,401,
0,467,519,132,189,398,
0,462,512,131,188,394,
0,457,558,131,190,390,
0,515,550,129,188,386,
0,508,543,129,187,382,
0,502,536,129,185,377,
0,496,530,164,184,412,
0,491,524,163,182,408,
0,486,516,161,180,403,
0,480,510,159,179,399,
0,475,504,158,177,395,
0,470,499,157,179,391,
0,465,552,156,179,387,
0,495,545,154,178,384,
0,489,539,210,176,380,
0,483,531,207,175,376,
0,479,526,205,174,427,
0,473,519,204,172,423,
0,467,512,201,171,417,
0,463,505,199,169,414,
0,457,499,199,168,409,
0,454,536,197,169,406,
0,486,588,195,167,401,
0,492,580,193,167,396,
0,486,572,192,166,392,
0,480,566,190,164,388,
0,475,559,188,163,403,
0,470,551,187,162,399,
0,464,543,185,160,395,
0,460,537,184,159,391,
0,455,531,183,158,387,
0,450,591,181,159,384,
0,510,583,179,158,380,
0,502,575,178,156,376,
0,496,568,177,155,371,
0,491,561,176,154,430,
0,485,553,174,153,428,
0,480,547,172,152,423,
0,475,539,172,151,419,
0,469,532,170,150,415,
0,463,527,168,148,411,
0,460,583,167,162,407,
0,505,575,167,160,403,
0,497,568,165,159,398,
0,492,560,163,158,394,
0,487,553,186,157,419,
0,480,547,187,156,415,
0,476,540,185,154,411,
0,470,531,184,152,407,
0,465,526,182,152,402,
0,460,519,180,151,398,
0,455,573,179,161,394,
0,499,565,177,160,390,
0,492,558,176,159,385,
0,487,551,174,158,382,
0,481,543,199,156,422,
0,476,537,196,155,417,
0,470,531,195,153,413,
0,465,524,193,152,408,
0,460,518,192,152,404,
0,455,512,190,159,400,
0,451,575,188,159,396,
0,470,568,187,158,392,
0,463,561,185,157,387,
0,457,554,184,156,384,
0,452,547,183,155,431,
0,448,540,181,153,426,
0,443,534,179,152,422,
0,439,526,178,151,417,
0,434,519,177,150,412,
0,430,535,176,167,408,
0,476,563,174,166,404,
0,486,556,173,165,400,
0,480,549,193,163,396,
0,474,542,192,162,391,
0,469,536,190,161,432,
0,463,529,188,159,428,
0,459,523,186,158,423,
0,454,515,184,157,419,
0,449,510,184,156,415,
0,444,547,182,163,411,
0,504,540,180,162,407,
0,496,533,179,160,402,
0,490,527,177,159,398,
0,484,520,176,158,440,
0,480,514,175,157,434,
0,473,508,173,156,429,
0,468,503,172,154,424,
0,463,496,170,152,420,
0,459,489,169,152,415,
0,455,568,167,184,412,
0,510,561,167,183,408,
0,502,553,166,181,403,
0,496,547,163,179,399,
0,491,540,184,178,440,
0,486,534,185,176,435,
0,480,527,184,175,431,
0,475,521,182,174,425,
0,470,514,180,172,422,
0,464,508,179,171,417,
0,460,569,177,179,413,
0,515,561,176,177,408,
0,507,555,175,176,405,
0,501,547,181,174,399,
0,496,540,179,173,396,
0,489,534,178,172,391,
0,484,527,176,170,388,
0,479,521,175,169,384,
0,473,513,174,167,381,
0,468,508,172,174,377,
0,463,545,171,176,374,
0,510,539,169,175,371,
0,503,531,167,174,368,
0,497,525,167,172,364,
0,492,519,166,171,411,
0,486,513,164,169,407,
0,480,507,163,167,401,
0,475,499,161,167,398,
0,470,495,160,166,393,
0,465,500,159,197,390,
0,505,527,158,194,386,
0,508,520,156,192,383,
0,500,514,188,191,379,
0,495,508,185,189,385,
0,489,502,209,188,420,
0,483,496,207,186,415,
0,478,491,206,185,412,
0,473,483,204,184,408,
0,467,479,201,182,403,
0,463,505,199,192,399,
0,519,499,199,190,396,
0,513,493,197,188,391,
0,505,487,209,187,387,
0,500,481,206,185,428,
0,494,476,205,184,423,
0,489,472,203,182,418,
0,483,466,201,180,414,
0,478,460,199,179,409,
0,473,455,198,177,406,
0,468,515,196,182,401,
0,504,508,195,179,397,
0,498,502,193,178,393,
0,491,496,192,177,390,
0,486,491,201,176,432,
0,480,485,212,174,427,
0,475,480,211,173,423,
0,470,474,209,172,418,
0,463,467,207,170,414,
0,459,463,206,169,409,
0,455,528,204,170,406,
0,518,521,201,169,401,
0,511,515,200,167,398,
0,504,508,198,167,393,
0,499,503,196,165,444,
0,492,496,195,163,440,
0,487,491,193,163,435,
0,482,486,192,161,430,
0,476,479,191,160,425,
0,472,473,189,165,422,
0,467,518,188,167,417,
0,473,511,186,167,413,
0,467,504,184,166,408,
0,461,499,183,164,404,
0,456,493,187,163,423,
0,451,487,184,161,419,
0,447,481,184,160,414,
0,443,476,182,159,409,
0,438,470,180,158,406,
0,433,494,179,175,401,
0,457,526,177,172,398,
0,468,519,176,172,393,
0,463,513,175,170,391,
0,457,507,174,168,387,
0,452,500,172,167,419,
0,448,495,171,166,415,
0,442,489,169,164,411,
0,438,483,167,163,406,
0,433,477,167,162,402,
0,429,552,166,165,398,
0,463,543,164,163,395,
0,459,537,163,162,391,
0,454,531,182,161,387,
0,448,524,179,159,384,
0,443,518,178,159,415,
0,438,512,177,157,412,
0,433,506,175,156,408,
0,428,500,174,155,403,
0,424,493,172,153,399,
0,420,596,171,180,395,
0,457,588,169,179,391,
0,452,580,167,177,387,
0,448,572,167,175,384,
0,441,566,180,174,388,
0,436,559,192,172,384,
0,432,551,191,171,380,
0,427,545,189,169,376,
0,423,539,188,168,372,
0,419,531,186,167,369,
0,415,527,184,182,366,
0,446,521,183,180,363,
0,441,515,188,179,359,
0,436,510,227,177,356,
0,431,504,225,176,390,
0,425,499,223,174,385,
0,422,493,221,173,381,
0,417,487,219,172,377,
0,413,483,217,170,373,
0,409,476,216,184,370,
0,406,530,214,188,366,
0,451,523,211,187,363,
0,447,516,210,184,359,
0,441,510,208,183,355,
0,435,504,206,182,385,
0,431,499,204,179,381,
0,427,492,203,179,377,
0,422,487,201,177,373,
0,417,481,199,176,369,
0,414,499,199,196,366,
0,449,535,196,194,363,
0,462,527,195,192,359,
0,455,521,193,191,355,
0,451,515,192,190,352,
0,444,508,191,188,371,
0,440,503,189,187,368,
0,435,497,188,185,364,
0,431,492,186,184,359,
0,427,486,184,182,357,
0,422,547,184,202,353,
0,470,539,182,199,350,
0,463,531,180,198,347,
0,459,526,179,196,344,
0,454,519,178,195,342,
0,448,513,176,193,363,
0,443,507,175,192,359,
0,438,501,174,190,355,
0,433,496,172,188,352,
0,429,489,171,187,349,
0,425,601,170,199,345,
0,467,592,168,198,343,
0,460,584,167,196,339,
0,455,577,167,195,336,
0,451,571,166,193,368,
0,444,563,164,192,361,
0,440,556,163,190,359,
0,435,550,162,189,355,
0,431,543,161,187,352,
0,426,537,159,185,348,
0,422,592,159,205,344,
0,496,584,158,203,342,
0,491,577,156,201,404,
0,485,569,211,199,411,
0,480,563,208,198,409,
0,472,556,206,196,403,
0,467,549,204,195,399,
0,463,543,202,193,396,
0,457,536,200,192,391,
0,452,529,199,190,387,
0,448,591,198,214,384,
0,496,583,195,211,380,
0,491,575,194,210,376,
0,486,568,193,208,373,
0,480,561,192,207,391,
0,472,555,189,205,387,
0,467,548,188,204,384,
0,463,542,186,201,379,
0,457,536,184,199,376,
0,453,529,184,199,371,
0,489,563,182,199,368,
0,496,556,180,199,365,
0,491,548,179,197,361,
0,486,542,178,195,358,
0,479,536,177,194,357,
0,473,529,175,192,353,
0,467,523,174,191,350,
0,463,517,172,190,347,
0,457,511,171,188,344,
0,453,517,169,193,340,
0,496,561,167,192,337,
0,489,554,167,190,335,
0,484,547,167,188,332,
0,479,540,165,187,329,
0,472,534,163,185,372,
0,467,527,163,184,368,
0,462,521,161,183,364,
0,456,515,159,182,359,
0,451,510,159,179,356,
0,448,571,158,185,353,
0,495,563,156,184,350,
0,488,556,156,183,347,
0,483,549,198,180,344,
0,478,542,195,179,369,
0,472,536,193,178,366,
0,466,529,192,176,361,
0,461,523,190,176,358,
0,455,517,188,174,355,
0,451,511,187,173,352,
0,447,567,185,196,348,
0,497,557,184,194,344,
0,491,550,183,192,342,
0,486,543,180,191,338,
0,480,536,179,190,359,
0,473,530,178,188,355,
0,468,524,176,187,350,
0,463,518,175,184,347,
0,457,512,174,184,344,
0,453,506,172,182,340,
0,449,604,171,201,337,
0,502,593,169,199,334,
0,496,585,167,197,331,
0,489,578,167,195,327,
0,484,571,166,193,352,
0,478,563,164,192,348,
0,472,557,163,191,344,
0,467,550,161,189,340,
0,462,543,160,188,337,
0,457,537,159,204,334,
0,513,606,158,206,331,
0,513,597,157,203,327,
0,507,590,239,201,325,
0,500,582,236,199,322,
0,496,575,233,198,377,
0,487,568,231,196,372,
0,483,560,229,195,368,
0,478,554,227,193,364,
0,472,547,225,192,361,
0,467,555,224,201,358,
0,511,620,222,199,354,
0,504,611,220,198,351,
0,499,604,218,196,348,
0,493,595,216,195,344,
0,487,588,215,193,341,
0,481,581,212,192,338,
0,476,574,211,190,334,
0,471,567,209,188,332,
0,465,560,207,187,327,
0,460,583,206,195,326,
0,513,572,204,193,323,
0,507,566,203,191,319,
0,500,559,200,190,318,
0,495,551,199,188,346,
0,489,545,198,187,344,
0,482,539,196,185,339,
0,477,532,195,184,335,
0,472,527,193,182,332,
0,467,520,192,181,329,
0,462,595,190,184,326,
0,491,584,188,182,323,
0,484,577,188,180,319,
0,480,570,186,179,318,
0,473,563,184,177,359,
0,468,556,184,176,355,
0,462,549,182,175,352,
0,457,542,180,174,348,
0,452,536,179,172,344,
0,448,529,177,171,341,
0,444,604,176,179,337,
0,470,593,175,178,335,
0,464,585,174,176,332,
0,460,577,172,174,327,
0,454,571,171,173,385,
0,449,563,169,172,381,
0,444,556,167,171,377,
0,439,550,167,169,372,
0,434,543,167,167,368,
0,430,537,164,172,365,
0,475,571,163,181,361,
0,475,561,162,179,358,
0,469,555,161,177,355,
0,463,547,160,176,352,
0,459,542,159,175,396,
0,454,535,158,174,391,
0,448,528,156,172,388,
0,443,523,156,171,384,
0,439,516,155,169,380,
0,433,526,153,172,376,
0,492,582,152,171,371,
0,487,572,152,169,368,
0,480,566,151,167,365,
0,475,558,182,167,361,
0,470,551,179,165,388,
0,464,544,179,164,384,
0,459,537,176,163,380,
0,454,531,175,161,376,
0,448,526,174,160,371,
0,444,580,172,163,368,
0,499,572,171,161,364,
0,492,563,169,159,361,
0,487,556,167,158,358,
0,481,548,167,158,399,
0,476,542,166,156,400,
0,471,536,164,155,396,
0,464,529,162,154,391,
0,460,523,161,153,387,
0,455,517,159,152,384,
0,450,569,159,169,380,
0,512,561,158,167,376,
0,507,553,156,166,372,
0,500,546,155,164,369,
0,495,540,154,163,403,
0,489,532,152,162,399,
0,483,526,152,160,395,
0,476,519,150,159,391,
0,472,514,149,158,385,
0,466,508,148,157,382,
0,462,569,147,183,378,
0,494,561,146,182,375,
0,487,552,147,179,371,
0,483,545,146,178,368,
0,477,539,149,177,388,
0,472,532,147,176,384,
0,467,526,146,174,380,
0,460,519,144,172,376,
0,455,514,143,171,372,
0,451,508,143,171,368,
0,483,560,142,171,365,
0,483,551,140,169,361,
0,478,543,140,167,359,
0,472,537,170,167,355,
0,467,530,168,165,399,
0,462,524,167,163,396,
0,457,518,166,163,391,
0,451,512,164,161,387,
0,446,506,163,159,384,
0,441,507,161,183,380,
0,492,537,159,181,376,
0,486,530,159,179,371,
0,480,522,158,177,368,
0,475,515,156,176,365,
0,470,510,165,175,396,
0,463,504,163,174,391,
0,459,498,162,172,387,
0,452,492,160,171,383,
0,448,487,159,169,379,
0,444,556,158,176,376,
0,494,547,156,174,371,
0,487,540,155,172,368,
0,481,531,153,171,364,
0,476,525,152,169,396,
0,471,519,152,167,401,
0,465,512,150,167,397,
0,460,507,149,166,393,
0,454,501,147,164,388,
0,449,496,147,163,384,
0,445,543,145,172,380,
0,499,536,144,170,376,
0,492,529,143,168,373,
0,487,521,143,167,369,
0,481,515,142,166,405,
0,476,509,140,164,400,
0,471,503,140,163,396,
0,465,497,139,162,391,
0,460,492,137,160,387,
0,455,487,135,159,384,
0,453,542,135,197,380,
0,504,534,135,195,376,
0,497,527,135,193,372,
0,492,519,135,192,369,
0,486,513,134,190,401,
0,481,508,133,188,396,
0,476,502,132,187,391,
0,470,496,131,185,388,
0,463,490,130,184,384,
0,459,484,129,184,380,
0,494,565,127,186,376,
0,496,557,127,184,372,
0,491,551,139,184,369,
0,485,542,137,182,365,
0,480,536,172,180,371,
0,474,528,170,179,368,
0,469,523,168,177,364,
0,463,516,167,176,361,
0,457,511,165,175,357,
0,453,521,163,181,354,
0,486,575,163,179,351,
0,480,567,161,178,348,
0,475,560,159,177,344,
0,470,551,159,175,341,
0,463,544,157,174,380,
0,459,537,156,172,376,
0,454,531,155,171,371,
0,448,525,153,169,368,
0,444,519,152,168,363,
0,440,575,151,182,359,
0,468,569,150,180,356,
0,463,563,148,179,353,
0,458,556,147,177,350,
0,453,546,146,176,372,
0,448,540,145,174,368,
0,444,534,143,172,364,
0,439,527,143,171,361,
0,433,521,142,169,358,
0,429,515,140,167,353,
0,424,575,140,176,350,
0,480,568,139,174,347,
0,473,561,137,172,344,
0,468,553,166,172,340,
0,463,545,164,169,391,
0,458,539,163,167,387,
0,453,532,161,167,383,
0,448,526,159,166,379,
0,442,519,159,164,375,
0,438,513,158,163,370,
0,441,585,156,176,367,
0,502,576,155,174,363,
0,496,569,153,173,359,
0,491,562,152,172,356,
0,484,553,163,170,374,
0,480,547,161,168,369,
0,474,540,159,167,366,
0,468,534,159,166,362,
0,463,527,157,165,359,
0,457,521,156,175,355,
0,487,534,155,179,352,
0,487,527,153,177,348,
0,481,521,152,176,344,
0,476,513,151,175,342,
0,472,508,150,172,372,
0,465,502,148,171,368,
0,460,496,147,169,364,
0,455,491,146,168,361,
0,449,486,145,167,358,
0,445,503,143,174,353,
0,494,557,142,172,350,
0,487,550,141,171,347,
0,482,543,193,169,344,
0,476,534,191,167,340,
0,472,527,188,167,374,
0,465,521,187,165,370,
0,460,515,185,163,367,
0,455,510,184,163,363,
0,449,504,183,161,359,
0,446,564,180,192,355,
0,495,557,179,190,352,
0,487,550,177,188,348,
0,483,543,176,187,345,
0,477,535,175,185,368,
0,472,528,173,183,369,
0,467,522,172,182,365,
0,462,516,171,179,361,
0,456,510,169,179,358,
0,451,504,167,177,355,
0,446,580,167,194,350,
0,495,572,165,192,347,
0,488,564,176,190,344,
0,483,558,177,188,340,
0,477,548,175,188,352,
0,472,542,174,185,348,
0,467,536,172,184,344,
0,462,529,171,183,341,
0,456,523,169,181,338,
0,451,517,167,179,335,
0,448,579,167,204,331,
0,499,571,165,202,327,
0,492,563,163,199,326,
0,487,556,163,199,323,
0,481,548,161,197,332,
0,476,541,160,195,329,
0,472,535,159,193,326,
0,466,527,158,192,323,
0,461,522,156,191,319,
0,455,516,156,211,318,
0,491,580,154,216,314,
0,495,572,152,215,312,
0,489,564,152,212,309,
0,483,558,151,211,307,
0,478,549,150,209,316,
0,472,542,148,207,312,
0,467,536,147,205,310,
0,463,529,146,204,307,
0,457,523,145,202,304,
0,451,534,143,216,302,
0,491,584,143,214,299,
0,484,576,142,212,296,
0,479,569,141,211,295,
0,473,562,140,209,292,
0,468,553,139,207,291,
0,463,547,137,205,289,
0,457,540,136,204,287,
0,453,534,135,202,285,
0,448,527,135,199,283,
0,443,596,134,223,280,
0,486,599,132,220,278,
0,480,590,131,219,276,
0,475,583,181,216,274,
0,469,575,179,215,294,
0,463,567,177,213,299,
0,459,560,176,211,295,
0,454,552,175,209,294,
0,448,546,173,207,291,
0,444,540,172,206,287,
0,439,610,169,211,286,
0,504,600,167,208,283,
0,497,593,167,207,280,
0,492,585,166,205,278,
0,487,578,164,204,313,
0,481,569,163,201,310,
0,476,563,161,199,306,
0,471,556,160,199,304,
0,465,549,159,197,301,
0,460,542,158,195,298,
0,454,591,156,203,295,
0,491,583,155,201,291,
0,485,575,154,199,289,
0,480,568,153,198,287,
0,474,561,176,196,329,
0,469,552,174,195,326,
0,463,545,172,193,322,
0,459,540,171,192,319,
0,454,533,169,190,316,
0,449,527,167,206,313,
0,485,583,166,214,311,
0,499,574,164,211,307,
0,494,567,163,210,304,
0,487,560,162,208,302,
0,483,553,161,207,344,
0,478,544,159,204,339,
0,472,538,158,203,336,
0,467,531,157,201,334,
0,462,525,156,199,330,
0,457,524,155,199,327,
0,487,563,153,197,323,
0,482,556,152,195,320,
0,476,550,151,194,318,
0,472,543,150,192,315,
0,466,536,148,191,335,
0,460,527,147,190,332,
0,455,521,147,188,327,
0,451,515,145,187,325,
0,446,510,144,185,322,
0,441,547,143,188,319,
0,524,540,142,186,316,
0,516,534,140,184,312,
0,511,527,140,183,310,
0,504,520,139,182,348,
0,499,514,139,180,355,
0,494,507,137,179,352,
0,487,502,135,177,348,
0,483,496,135,176,344,
0,477,491,135,175,341,
0,472,566,134,175,338,
0,487,557,132,173,334,
0,481,550,131,172,331,
0,476,543,139,171,327,
0,471,536,138,169,380,
0,465,530,137,167,376,
0,460,522,135,167,371,
0,455,516,135,166,368,
0,451,510,134,164,364,
0,446,504,132,163,360,
0,441,588,131,164,357,
0,492,579,130,163,353,
0,486,572,129,162,350,
0,480,564,129,161,346,
0,475,558,176,159,402,
0,470,551,172,159,397,
0,463,543,171,158,393,
0,459,536,169,156,389,
0,455,530,167,155,385,
0,449,524,167,155,382,
0,445,565,165,155,377,
0,495,557,163,153,373,
0,489,550,172,152,369,
0,483,543,182,152,366,
0,479,536,180,151,380,
0,473,530,179,150,376,
0,467,522,177,148,372,
0,463,516,176,147,368,
0,457,510,174,147,365,
0,453,519,172,164,361,
0,496,561,171,163,359,
0,489,554,169,161,355,
0,484,547,167,159,352,
0,479,540,167,159,348,
0,473,534,166,157,393,
0,467,527,164,156,389,
0,463,519,163,155,385,
0,457,513,161,153,381,
0,452,508,160,152,377,
0,448,598,159,158,374,
0,506,588,158,156,370,
0,499,579,156,155,366,
0,494,572,155,153,362,
0,487,566,153,152,408,
0,483,559,152,152,415,
0,477,551,152,150,412,
0,472,543,150,148,408,
0,467,536,149,147,403,
0,462,530,148,147,399,
0,457,553,147,159,395,
0,507,545,146,158,391,
0,500,539,144,156,387,
0,495,532,187,155,383,
0,489,526,184,153,443,
0,483,519,183,152,437,
0,478,512,182,151,432,
0,473,507,179,150,427,
0,467,501,178,148,423,
0,463,496,177,147,419,
0,458,556,176,146,415,
0,486,547,174,145,410,
0,480,541,172,144,405,
0,475,535,175,143,401,
0,470,527,174,142,455,
0,464,521,172,142,451,
0,459,515,171,140,445,
0,454,508,169,140,440,
0,449,502,167,138,435,
0,445,496,167,137,432,
0,440,558,166,136,427,
0,463,550,163,135,423,
0,457,543,163,135,417,
0,452,536,161,135,414,
0,448,530,159,134,461,
0,443,524,159,132,455,
0,438,516,158,131,451,
0,433,510,156,131,446,
0,430,504,155,130,441,
0,425,514,154,135,437,
0,432,574,152,133,432,
0,444,566,152,132,428,
0,439,559,177,131,423,
0,434,551,175,130,419,
0,430,545,174,129,474,
0,424,539,172,127,469,
0,420,531,171,127,463,
0,416,524,169,127,459,
0,413,518,167,126,454,
0,409,512,167,125,449,
0,432,507,165,124,444,
0,426,500,163,124,440,
0,422,495,167,123,434,
0,417,489,166,122,466,
0,413,484,164,121,470,
0,408,480,163,120,463,
0,404,473,162,120,459,
0,401,468,161,119,454,
0,398,463,159,118,449,
0,395,537,158,118,444,
0,452,529,157,117,440,
0,445,523,156,116,435,
0,440,516,155,115,430,
0,435,511,153,115,428,
0,431,504,152,114,423,
0,426,499,151,113,419,
0,422,492,150,112,415,
0,417,486,149,112,411,
0,414,481,147,111,408,
0,409,691,147,129,403,
0,476,679,145,127,399,
0,468,670,143,127,396,
0,463,660,143,126,391,
0,457,652,142,125,438,
0,452,643,141,124,433,
0,448,635,140,124,428,
0,444,624,139,122,423,
0,439,616,138,121,419,
0,434,609,137,132,415,
0,430,615,135,138,411,
0,499,608,135,137,407,
0,491,600,134,135,403,
0,485,592,133,135,398,
0,480,585,135,134,441,
0,475,579,135,132,436,
0,469,572,134,131,432,
0,463,563,132,130,428,
0,459,557,131,129,423,
0,455,551,131,155,419,
0,450,544,130,153,415,
0,449,539,128,152,411,
0,444,532,131,151,407,
0,440,527,129,150,401,
0,435,521,128,147,444,
0,431,515,127,147,440,
0,426,510,127,145,435,
0,422,504,126,144,430,
0,418,497,124,143,425,
0,414,558,124,146,422,
0,460,550,123,144,417,
0,454,542,122,143,413,
0,448,536,163,143,409,
0,443,528,161,142,448,
0,438,523,161,140,441,
0,433,516,159,139,436,
0,428,511,158,138,432,
0,423,503,156,137,428,
0,419,497,156,135,423,
0,415,536,154,142,419,
0,460,528,152,140,415,
0,455,521,152,139,411,
0,449,515,188,138,407,
0,444,510,187,137,449,
0,440,504,184,135,444,
0,435,497,184,135,440,
0,430,492,182,134,434,
0,425,486,180,132,430,
0,422,481,178,131,425,
0,417,551,177,143,421,
0,481,543,176,141,417,
0,475,536,174,140,413,
0,468,529,172,139,408,
0,463,524,171,138,451,
0,457,517,169,136,446,
0,453,511,167,135,441,
0,448,504,167,135,436,
0,444,497,166,133,432,
0,439,492,164,137,428,
0,435,507,163,143,423,
0,454,500,161,142,419,
0,448,495,195,140,415,
0,442,489,205,139,409,
0,438,483,203,138,449,
0,433,478,201,137,444,
0,428,473,199,135,440,
0,423,468,198,135,435,
0,420,463,195,134,430,
0,415,466,195,150,425,
0,463,509,193,147,422,
0,486,503,191,146,417,
0,480,496,190,145,413,
0,472,491,192,143,408,
0,467,486,190,143,446,
0,462,480,188,142,440,
0,457,475,187,140,436,
0,452,469,185,140,432,
0,448,463,184,137,428,
0,443,574,183,172,423,
0,509,580,181,169,419,
0,502,572,179,167,415,
0,496,565,179,167,411,
0,488,558,177,166,436,
0,483,551,175,163,444,
0,479,544,174,163,440,
0,473,537,172,161,435,
0,467,531,172,160,430,
0,463,524,169,159,425,
0,458,563,168,172,421,
0,492,556,167,171,417,
0,486,548,166,169,412,
0,480,542,165,167,408,
0,472,536,163,167,435,
0,467,528,163,165,430,
0,463,523,161,163,425,
0,457,516,159,163,420,
0,453,511,159,161,415,
0,448,504,158,159,412,
0,444,498,156,167,408,
0,487,492,155,167,403,
0,481,487,154,166,399,
0,476,482,157,163,396,
0,468,477,156,163,399,
0,463,472,154,161,396,
0,459,467,153,160,391,
0,454,462,152,159,387,
0,449,457,151,158,384,
0,444,452,150,164,381,
0,440,523,148,167,377,
0,483,515,147,166,374,
0,478,510,146,164,371,
0,472,504,145,163,368,
0,465,497,147,161,408,
0,460,492,146,160,403,
0,455,486,145,159,399,
0,451,480,143,158,395,
0,446,476,143,157,391,
0,441,492,142,162,387,
0,455,552,141,161,384,
0,459,545,140,159,379,
0,454,539,139,158,376,
0,448,531,137,157,372,
0,443,525,176,156,419,
0,438,519,175,155,415,
0,433,513,173,153,411,
0,429,507,172,152,407,
0,425,502,170,151,403,
0,421,552,168,159,399,
0,473,543,167,157,395,
0,467,537,166,156,391,
0,462,531,164,155,387,
0,455,524,163,153,384,
0,451,518,161,152,397,
0,446,512,160,151,392,
0,441,505,159,150,388,
0,436,500,158,148,384,
0,432,495,156,147,381,
0,428,605,156,152,377,
0,482,596,154,151,374,
0,476,588,153,150,370,
0,471,580,152,148,367,
0,464,573,151,147,391,
0,459,566,150,147,393,
0,454,560,148,145,390,
0,449,552,147,143,385,
0,444,546,146,143,381,
0,440,540,145,142,377,
0,435,532,143,159,374,
0,499,526,143,157,370,
0,493,519,142,156,367,
0,487,514,142,155,364,
0,480,508,140,153,371,
0,475,503,166,152,365,
0,470,497,164,152,361,
0,465,492,163,150,359,
0,460,487,161,148,355,
0,455,481,160,148,352,
0,451,633,159,167,350,
0,480,624,158,166,347,
0,475,615,156,164,344,
0,469,608,155,163,341,
0,463,600,154,161,372,
0,457,591,152,160,368,
0,452,584,152,159,364,
0,448,577,150,158,359,
0,443,571,148,156,356,
0,439,571,147,158,353,
0,476,599,146,176,350,
0,503,591,145,175,347,
0,496,583,173,174,344,
0,491,575,173,172,340,
0,483,568,172,171,338,
0,479,561,169,169,334,
0,473,555,167,167,332,
0,467,548,167,167,328,
0,463,542,166,166,326,
0,458,609,164,180,323,
0,492,600,163,180,321,
0,486,591,161,179,318,
0,480,584,159,177,316,
0,475,576,159,176,313,
0,468,569,158,175,359,
0,463,563,156,173,354,
0,458,556,155,172,351,
0,454,550,153,171,347,
0,448,543,152,169,344,
0,444,627,152,193,340,
0,483,617,150,191,337,
0,478,609,149,190,334,
0,472,601,147,188,331,
0,467,593,146,187,348,
0,460,586,158,184,348,
0,455,579,156,184,344,
0,450,572,155,182,340,
0,446,565,153,180,337,
0,441,558,152,179,334,
0,436,608,151,196,331,
0,480,600,150,194,327,
0,473,591,148,192,325,
0,468,583,147,191,322,
0,463,575,146,190,319,
0,456,569,145,188,316,
0,451,563,143,187,313,
0,447,556,143,185,311,
0,443,549,142,184,308,
0,438,543,140,182,305,
0,433,536,139,191,304,
0,453,529,139,189,301,
0,448,524,144,187,299,
0,443,518,179,185,296,
0,438,512,177,184,332,
0,432,507,175,183,329,
0,428,502,174,182,325,
0,423,496,172,179,322,
0,419,491,171,179,319,
0,415,486,169,192,316,
0,459,562,167,196,313,
0,477,555,167,194,310,
0,472,548,166,192,307,
0,466,541,164,191,305,
0,461,535,163,189,339,
0,455,527,161,188,335,
0,449,521,159,187,331,
0,445,516,159,184,327,
0,440,510,157,184,324,
0,436,504,156,193,321,
0,463,541,155,192,319,
0,457,535,153,190,316,
0,451,527,152,188,313,
0,447,521,152,187,310,
0,442,515,151,185,336,
0,436,509,149,184,333,
0,432,504,147,183,329,
0,428,497,147,181,326,
0,423,492,145,179,323,
0,419,575,144,193,319,
0,468,571,143,191,317,
0,462,563,142,189,314,
0,457,556,144,188,312,
0,451,550,143,186,327,
0,448,543,177,184,340,
0,441,536,175,184,337,
0,436,530,174,182,333,
0,432,524,172,180,329,
0,428,518,171,179,327,
0,423,512,169,191,323,
0,483,504,167,188,321,
0,478,499,167,187,318,
0,472,494,169,185,315,
0,467,488,167,184,365,
0,462,483,166,182,360,
0,455,478,164,180,356,
0,450,473,163,179,352,
0,446,468,162,178,349,
0,440,463,160,177,347,
0,436,583,159,192,343,
0,476,574,158,190,339,
0,471,568,179,188,336,
0,465,560,220,187,333,
0,460,553,217,185,379,
0,455,545,216,184,374,
0,449,540,212,183,370,
0,444,533,211,181,366,
0,440,527,209,179,362,
0,435,520,207,184,359,
0,455,591,206,192,355,
0,472,582,204,190,352,
0,467,574,203,188,348,
0,462,567,200,187,345,
0,455,560,199,185,391,
0,451,553,198,184,387,
0,446,546,195,183,382,
0,440,540,194,181,378,
0,435,533,192,179,375,
0,432,555,191,188,371,
0,483,643,190,187,367,
0,476,632,188,185,364,
0,471,623,187,184,359,
0,465,615,185,182,357,
0,460,607,184,180,406,
0,455,600,183,179,401,
0,449,591,181,178,396,
0,444,584,179,176,391,
0,440,577,178,175,388,
0,435,622,176,185,385,
0,483,612,176,184,381,
0,477,603,174,183,377,
0,472,595,172,180,374,
0,466,588,172,179,380,
0,461,579,171,178,376,
0,455,572,169,176,371,
0,449,566,167,175,367,
0,446,559,167,174,364,
0,440,552,166,172,360,
0,436,664,164,192,357,
0,499,653,163,191,354,
0,492,642,162,188,351,
0,487,633,161,187,348,
0,481,625,159,185,391,
0,476,616,159,184,386,
0,471,609,158,183,382,
0,464,601,156,181,377,
0,459,594,155,179,374,
0,455,587,155,179,370,
0,451,814,153,186,366,
0,520,823,152,184,363,
0,515,806,156,183,359,
0,508,793,155,181,355,
0,503,781,153,179,371,
0,497,769,152,178,367,
0,492,759,152,177,364,
0,484,748,150,176,359,
0,480,737,148,174,355,
0,474,727,148,181,352,
0,484,717,147,186,349,
0,491,707,145,184,345,
0,484,696,198,183,343,
0,480,686,201,181,339,
0,474,678,199,179,390,
0,468,668,198,178,385,
0,463,660,195,177,382,
0,457,652,193,176,376,
0,452,643,192,174,373,
0,448,726,191,206,369,
0,477,775,189,206,366,
0,472,764,188,204,363,
0,466,750,185,201,359,
0,460,738,184,199,355,
0,455,728,184,198,396,
0,451,717,182,196,391,
0,444,707,180,195,387,
0,440,697,179,193,384,
0,435,688,177,192,379,
0,432,679,176,191,376,
0,467,670,174,189,371,
0,460,662,173,188,368,
0,455,651,172,185,364,
0,451,643,170,184,385,
0,446,635,172,184,396,
0,440,627,171,182,391,
0,435,619,169,180,388,
0,431,611,167,179,384,
0,426,604,166,177,380,
0,422,598,166,177,376,
0,454,591,163,176,371,
0,448,583,163,175,368,
0,443,575,187,172,365,
0,438,569,184,172,419,
0,433,563,184,170,414,
0,429,557,182,168,409,
0,423,551,180,167,404,
0,419,545,178,167,399,
0,415,551,177,166,396,
0,412,763,176,166,391,
0,462,749,174,164,388,
0,456,738,172,163,384,
0,451,724,171,162,380,
0,447,714,169,160,426,
0,441,704,168,159,421,
0,437,694,167,158,416,
0,432,684,166,157,412,
0,428,675,164,156,407,
0,423,667,163,157,403,
0,435,704,161,159,399,
0,446,693,160,159,395,
0,441,681,176,158,391,
0,436,671,239,156,387,
0,432,662,236,155,433,
0,427,654,235,153,428,
0,423,646,231,152,423,
0,417,638,231,152,419,
0,413,630,228,151,414,
0,409,752,226,158,409,
0,478,844,224,156,406,
0,472,829,222,155,401,
0,465,812,220,153,397,
0,460,799,219,152,393,
0,455,787,217,151,435,
0,450,775,216,150,430,
0,446,764,214,149,425,
0,440,753,211,147,420,
0,435,743,209,147,415,
0,431,732,207,163,412,
0,483,722,206,161,407,
0,476,711,205,159,403,
0,472,700,203,159,399,
0,466,691,201,157,425,
0,460,681,199,156,434,
0,455,672,199,154,429,
0,451,664,197,153,424,
0,444,655,195,152,420,
0,440,647,193,151,415,
0,436,798,192,172,411,
0,486,796,191,169,407,
0,480,783,190,167,403,
0,475,768,188,167,399,
0,469,756,187,166,441,
0,463,745,185,164,435,
0,459,735,184,163,431,
0,454,724,183,161,426,
0,448,714,181,159,422,
0,443,704,179,159,416,
0,439,696,179,161,412,
0,451,686,177,159,408,
0,445,677,179,159,404,
0,440,665,179,157,399,
0,435,657,179,156,437,
0,432,649,177,155,432,
0,427,641,176,153,427,
0,423,633,175,152,423,
0,417,625,173,152,419,
0,414,619,172,152,413,
0,440,620,171,155,409,
0,448,611,169,153,404,
0,444,604,167,152,401,
0,439,595,167,152,397,
0,434,588,166,150,445,
0,430,582,164,148,440,
0,425,575,163,147,435,
0,420,569,162,147,431,
0,415,563,160,145,425,
0,412,557,159,159,420,
0,471,567,158,158,415,
0,464,559,157,156,412,
0,460,552,182,155,408,
0,454,545,180,153,404,
0,449,540,220,152,434,
0,444,534,219,152,430,
0,440,527,216,150,424,
0,435,523,215,148,420,
0,429,517,212,147,415,
0,425,560,210,163,411,
0,470,552,208,162,407,
0,464,545,207,161,403,
0,459,539,205,159,399,
0,454,530,204,158,396,
0,449,524,201,157,391,
0,444,518,199,156,388,
0,440,512,199,155,384,
0,435,507,197,153,380,
0,429,502,195,152,377,
0,425,546,193,167,373,
0,483,539,192,166,369,
0,477,531,190,164,367,
0,472,526,189,163,363,
0,467,518,188,161,414,
0,461,511,186,160,408,
0,455,505,184,159,403,
0,451,499,184,158,399,
0,447,495,182,156,396,
0,440,489,180,155,391,
0,436,485,179,172,387,
0,470,480,177,169,384,
0,464,476,176,167,380,
0,460,472,175,167,376,
0,455,465,174,166,372,
0,449,460,172,164,369,
0,444,455,171,163,366,
0,440,452,169,161,363,
0,435,448,168,160,359,
0,430,444,167,162,355,
0,462,543,166,168,352,
0,481,536,164,167,349,
0,476,529,163,166,346,
0,470,523,163,164,344,
0,465,515,162,163,393,
0,460,509,161,161,390,
0,455,503,159,160,385,
0,449,497,159,159,382,
0,445,492,158,158,377,
0,439,487,156,166,373,
0,492,537,155,163,369,
0,485,531,154,163,366,
0,480,524,153,161,363,
0,473,518,152,159,359,
0,468,511,184,158,408,
0,463,504,183,157,403,
0,458,499,181,156,399,
0,454,493,179,155,395,
0,448,487,178,153,391,
0,443,549,176,172,386,
0,511,540,175,169,382,
0,504,534,173,168,379,
0,498,527,201,167,375,
0,492,520,199,166,371,
0,487,512,199,164,368,
0,481,507,196,163,364,
0,476,501,195,161,361,
0,471,496,193,160,358,
0,466,489,192,159,355,
0,460,620,190,166,351,
0,496,609,188,163,348,
0,489,601,187,163,344,
0,484,593,185,161,342,
0,479,586,184,159,391,
0,473,575,182,159,386,
0,467,569,180,157,382,
0,463,563,179,156,377,
0,457,556,178,155,374,
0,452,550,177,153,370,
0,448,620,175,170,366,
0,507,611,174,167,362,
0,502,602,172,167,359,
0,496,595,171,166,355,
0,489,587,181,164,391,
0,484,577,179,163,387,
0,479,571,177,161,383,
0,473,563,176,159,379,
0,468,557,175,159,376,
0,463,551,173,164,371,
0,481,574,172,171,367,
0,495,566,169,169,364,
0,489,559,168,167,359,
0,483,551,167,167,356,
0,479,545,166,165,403,
0,472,537,165,163,399,
0,467,531,163,163,395,
0,463,525,162,161,391,
0,457,519,161,159,387,
0,452,545,159,174,384,
0,516,600,159,174,379,
0,508,591,157,172,375,
0,504,584,163,172,371,
0,497,577,161,169,368,
0,492,569,159,168,417,
0,486,561,159,167,412,
0,480,555,158,166,408,
0,476,547,156,164,403,
0,471,541,156,163,399,
0,463,587,153,168,396,
0,497,579,152,167,391,
0,492,571,152,166,387,
0,486,564,151,164,384,
0,480,557,150,163,415,
0,476,550,148,162,425,
0,470,542,147,159,422,
0,465,536,146,159,417,
0,460,529,145,158,412,
0,455,523,144,156,408,
0,449,559,143,161,404,
0,494,551,142,159,399,
0,487,543,141,159,396,
0,483,537,140,157,391,
0,477,531,139,156,423,
0,472,525,139,155,419,
0,467,517,137,153,414,
0,462,511,135,152,409,
0,456,505,135,151,406,
0,452,500,135,150,401,
0,446,579,134,158,398,
0,500,571,132,156,392,
0,495,563,140,155,389,
0,489,556,176,153,385,
0,483,549,175,152,440,
0,478,542,173,152,435,
0,472,534,171,150,431,
0,467,527,169,149,426,
0,463,521,167,147,422,
0,457,515,167,158,418,
0,476,635,166,162,413,
0,487,625,163,160,408,
0,481,615,163,159,404,
0,476,608,161,158,399,
0,471,601,160,157,422,
0,464,591,159,156,417,
0,460,583,158,154,413,
0,455,576,156,152,408,
0,450,569,156,152,404,
0,445,563,154,166,401,
0,474,572,152,164,397,
0,468,564,152,163,391,
0,463,558,199,161,388,
0,457,551,196,160,385,
0,452,544,195,159,417,
0,448,536,193,158,414,
0,443,531,192,156,409,
0,439,524,190,155,404,
0,434,519,188,153,400,
0,430,572,187,166,397,
0,489,564,185,163,393,
0,483,556,183,162,388,
0,478,550,182,161,384,
0,472,543,180,159,384,
0,467,536,179,158,381,
0,462,527,177,157,377,
0,456,521,176,156,374,
0,451,516,175,155,371,
0,448,510,174,153,367,
0,443,579,172,162,364,
0,500,571,170,160,359,
0,494,563,169,159,356,
0,488,556,238,158,353,
0,483,548,235,156,364,
0,478,543,232,155,359,
0,472,534,231,153,356,
0,467,527,228,152,353,
0,462,521,227,152,350,
0,457,515,225,150,347,
0,452,583,223,167,344,
0,510,575,220,166,340,
0,504,568,219,163,337,
0,497,561,217,163,334,
0,492,553,216,161,332,
0,487,547,214,159,329,
0,481,539,211,159,327,
0,476,531,210,157,323,
0,471,526,208,156,321,
0,465,519,207,159,319,
0,460,664,206,168,316,
0,521,654,204,167,313,
0,515,645,201,166,311,
0,510,636,199,164,307,
0,504,628,199,163,359,
0,498,620,197,162,355,
0,492,609,195,161,351,
0,487,601,194,159,348,
0,482,594,193,158,344,
0,476,587,192,175,342,
0,496,607,190,174,338,
0,511,599,188,172,335,
0,505,591,187,171,331,
0,499,583,185,169,327,
0,494,577,184,167,364,
0,488,570,183,167,360,
0,483,561,182,166,357,
0,478,556,179,164,353,
0,472,548,179,163,351,
0,467,608,177,180,348,
0,529,608,176,179,344,
0,519,600,174,177,340,
0,514,591,195,176,336,
0,508,583,193,174,380,
0,503,575,192,173,395,
0,496,569,190,172,390,
0,491,561,188,169,386,
0,486,553,187,168,382,
0,480,547,185,167,379,
0,476,594,184,177,376,
0,517,586,182,175,371,
0,509,578,180,174,368,
0,504,571,179,172,364,
0,497,563,177,171,361,
0,492,556,176,169,359,
0,487,550,175,167,355,
0,481,542,173,167,352,
0,476,536,172,166,348,
0,471,529,171,164,345,
0,466,550,169,184,343,
0,496,543,167,183,339,
0,489,536,167,181,336,
0,483,529,166,179,332,
0,478,524,164,178,375,
0,472,518,163,176,370,
0,467,512,162,175,367,
0,462,505,161,174,363,
0,457,499,159,172,359,
0,452,495,159,182,355,
0,448,624,158,185,352,
0,492,615,156,184,349,
0,484,606,156,183,345,
0,479,598,155,181,342,
0,473,591,153,179,369,
0,468,583,152,178,366,
0,463,575,152,176,362,
0,459,568,150,175,359,
0,454,560,149,174,355,
0,449,582,148,174,352,
0,465,647,147,172,348,
0,486,638,146,171,345,
0,479,630,145,169,342,
0,473,621,143,167,338,
0,467,613,143,167,387,
0,463,605,143,166,383,
0,457,598,142,164,379,
0,453,588,141,163,376,
0,448,582,140,162,371,
0,444,575,139,212,368,
0,518,568,137,209,364,
0,510,561,137,207,360,
0,503,555,140,206,356,
0,497,548,140,204,356,
0,492,542,142,203,355,
0,486,536,141,201,352,
0,480,529,140,199,348,
0,476,522,139,197,345,
0,470,516,137,195,342,
0,465,511,135,211,339,
0,492,505,135,209,335,
0,486,499,135,207,333,
0,479,495,135,206,329,
0,473,489,134,204,372,
0,468,484,136,203,368,
0,463,480,135,201,364,
0,458,475,135,199,359,
0,453,468,134,198,357,
0,448,463,132,196,353,
0,444,540,131,203,351,
0,463,533,131,200,347,
0,459,527,129,199,344,
0,452,519,167,198,339,
0,448,513,165,195,337,
0,443,508,163,195,335,
0,438,502,162,193,332,
0,433,496,160,192,327,
0,429,489,159,190,326,
0,425,483,158,204,323,
0,422,568,156,217,319,
0,472,561,156,215,317,
0,466,553,154,213,315,
0,460,547,152,211,312,
0,455,540,152,209,368,
0,449,534,151,207,364,
0,444,527,149,206,359,
0,440,520,147,204,356,
0,435,513,147,203,353,
0,431,524,145,204,350,
0,440,590,144,202,347,
0,459,582,143,200,344,
0,452,575,143,199,340,
0,448,568,141,198,336,
0,443,560,142,196,337,
0,438,553,141,195,334,
0,433,547,140,193,331,
0,428,540,139,192,327,
0,423,532,137,190,324,
0,420,563,136,203,323,
0,491,556,135,201,319,
0,484,548,135,199,316,
0,477,541,147,198,313,
0,472,535,145,196,344,
0,466,527,144,195,352,
0,461,521,143,193,348,
0,455,516,142,192,344,
0,451,511,141,190,341,
0,447,503,140,188,337,
0,443,556,139,217,335,
0,502,548,137,216,332,
0,496,542,135,214,327,
0,487,536,135,211,326,
0,483,528,135,210,348,
0,478,522,134,208,344,
0,472,516,132,207,340,
0,467,510,131,205,337,
0,462,504,131,204,335,
0,457,497,129,201,332,
0,452,629,129,217,327,
0,478,620,127,216,325,
0,472,611,127,215,322,
0,465,603,126,212,319,
0,460,595,156,211,318,
0,455,588,157,209,315,
0,450,580,156,207,312,
0,445,573,154,206,310,
0,440,566,153,204,307,
0,436,558,152,210,304,
0,432,604,150,217,302,
0,487,595,148,216,300,
0,482,588,147,214,297,
0,475,580,147,212,295,
0,470,573,145,211,297,
0,464,566,143,209,295,
0,460,559,143,207,291,
0,455,551,142,206,289,
0,449,543,140,204,287,
0,445,555,140,236,286,
0,472,608,138,233,283,
0,504,600,137,231,281,
0,498,591,135,229,280,
0,491,583,135,227,277,
0,486,576,156,225,280,
0,480,569,155,223,278,
0,475,563,153,222,275,
0,470,556,152,220,272,
0,463,547,151,217,271,
0,460,591,149,230,269,
0,480,583,147,227,267,
0,474,575,147,226,265,
0,468,568,166,224,263,
0,462,561,163,222,262,
0,457,554,162,220,268,
0,452,547,160,219,266,
0,448,540,159,217,263,
0,443,535,158,215,262,
0,439,527,157,214,259,
0,435,588,156,228,258,
0,487,579,154,226,255,
0,482,571,152,224,254,
0,476,564,152,222,252,
0,470,557,151,220,252,
0,464,550,149,219,250,
0,459,543,147,216,248,
0,455,537,147,215,247,
0,449,531,145,214,244,
0,444,523,144,211,243,
0,440,586,143,230,241,
0,477,577,142,227,240,
0,472,570,141,226,239,
0,466,563,179,224,237,
0,460,556,176,222,275,
0,455,549,175,220,271,
0,449,543,173,219,268,
0,445,536,172,216,265,
0,440,529,171,216,263,
0,435,522,169,214,262,
0,432,560,167,236,259,
0,476,552,166,233,256,
0,470,546,192,231,266,
0,464,539,190,230,263,
0,458,532,188,228,261,
0,453,526,186,226,259,
0,448,519,184,224,255,
0,444,514,183,223,254,
0,439,508,181,221,252,
0,434,505,179,220,249,
0,457,560,178,231,248,
0,481,552,177,231,245,
0,476,545,176,228,243,
0,470,539,174,227,241,
0,463,532,172,225,276,
0,459,526,171,223,273,
0,454,519,169,221,271,
0,448,513,167,220,268,
0,444,508,167,217,265,
0,440,572,166,226,263,
0,487,579,164,224,261,
0,481,572,163,222,259,
0,476,564,162,220,257,
0,470,557,160,219,255,
0,463,550,159,217,252,
0,459,543,158,216,251,
0,454,537,156,214,248,
0,448,531,156,211,246,
0,444,524,155,210,243,
0,440,581,153,220,242,
0,506,572,152,219,240,
0,499,565,151,217,239,
0,494,558,150,216,263,
0,487,551,148,214,266,
0,481,543,147,211,263,
0,476,537,146,210,260,
0,471,531,145,208,258,
0,465,525,144,207,255,
0,460,519,143,205,254,
0,455,566,142,223,252,
0,472,559,141,220,249,
0,465,551,140,219,248,
0,460,544,147,216,245,
0,455,537,147,215,278,
0,449,531,145,214,275,
0,444,525,143,211,271,
0,440,519,143,210,269,
0,435,513,142,208,267,
0,431,507,140,207,264,
0,427,560,140,225,262,
0,471,552,139,224,259,
0,465,546,137,222,258,
0,460,539,140,220,255,
0,455,532,139,218,293,
0,448,526,137,216,290,
0,444,519,135,215,287,
0,440,514,135,212,284,
0,435,508,134,211,281,
0,430,503,134,216,279,
0,467,639,132,225,276,
0,503,630,131,223,274,
0,496,620,164,221,275,
0,491,612,162,219,272,
0,486,604,160,217,300,
0,478,596,159,216,295,
0,473,590,158,214,294,
0,468,582,156,212,291,
0,463,575,155,211,287,
0,457,568,153,216,286,
0,506,560,152,215,283,
0,499,552,151,212,280,
0,494,547,216,211,312,
0,487,540,244,209,308,
0,482,534,241,207,305,
0,476,527,239,206,302,
0,471,521,237,204,299,
0,465,516,235,203,295,
0,460,511,232,201,294,
0,455,555,231,209,291,
0,487,545,229,207,289,
0,482,537,227,205,286,
0,476,531,225,204,284,
0,471,525,224,201,304,
0,465,519,222,199,304,
0,460,512,220,199,300,
0,455,507,217,197,297,
0,449,501,216,195,295,
0,445,496,215,195,292,
0,440,582,212,212,289,
0,480,571,211,211,287,
0,475,564,209,208,284,
0,469,557,207,207,282,
0,463,550,206,205,307,
0,459,543,204,204,304,
0,452,536,203,202,300,
0,448,530,200,199,297,
0,443,524,199,199,295,
0,439,518,198,198,292,
0,435,592,196,231,289,
0,512,582,195,229,287,
0,505,575,194,227,316,
0,499,568,192,225,313,
0,494,560,191,223,327,
0,487,553,189,221,324,
0,481,547,188,219,320,
0,476,540,186,217,318,
0,471,534,184,216,315,
0,466,527,184,216,312,
0,462,543,182,216,309,
0,465,535,181,215,307,
0,460,527,179,212,304,
0,455,521,178,211,300,
0,451,515,204,209,302,
0,444,510,202,207,299,
0,440,504,199,206,295,
0,435,499,198,204,293,
0,432,493,196,203,291,
0,428,487,195,222,287,
0,477,483,193,222,286,
0,470,476,192,220,284,
0,465,472,190,218,281,
0,460,467,188,216,279,
0,455,463,187,215,319,
0,448,457,185,212,316,
0,444,454,184,211,312,
0,439,449,183,209,310,
0,434,444,180,207,307,
0,431,516,179,218,304,
0,502,540,178,216,301,
0,496,531,176,214,298,
0,489,524,176,211,295,
0,484,518,174,211,305,
0,479,512,173,208,302,
0,472,506,172,207,300,
0,467,500,170,206,295,
0,462,495,169,204,294,
0,457,489,167,203,291,
0,452,579,167,218,288,
0,504,570,166,216,286,
0,497,561,164,214,284,
0,492,553,174,211,280,
0,486,547,172,210,318,
0,480,540,170,207,313,
0,473,534,169,207,311,
0,468,527,167,205,307,
0,463,521,166,203,304,
0,459,515,164,201,302,
0,454,541,163,218,299,
0,510,534,162,216,295,
0,504,526,161,214,294,
0,497,519,161,212,291,
0,492,513,159,211,297,
0,487,507,158,208,294,
0,480,502,157,207,291,
0,475,496,156,206,287,
0,470,491,155,204,286,
0,464,486,153,206,283,
0,489,568,152,210,280,
0,508,559,152,208,279,
0,503,551,151,207,276,
0,497,544,150,204,273,
0,492,537,149,203,276,
0,486,531,147,201,274,
0,479,524,147,199,271,
0,473,519,145,199,269,
0,468,512,144,196,267,
0,463,507,143,204,264,
0,503,563,143,204,263,
0,496,555,142,201,260,
0,490,547,173,199,260,
0,484,540,171,198,257,
0,480,535,169,197,295,
0,473,527,167,195,291,
0,467,521,167,193,289,
0,463,515,165,192,286,
0,457,510,163,191,284,
0,453,504,163,209,281,
0,512,498,161,207,278,
0,505,492,159,205,276,
0,499,486,158,203,294,
0,494,481,157,201,326,
0,488,476,158,199,331,
0,483,471,156,198,327,
0,476,465,156,196,324,
0,472,461,153,195,319,
0,466,455,152,193,317,
0,461,624,152,228,314,
0,507,614,151,225,312,
0,500,604,149,224,355,
0,495,595,149,222,352,
0,489,588,148,220,360,
0,483,580,147,217,356,
0,479,573,145,216,353,
0,472,567,144,214,350,
0,467,560,143,212,345,
0,462,553,142,211,343,
0,457,608,141,210,339,
0,504,600,140,208,335,
0,497,590,154,207,333,
0,492,582,153,204,329,
0,486,575,152,203,352,
0,481,568,151,201,348,
0,476,561,150,199,344,
0,469,553,148,198,341,
0,463,547,147,197,337,
0,459,541,146,195,334,
0,483,611,144,194,331,
0,493,602,143,193,327,
0,487,592,143,192,325,
0,481,584,141,190,322,
0,476,577,144,188,337,
0,471,570,143,187,334,
0,465,563,142,185,331,
0,460,556,141,184,327,
0,455,550,140,184,323,
0,450,543,139,183,321,
0,494,557,137,182,318,
0,487,550,136,179,316,
0,482,542,136,179,312,
0,476,535,135,177,310,
0,472,528,135,176,351,
0,465,523,134,174,347,
0,461,517,132,174,344,
0,455,511,131,172,340,
0,449,505,131,171,336,
0,446,568,130,179,333,
0,508,609,129,178,329,
0,502,601,127,177,327,
0,496,591,166,175,324,
0,490,583,163,174,347,
0,484,575,163,172,353,
0,480,569,161,171,350,
0,473,562,159,170,347,
0,467,556,158,168,344,
0,463,548,156,167,339,
0,457,617,156,178,335,
0,476,608,154,176,333,
0,470,600,153,175,329,
0,465,590,152,173,327,
0,460,583,151,172,366,
0,455,575,150,171,361,
0,450,568,148,169,358,
0,446,561,147,167,355,
0,440,555,145,167,351,
0,435,547,145,166,347,
0,431,589,143,180,344,
0,494,580,143,178,340,
0,487,573,143,177,337,
0,483,564,144,175,334,
0,477,558,151,174,383,
0,472,551,148,172,378,
0,467,543,147,171,374,
0,462,537,146,169,371,
0,455,531,144,168,366,
0,451,525,143,175,363,
0,479,585,142,179,359,
0,493,577,141,178,355,
0,487,569,142,177,352,
0,481,561,141,175,349,
0,476,553,141,174,382,
0,471,547,140,172,377,
0,465,540,139,171,374,
0,460,534,137,169,369,
0,455,527,136,167,365,
0,450,569,135,172,361,
0,478,675,135,172,358,
0,472,665,133,169,355,
0,466,655,132,168,352,
0,460,645,131,167,348,
0,455,636,139,166,374,
0,451,628,137,164,369,
0,446,620,135,163,366,
0,441,612,135,162,363,
0,435,604,134,161,359,
0,432,655,132,174,355,
0,497,683,131,172,352,
0,491,671,130,171,348,
0,485,664,159,169,345,
0,480,652,157,167,345,
0,474,643,178,166,342,
0,468,635,176,164,339,
0,463,627,175,163,335,
0,459,619,174,162,332,
0,452,611,172,161,329,
0,448,604,170,176,326,
0,492,595,168,175,323,
0,486,588,167,173,320,
0,480,582,166,172,318,
0,475,574,165,170,356,
0,470,567,163,168,352,
0,465,560,162,167,348,
0,460,553,161,166,345,
0,455,547,159,165,342,
0,448,542,158,163,337,
0,444,700,157,178,335,
0,502,689,156,176,332,
0,496,679,155,175,334,
0,489,670,153,174,329,
0,484,658,153,172,327,
0,479,649,152,171,323,
0,473,641,151,169,321,
0,468,632,150,167,318,
0,463,624,148,167,316,
0,457,616,147,167,312,
0,512,647,145,178,310,
0,536,638,144,176,307,
0,530,630,216,175,304,
0,524,621,214,174,302,
0,518,611,211,172,342,
0,512,604,210,171,338,
0,506,596,207,169,335,
0,500,589,207,167,332,
0,494,582,205,167,327,
0,488,575,203,187,325,
0,496,568,200,184,322,
0,491,561,207,184,319,
0,484,556,255,182,316,
0,480,549,252,180,313,
0,475,542,249,178,327,
0,470,536,247,177,324,
0,464,529,244,175,321,
0,460,524,243,174,319,
0,454,518,240,172,316,
0,449,516,238,180,312,
0,505,510,236,179,310,
0,499,505,235,177,306,
0,493,499,231,176,304,
0,487,495,231,175,327,
0,482,487,229,172,349,
0,477,483,227,172,345,
0,472,478,225,170,342,
0,467,473,224,168,339,
0,460,468,222,167,335,
0,455,463,220,182,332,
0,487,460,217,180,328,
0,483,455,216,179,326,
0,477,451,224,177,323,
0,472,446,222,176,361,
0,467,441,220,174,357,
0,461,437,219,172,353,
0,455,433,217,171,350,
0,451,429,216,169,347,
0,446,425,214,168,344,
0,441,526,211,173,339,
0,472,519,209,172,335,
0,465,512,207,171,333,
0,460,505,207,169,330,
0,455,500,205,167,327,
0,450,492,204,166,324,
0,446,487,201,165,321,
0,440,481,199,163,319,
0,436,476,199,162,316,
0,432,472,198,171,313,
0,455,502,195,179,310,
0,479,496,194,177,307,
0,473,489,193,176,304,
0,467,484,192,175,302,
0,463,477,190,173,344,
0,457,472,188,171,341,
0,452,467,187,170,337,
0,448,462,186,168,334,
0,443,456,184,167,331,
0,438,609,184,199,327,
0,515,756,182,200,324,
0,508,743,180,199,321,
0,503,732,179,197,318,
0,497,721,178,195,316,
0,492,708,176,193,355,
0,486,699,175,192,352,
0,480,689,174,191,348,
0,475,679,173,189,345,
0,470,671,172,188,342,
0,463,662,171,188,339,
0,487,653,169,187,335,
0,481,645,167,185,332,
0,476,637,167,184,327,
0,470,629,165,183,326,
0,464,619,164,182,323,
0,460,612,163,179,319,
0,455,604,162,177,317,
0,450,597,161,177,314,
0,446,590,159,176,312,
0,440,764,159,191,309,
0,486,763,157,189,305,
0,480,751,190,188,303,
0,475,739,235,187,300,
0,469,728,231,184,347,
0,463,716,230,184,343,
0,459,705,228,182,339,
0,454,696,226,180,335,
0,448,687,224,179,333,
0,444,677,222,177,330,
0,439,740,220,184,327,
0,491,728,218,183,323,
0,484,718,217,181,319,
0,480,707,216,179,317,
0,473,697,214,178,364,
0,468,686,211,177,359,
0,463,676,210,175,356,
0,459,668,208,174,352,
0,454,659,207,172,349,
0,448,651,205,180,346,
0,476,788,203,185,343,
0,499,774,201,184,339,
0,492,763,199,183,335,
0,487,751,199,181,332,
0,481,740,197,179,369,
0,476,727,195,177,366,
0,471,716,194,176,361,
0,465,707,193,175,359,
0,460,696,191,173,355,
0,455,688,190,192,352,
0,492,679,188,191,348,
0,486,670,187,189,344,
0,481,662,185,188,341,
0,476,653,184,185,338,
0,471,644,183,184,390,
0,465,635,182,183,385,
0,460,627,180,181,382,
0,455,620,179,179,377,
0,450,611,177,178,374,
0,446,689,176,189,371,
0,504,824,175,188,367,
0,499,809,173,186,363,
0,493,797,172,184,359,
0,487,784,171,183,355,
0,481,772,169,182,352,
0,476,759,168,179,349,
0,472,748,167,178,346,
0,465,736,166,177,343,
0,461,726,164,176,340,
0,455,716,163,190,337,
0,491,707,162,188,334,
0,485,697,161,186,331,
0,480,688,159,184,327,
0,474,679,159,184,379,
0,469,670,158,182,374,
0,463,659,156,180,370,
0,459,652,156,179,367,
0,454,643,154,177,363,
0,449,636,153,176,359,
0,444,628,152,187,356,
0,492,620,151,185,352,
0,486,612,151,184,348,
0,480,606,150,183,345,
0,475,599,148,181,402,
0,470,591,147,179,397,
0,464,583,147,178,392,
0,460,576,145,176,388,
0,455,571,144,175,385,
0,449,564,143,180,382,
0,445,620,143,187,377,
0,496,610,141,184,373,
0,491,603,141,183,369,
0,485,594,140,182,366,
0,480,587,139,180,379,
0,475,579,137,179,375,
0,469,571,136,177,371,
0,463,563,135,176,368,
0,459,558,135,174,364,
0,454,589,134,188,359,
0,463,679,133,186,357,
0,495,668,132,185,353,
0,489,659,131,184,350,
0,483,651,131,182,347,
0,478,641,129,180,390,
0,472,633,129,179,385,
0,467,623,127,177,381,
0,462,615,127,176,377,
0,457,607,126,174,374,
0,452,627,126,212,370,
0,487,617,124,211,367,
0,480,609,124,208,362,
0,475,601,158,207,359,
0,470,593,156,205,355,
0,463,587,154,204,352,
0,459,579,153,201,349,
0,454,571,152,199,345,
0,449,563,151,198,343,
0,444,557,150,196,339,
0,440,612,148,199,337,
0,486,603,147,198,334,
0,478,595,145,196,330,
0,472,588,144,195,327,
0,467,580,143,193,368,
0,462,572,143,192,364,
0,457,566,141,190,359,
0,451,557,140,188,356,
0,448,551,139,187,353,
0,443,543,138,186,350,
0,438,632,137,187,347,
0,488,622,135,184,344,
0,481,614,135,184,339,
0,476,605,135,182,335,
0,471,598,134,180,366,
0,465,590,132,179,362,
0,460,583,131,178,359,
0,455,574,131,176,355,
0,450,567,129,175,352,
0,446,560,128,176,348,
0,441,560,127,179,345,
0,472,552,127,178,342,
0,464,547,126,177,337,
0,459,540,125,176,335,
0,454,535,124,174,351,
0,449,529,124,173,347,
0,444,523,123,172,344,
0,440,516,121,170,340,
0,435,511,120,169,337,
0,431,509,120,183,334,
0,441,559,120,180,332,
0,472,551,119,179,327,
0,467,545,119,177,325,
0,462,537,118,176,322,
0,456,531,116,175,351,
0,451,525,115,173,348,
0,447,519,115,172,344,
0,441,512,115,170,340,
0,438,506,113,168,337,
0,433,567,113,186,334,
0,487,575,112,184,331,
0,480,568,112,183,327,
0,473,561,113,181,324,
0,468,554,112,179,344,
0,463,547,181,177,351,
0,459,540,179,176,347,
0,454,534,177,175,344,
0,448,526,176,174,340,
0,444,519,174,172,337,
0,440,639,173,175,334,
0,494,627,171,173,331,
0,486,619,170,172,327,
0,480,611,167,170,324,
0,476,603,167,169,360,
0,470,595,166,167,356,
0,464,588,164,167,353,
0,460,580,163,166,350,
0,455,572,161,163,346,
0,450,564,160,163,343,
0,446,593,159,185,339,
0,493,585,158,184,336,
0,485,577,156,182,334,
0,480,571,156,180,329,
0,474,563,154,179,374,
0,468,556,153,177,370,
0,463,550,152,176,366,
0,459,543,151,175,362,
0,454,536,150,173,359,
0,449,529,148,185,355,
0,444,572,147,192,352,
0,494,563,146,191,348,
0,487,556,150,189,345,
0,481,550,148,188,342,
0,476,543,147,186,339,
0,471,536,146,184,335,
0,465,529,145,184,332,
0,460,523,143,182,329,
0,455,516,143,179,327,
0,451,558,142,188,323,
0,460,612,141,187,320,
0,484,604,140,185,318,
0,477,595,143,184,316,
0,472,588,142,182,312,
0,467,580,140,180,358,
0,461,573,139,179,354,
0,455,566,138,177,351,
0,451,558,137,176,348,
0,447,551,135,175,344,
0,441,590,135,175,341,
0,470,581,134,174,337,
0,463,573,133,172,335,
0,457,567,135,171,332,
0,452,559,134,169,368,
0,448,551,133,167,379,
0,443,545,131,167,375,
0,438,539,131,166,371,
0,433,531,130,164,367,
0,429,525,129,163,364,
0,425,519,127,182,359,
0,481,513,127,179,356,
0,476,508,127,178,353,
0,468,503,155,176,350,
0,463,497,152,175,361,
0,459,492,152,174,358,
0,454,487,150,172,354,
0,448,482,149,171,351,
0,444,476,147,169,348,
0,440,472,147,167,344,
0,435,532,145,182,341,
0,487,526,143,180,338,
0,481,519,143,179,335,
0,474,513,141,177,332,
0,468,507,140,176,376,
0,463,500,139,174,371,
0,459,495,138,173,368,
0,454,489,137,172,364,
0,448,483,135,170,359,
0,444,478,135,182,358,
0,440,543,134,190,353,
0,483,536,133,188,351,
0,478,529,137,187,347,
0,471,523,135,185,344,
0,465,517,135,184,388,
0,460,511,134,182,384,
0,455,504,132,180,380,
0,451,499,131,179,376,
0,446,492,130,177,372,
0,441,492,129,182,369,
0,451,556,127,181,365,
0,481,547,127,179,361,
0,475,541,127,177,359,
0,468,535,159,176,355,
0,463,527,158,175,359,
0,458,521,156,173,356,
0,454,515,155,172,353,
0,448,509,153,171,350,
0,444,502,152,169,347,
0,440,563,152,182,344,
0,486,569,150,180,340,
0,480,562,149,179,337,
0,473,555,147,177,335,
0,467,548,146,176,332,
0,462,541,145,175,352,
0,456,535,143,173,349,
0,451,528,143,172,345,
0,448,523,142,171,343,
0,443,515,141,168,339,
0,438,567,140,174,335,
0,489,559,139,172,333,
0,483,551,137,171,329,
0,478,543,140,169,327,
0,472,537,139,167,335,
0,466,531,138,167,351,
0,461,524,136,166,347,
0,455,519,135,164,344,
0,451,512,135,163,340,
0,446,505,134,162,337,
0,441,579,132,172,334,
0,488,572,131,171,331,
0,483,563,131,169,327,
0,478,557,130,167,325,
0,471,550,144,167,366,
0,465,543,143,166,359,
0,460,536,142,164,357,
0,455,530,140,163,353,
0,450,524,139,162,350,
0,446,516,137,167,347,
0,441,594,137,179,344,
0,487,585,135,177,340,
0,481,579,142,176,337,
0,476,571,143,174,334,
0,470,564,142,173,367,
0,463,557,141,171,363,
0,459,550,140,170,359,
0,454,543,138,168,355,
0,449,537,137,167,352,
0,444,534,135,170,349,
0,448,582,135,169,345,
0,470,574,134,167,343,
0,464,567,133,167,339,
0,459,560,131,165,335,
0,452,552,131,163,352,
0,448,545,129,163,348,
0,443,539,129,161,345,
0,439,532,127,159,342,
0,433,527,127,159,338,
0,430,592,126,177,335,
0,465,585,125,175,332,
0,460,577,124,174,329,
0,454,571,167,172,326,
0,449,563,164,171,323,
0,444,556,163,169,367,
0,438,550,161,167,364,
0,433,543,159,167,359,
0,429,536,159,166,356,
0,425,530,158,164,353,
0,421,583,156,176,350,
0,463,575,155,174,346,
0,457,568,153,172,344,
0,452,561,169,171,339,
0,448,554,167,169,342,
0,441,547,166,167,348,
0,436,540,164,167,344,
0,432,534,163,166,341,
0,428,527,161,164,337,
0,423,521,160,163,335,
0,419,541,159,172,332,
0,460,534,158,171,328,
0,455,527,156,168,326,
0,449,520,156,167,323,
0,444,515,154,166,368,
0,439,508,152,164,361,
0,434,504,152,163,359,
0,430,498,150,162,355,
0,425,492,149,161,352,
0,420,487,147,159,348,
0,417,547,147,169,344,
0,457,540,145,167,342,
0,452,533,180,166,344,
0,448,526,198,164,340,
0,443,520,196,163,377,
0,436,513,193,162,372,
0,432,508,192,161,369,
0,428,502,190,159,365,
0,423,496,189,158,361,
0,419,491,188,166,358,
0,437,541,185,182,355,
0,461,534,184,180,352,
0,455,527,211,179,348,
0,451,521,258,177,344,
0,444,515,255,176,348,
0,440,508,252,174,344,
0,435,503,250,173,340,
0,431,497,248,172,337,
0,426,492,246,171,335,
0,422,486,243,174,332,
0,465,543,241,172,328,
0,460,537,240,171,326,
0,455,531,238,169,323,
0,449,524,236,167,319,
0,444,518,234,167,362,
0,439,511,231,166,358,
0,434,505,230,164,353,
0,430,499,228,163,350,
0,425,494,227,161,347,
0,421,549,224,176,344,
0,458,585,223,173,340,
0,452,577,221,172,337,
0,448,571,243,170,335,
0,443,563,241,169,355,
0,437,556,239,167,367,
0,432,550,236,167,363,
0,428,543,234,165,359,
0,423,536,231,163,355,
0,419,530,231,163,352,
0,415,600,228,188,348,
0,472,589,227,185,345,
0,466,582,224,184,342,
0,461,574,223,182,339,
0,455,567,221,180,361,
0,449,560,220,179,358,
0,445,553,217,177,352,
0,440,546,216,176,350,
0,435,540,214,175,346,
0,431,534,212,173,343,
0,427,565,211,189,339,
0,483,556,209,187,336,
0,478,548,207,185,334,
0,472,542,211,184,331,
0,467,536,208,183,352,
0,460,528,207,181,348,
0,455,523,205,179,344,
0,451,516,204,178,340,
0,446,511,201,176,337,
0,441,505,199,187,334,
0,457,520,199,200,331,
0,492,514,198,199,327,
0,487,508,196,196,325,
0,481,502,194,195,322,
0,476,496,193,193,322,
0,468,491,192,192,319,
0,463,486,190,191,316,
0,459,480,189,188,313,
0,454,476,188,188,311,
0,449,498,187,227,308,
0,492,595,185,225,305,
0,486,587,184,223,303,
0,481,579,183,221,300,
0,475,572,181,219,298,
0,470,564,179,217,312,
0,463,558,179,216,308,
0,458,551,177,214,305,
0,454,543,176,211,302,
0,448,537,174,210,300,
0,444,585,173,222,297,
0,504,591,172,220,295,
0,498,583,171,217,292,
0,492,576,169,216,290,
0,487,569,167,214,304,
0,481,562,167,211,317,
0,475,555,166,210,313,
0,470,548,164,208,310,
0,464,542,163,207,307,
0,459,536,162,206,304,
0,455,594,161,225,302,
0,514,583,159,222,299,
0,508,575,159,220,295,
0,502,568,158,218,294,
0,496,561,157,216,302,
0,490,554,156,215,299,
0,483,547,154,213,295,
0,479,541,153,211,293,
0,473,535,152,210,291,
0,468,528,151,207,287,
0,463,569,150,220,286,
0,519,560,148,217,284,
0,513,552,148,216,281,
0,507,545,147,214,279,
0,502,539,171,211,319,
0,496,532,167,210,316,
0,488,526,167,208,313,
0,483,519,165,207,309,
0,478,514,163,205,307,
0,473,508,163,214,304,
0,491,566,161,224,301,
0,505,556,159,222,298,
0,499,550,210,220,295,
0,493,543,207,218,293,
0,487,536,205,216,316,
0,482,529,203,215,312,
0,476,523,201,212,310,
0,471,517,199,211,306,
0,465,511,198,209,304,
0,460,507,196,232,301,
0,508,583,195,231,298,
0,502,574,193,229,295,
0,496,567,191,227,293,
0,491,560,190,224,290,
0,485,552,188,223,321,
0,480,545,187,221,318,
0,472,540,185,220,315,
0,467,532,184,217,311,
0,463,526,182,216,307,
0,457,576,180,224,305,
0,513,588,179,222,302,
0,507,579,177,219,300,
0,501,572,176,217,297,
0,496,563,175,216,304,
0,489,557,174,214,308,
0,484,551,172,212,305,
0,478,543,171,211,303,
0,472,536,169,209,300,
0,467,531,167,207,297,
0,463,649,167,222,294,
0,515,638,166,220,291,
0,510,627,164,217,289,
0,504,619,163,216,287,
0,497,611,162,215,319,
0,492,603,172,212,316,
0,487,595,170,211,312,
0,480,588,167,209,310,
0,475,580,167,207,305,
0,470,574,166,206,304,
0,465,687,164,208,300,
0,543,675,163,207,297,
0,537,664,161,204,295,
0,531,655,160,203,292,
0,524,646,159,201,337,
0,519,637,158,199,334,
0,513,629,157,199,331,
0,505,621,156,197,327,
0,500,613,155,195,323,
0,495,606,153,201,321,
0,510,642,152,216,318,
0,523,632,151,214,315,
0,517,622,150,211,312,
0,511,614,148,210,310,
0,504,606,147,208,312,
0,499,599,147,207,310,
0,494,591,145,205,307,
0,487,583,145,204,304,
0,481,577,143,201,300,
0,476,570,143,222,298,
0,516,615,142,221,295,
0,509,607,140,219,293,
0,504,596,140,216,291,
0,497,588,139,215,287,
0,492,582,137,213,298,
0,486,574,137,211,295,
0,481,568,135,209,292,
0,475,560,135,207,289,
0,470,554,134,206,287,
0,465,602,133,219,284,
0,499,621,131,217,282,
0,493,612,131,216,280,
0,487,603,131,212,278,
0,482,595,130,211,280,
0,476,587,135,209,288,
0,472,579,134,207,286,
0,466,573,133,206,284,
0,460,566,131,204,280,
0,455,559,131,203,278,
0,451,659,130,227,275,
0,504,648,129,224,273,
0,498,639,127,223,271,
0,492,628,211,220,269,
0,487,620,208,219,336,
0,481,612,206,216,332,
0,476,604,204,215,327,
0,471,597,203,214,326,
0,464,590,199,211,321,
0,459,583,199,209,319,
0,455,643,197,220,316,
0,519,633,195,217,312,
0,513,624,194,216,310,
0,508,614,192,214,307,
0,502,607,191,211,325,
0,496,599,190,210,321,
0,490,591,188,208,319,
0,485,583,186,207,316,
0,478,575,184,205,312,
0,473,569,183,204,309,
0,503,647,182,213,306,
0,519,638,180,211,304,
0,512,629,179,209,300,
0,506,619,177,207,298,
0,500,611,176,206,323,
0,495,603,175,204,319,
0,489,595,174,203,317,
0,483,588,172,201,313,
0,478,580,171,199,310,
0,472,574,169,215,307,
0,536,632,167,213,304,
0,528,623,167,211,302,
0,522,615,166,209,299,
0,516,604,164,207,295,
0,510,596,191,206,316,
0,504,589,189,204,312,
0,499,582,188,203,310,
0,492,575,185,201,307,
0,487,568,184,199,304,
0,481,590,183,230,300,
0,540,580,181,227,297,
0,533,573,179,225,295,
0,527,566,178,224,292,
0,520,557,176,221,317,
0,514,551,180,219,329,
0,508,544,179,217,327,
0,503,538,177,216,323,
0,496,532,176,214,319,
0,491,527,174,212,316,
0,486,575,173,211,313,
0,536,567,172,209,311,
0,528,560,170,207,307,
0,523,551,168,206,305,
0,516,543,167,204,347,
0,510,537,166,203,343,
0,504,531,165,201,339,
0,499,524,163,199,335,
0,492,519,163,198,332,
0,487,513,161,196,329,
0,481,569,159,208,326,
0,527,562,159,207,323,
0,519,555,158,205,319,
0,514,548,157,203,317,
0,508,540,156,201,317,
0,502,532,155,199,314,
0,496,527,153,198,312,
0,491,520,152,196,308,
0,484,514,151,195,306,
0,480,509,150,201,303,
0,502,575,148,214,300,
0,515,567,147,212,297,
0,510,560,147,211,295,
0,504,551,145,208,292,
0,498,543,144,206,295,
0,492,537,143,205,292,
0,487,531,143,203,290,
0,481,524,142,201,287,
0,475,519,140,199,285,
0,470,524,140,199,282,
0,492,615,139,197,280,
0,486,607,137,195,278,
0,480,599,179,194,275,
0,475,589,176,193,273,
0,470,582,175,191,276,
0,465,574,173,190,273,
0,460,568,172,188,271,
0,455,560,171,187,269,
0,449,553,169,185,267,
0,446,604,167,218,264,
0,512,614,166,216,263,
0,505,605,164,214,260,
0,500,598,168,212,263,
0,494,588,167,210,284,
0,489,580,166,208,297,
0,483,573,165,207,294,
0,478,566,163,204,291,
0,472,559,162,203,288,
0,466,551,160,201,286,
0,461,617,159,210,283,
0,508,608,158,207,280,
0,502,600,157,206,278,
0,496,592,171,204,275,
0,490,583,169,203,337,
0,484,575,172,200,333,
0,480,568,169,199,329,
0,475,561,167,198,327,
0,469,555,167,196,323,
0,463,548,165,195,320,
0,458,646,163,230,317,
0,500,636,163,227,313,
0,494,627,161,226,312,
0,488,619,159,224,308,
0,483,609,159,223,326,
0,478,601,158,220,322,
0,472,593,156,218,319,
0,467,586,155,216,316,
0,462,579,153,215,312,
0,455,572,152,215,310,
0,490,611,152,216,307,
0,511,603,150,214,304,
0,504,595,149,212,301,
0,499,588,147,211,299,
0,493,578,147,209,312,
0,487,571,145,207,310,
0,482,564,144,206,307,
0,477,558,143,204,304,
0,472,551,143,203,300,
0,465,544,141,207,297,
0,520,556,140,206,295,
0,513,548,139,204,292,
0,508,542,146,203,290,
0,502,536,144,201,287,
0,496,527,143,199,285,
0,490,522,142,198,283,
0,485,516,141,195,280,
0,480,511,140,195,278,
0,475,505,139,193,275,
0,468,561,137,207,273,
0,512,587,136,206,271,
0,506,579,135,204,269,
0,500,572,135,202,267,
0,495,564,134,200,286,
0,489,556,132,199,300,
0,483,548,131,197,296,
0,478,542,131,195,294,
0,473,536,130,194,291,
0,467,529,129,192,289,
0,462,579,127,204,287,
0,504,572,127,203,283,
0,497,564,128,200,280,
0,492,557,179,199,278,
0,487,550,177,198,316,
0,481,542,176,195,312,
0,476,536,174,193,310,
0,471,529,173,192,306,
0,465,523,171,191,304,
0,460,516,169,190,301,
0,454,560,167,201,298,
0,497,552,167,199,295,
0,491,545,166,198,292,
0,486,539,163,195,289,
0,480,532,163,195,344,
0,475,524,161,192,339,
0,469,518,160,191,336,
0,463,512,159,190,333,
0,460,507,158,188,330,
0,454,500,156,194,327,
0,470,611,155,204,323,
0,491,603,153,201,319,
0,485,595,203,199,317,
0,480,587,199,199,315,
0,473,579,198,197,312,
0,468,571,196,195,308,
0,463,563,195,193,306,
0,459,556,193,192,304,
0,454,550,192,190,301,
0,449,551,190,211,298,
0,485,604,188,209,295,
0,479,595,187,207,292,
0,473,588,184,206,290,
0,467,579,184,204,287,
0,463,572,182,202,312,
0,457,563,180,199,308,
0,452,556,179,199,305,
0,448,550,177,196,302,
0,443,543,176,195,300,
0,439,600,175,207,296,
0,493,612,173,206,294,
0,487,604,172,204,291,
0,482,595,171,202,289,
0,476,588,169,199,313,
0,472,580,167,199,325,
0,465,572,167,196,321,
0,460,564,166,195,319,
0,455,558,164,193,316,
0,451,551,163,192,312,
0,447,625,161,207,310,
0,510,615,159,205,306,
0,504,608,159,203,304,
0,498,600,158,201,300,
0,492,591,157,199,350,
0,487,584,156,199,346,
0,481,575,155,196,343,
0,476,568,153,195,339,
0,471,561,152,193,335,
0,465,555,152,192,333,
0,461,665,150,207,329,
0,502,655,148,206,326,
0,495,646,147,204,350,
0,489,638,215,203,345,
0,484,628,211,201,343,
0,479,620,210,199,339,
0,473,611,207,198,335,
0,468,603,206,195,332,
0,463,595,204,194,329,
0,459,588,203,199,327,
0,454,648,201,208,323,
0,510,639,199,206,319,
0,504,630,198,204,317,
0,497,622,196,203,314,
0,492,614,194,201,313,
0,487,606,193,199,311,
0,481,596,191,198,307,
0,476,588,190,196,305,
0,471,581,188,195,303,
0,465,577,187,216,300,
0,505,649,185,215,297,
0,499,639,184,212,294,
0,494,632,182,211,291,
0,487,624,180,209,289,
0,483,615,179,207,315,
0,477,608,177,206,312,
0,472,598,176,203,308,
0,467,590,175,201,305,
0,462,583,174,199,303,
0,456,600,172,207,300,
0,502,591,172,206,297,
0,496,583,169,204,294,
0,491,575,169,202,291,
0,484,569,167,199,302,
0,479,563,167,199,316,
0,473,556,166,197,312,
0,468,548,164,195,310,
0,463,542,163,194,306,
0,459,536,161,192,304,
0,454,591,161,207,301,
