=~=~=~=~=~=~=~=~=~=~=~= PuTTY log 2021.04.22 12:36:19 =~=~=~=~=~=~=~=~=~=~=~=
,1,289,135,108,497,
0,4262,51,472,
0,60,731,259,51,466,
,660,270,54,489,
0,62,711,268,53,484,
0,61,765,265,52,480,
0,61,753,263,52,476,
0,60,742,262,51,472,
0,60,731,259,51,466,
0,60,723,257,51,498,
0,60,711,255,50,
0,61,765,265,52,480,
0,61,753,263,52,476,
0,60,742,262,51,472,
0,60,731,259,51,466,
0,60,723,257,51,498,
0,60,711,255,50,494,
0,60,702,254,50,488,
0,59,692,52,476,
0,60,742,262,51,472,
0,60,731,259,51,466,
0,60,723,257,51,498,
0,60,711,255,50,494,
0,60,702,254,50,488,
0,59,692,252,49,483,
0,59,686,251,49,478,
0,58,676,248,48,44,
0,57,831,247,48,470,
0,57,828,244,48,464,
0,57,818,2StartUp!
123,68,596,151,53,461,
0,67,595,150,52,459,
0,67,591,148,52,455,
0,67,585,148,51,451,
0,67,579,147,51,448,
0,66,574,147,51,447,
0,66,571,146,51,443,
0,65,566,149,51,454,
0,65,560,147,50,451,
0,64,556,147,49,448,
0,64,551,146,49,443,
0,63,545,145,49,440,
0,63,539,143,48,435,
0,63,532,143,49,432,
0,63,595,142,49,428,
0,64,587,140,48,423,
0,63,579,140,48,420,
0,63,572,139,48,417,
0,63,567,137,47,466,
0,62,560,136,47,461,
0,62,552,135,46,455,
0,62,546,135,46,451,
0,61,541,134,46,446,
0,60,535,133,45,443,
0,60,593,132,45,438,
0,60,603,131,45,434,
0,60,596,130,44,430,
0,59,588,129,44,427,
0,59,580,128,44,423,
0,58,574,129,44,444,
0,58,568,130,44,441,
0,57,563,129,43,438,
0,57,557,128,43,433,
0,57,550,127,42,428,
0,56,545,127,42,424,
0,56,624,126,45,420,
0,81,614,125,45,417,
0,88,606,124,45,414,
0,87,598,124,44,409,
0,86,591,123,44,406,
0,85,584,163,44,461,
0,84,577,161,43,455,
0,83,570,159,43,451,
0,83,564,158,43,446,
0,82,558,157,42,443,
0,81,551,156,47,439,
0,81,624,155,47,433,
0,84,616,153,46,430,
0,84,608,152,46,426,
0,84,600,152,45,422,
0,83,593,150,45,464,
1,83,587,178,44,466,
1,81,579,176,44,462,
1,81,572,175,44,457,
1,80,566,174,44,452,
2,79,560,172,43,448,
2,79,568,171,48,444,
2,78,635,169,48,440,
2,84,626,167,47,435,
2,83,620,167,47,431,
3,83,611,166,46,428,
3,82,604,184,46,483,
3,82,595,194,45,477,
3,81,590,192,46,472,
3,80,583,191,45,467,
3,79,575,189,44,463,
3,79,568,188,44,457,
3,79,649,186,55,453,
3,83,641,184,54,448,
3,103,632,183,53,445,
3,102,624,182,53,440,
3,100,615,180,52,436,
3,99,608,179,52,463,
3,99,600,178,51,459,
3,98,594,176,51,454,
3,97,587,175,51,451,
3,96,579,174,50,446,
3,96,572,172,57,441,
3,95,628,172,56,436,
3,98,619,170,56,433,
3,97,611,169,56,429,
3,96,603,167,56,425,
3,96,597,167,55,471,
3,95,589,184,54,465,
3,94,582,183,54,460,
3,94,575,181,54,455,
3,92,569,179,53,451,
3,92,563,178,52,448,
3,91,582,177,59,443,
3,91,616,176,59,438,
3,90,610,174,59,433,
3,89,602,172,57,429,
3,88,595,172,57,427,
3,88,588,195,56,482,
3,88,579,204,56,476,
3,87,574,202,56,471,
3,86,568,199,56,467,
3,86,560,199,55,462,
3,85,553,198,55,457,
3,84,618,195,57,452,
3,88,608,194,56,449,
3,93,600,193,56,444,
3,92,593,192,56,440,
3,92,587,190,55,435,
3,91,579,189,55,482,
3,90,572,188,54,476,
3,89,565,187,54,472,
3,89,560,185,54,466,
2,88,553,184,53,463,
3,88,547,183,54,457,
3,87,604,181,54,453,
3,86,599,179,54,448,
3,86,591,178,54,445,
2,84,583,177,53,440,
3,84,575,176,52,463,
3,83,570,175,52,491,
3,83,563,174,51,487,
2,82,556,173,51,481,
2,81,550,172,51,476,
2,81,544,170,50,472,
2,80,539,169,56,467,
2,79,564,167,56,463,
2,86,557,167,55,458,
3,85,551,166,55,454,
2,84,545,164,54,449,
2,83,539,177,54,446,
2,83,532,176,54,441,
2,83,526,175,53,436,
2,81,521,173,52,432,
2,81,516,172,52,430,
2,80,511,171,51,425,
2,79,615,169,61,422,
2,79,608,167,60,417,
2,80,600,167,60,415,
2,79,591,166,60,411,
2,79,583,164,59,408,
2,78,579,177,58,467,
1,78,572,176,57,463,
2,77,564,175,57,457,
2,76,558,173,57,454,
2,76,552,172,56,448,
1,75,546,171,56,445,
2,75,627,169,57,440,
1,97,619,167,57,435,
1,99,612,167,56,432,
1,98,604,166,56,429,
1,97,596,164,56,424,
1,97,589,166,56,467,
1,96,583,165,56,462,
1,95,575,163,55,456,
1,95,569,163,54,453,
1,94,562,161,54,448,
1,93,583,160,63,444,
1,92,644,159,65,440,
1,92,635,158,63,435,
1,91,626,157,63,432,
1,91,618,156,63,427,
1,89,611,158,63,452,
1,89,604,162,62,448,
1,88,596,161,62,444,
1,88,589,159,61,440,
1,87,583,159,60,435,
1,86,575,157,60,431,
1,86,627,156,61,427,
1,85,623,155,60,423,
1,94,615,153,60,419,
1,93,608,153,60,415,
1,92,600,152,59,412,
1,92,593,156,58,455,
0,91,587,156,57,451,
1,89,579,153,57,448,
1,89,572,153,57,443,
0,88,566,152,56,438,
1,88,560,151,56,434,
1,88,615,150,57,430,
1,89,606,148,56,425,
0,89,598,147,56,422,
0,88,592,147,56,417,
0,88,584,145,56,428,
0,87,577,161,55,469,
0,87,570,159,54,463,
0,86,563,159,54,459,
0,85,558,157,54,454,
0,84,551,156,53,450,
0,83,545,155,53,446,
0,83,631,153,52,440,
0,83,624,152,52,436,
0,82,615,152,51,433,
0,81,608,151,51,429,
0,81,600,150,51,482,
0,80,593,148,50,475,
0,79,585,147,50,472,
0,79,579,146,49,466,
0,79,572,145,49,461,
0,78,567,143,49,455,
0,77,563,143,51,452,
0,76,600,142,51,448,
0,76,592,141,50,444,
0,76,587,140,51,440,
0,75,579,139,50,435,
0,75,572,139,49,487,
0,74,564,137,49,480,
0,73,560,136,48,476,
0,72,553,135,48,472,
0,71,547,135,48,466,
0,71,540,134,48,462,
0,71,604,133,48,456,
0,71,595,132,48,452,
0,70,587,131,48,448,
0,70,579,131,47,444,
0,69,572,129,47,440,
0,68,567,145,47,489,
0,68,560,143,46,486,
0,68,553,143,46,480,
0,67,546,141,45,475,
0,67,542,140,45,470,
0,66,536,139,46,467,
0,65,600,138,47,462,
0,79,591,137,47,456,
0,79,587,135,46,452,
0,78,579,135,46,449,
0,77,572,134,46,463,
0,77,564,152,45,495,
0,76,559,151,45,489,
0,75,552,150,44,486,
0,75,545,149,44,480,
0,74,540,147,44,475,
0,73,536,146,45,471,
0,73,557,145,45,467,
0,75,550,144,44,462,
0,75,543,143,44,457,
0,73,538,142,44,452,
0,73,531,160,43,489,
0,72,526,159,43,484,
0,71,519,158,43,480,
0,71,515,156,42,474,
0,71,510,155,42,470,
0,70,504,154,41,465,
0,70,551,152,44,460,
0,78,543,152,44,455,
0,92,538,150,44,451,
0,91,532,174,43,448,
0,90,526,172,43,444,
0,89,519,188,42,466,
0,88,515,186,42,461,
0,88,508,184,42,457,
0,88,503,184,41,452,
0,87,497,182,41,448,
0,86,494,180,40,444,
0,86,574,179,40,440,
0,90,566,177,39,435,
0,89,558,176,39,431,
0,88,553,175,39,427,
0,88,546,174,39,423,
0,87,540,174,39,473,
0,87,533,172,39,467,
0,86,527,171,39,463,
0,85,522,169,38,459,
0,84,516,167,38,455,
0,83,518,167,38,449,
0,83,582,166,38,445,
0,82,574,164,38,440,
0,81,567,163,37,438,
0,81,560,162,37,433,
0,80,552,161,36,429,
0,79,547,162,36,425,
0,79,540,161,35,422,
0,79,534,159,35,417,
0,78,527,159,35,414,
0,77,524,158,35,410,
0,76,572,156,42,408,
0,76,575,156,41,403,
0,76,568,154,41,399,
0,76,562,153,41,396,
0,75,555,152,39,394,
0,75,548,153,39,467,
0,74,542,152,39,461,
0,73,537,151,39,455,
0,72,531,150,39,452,
0,71,524,148,39,448,
0,71,519,147,39,443,
0,71,627,147,39,439,
0,73,616,145,39,435,
0,73,608,144,38,431,
0,72,600,143,38,427,
0,71,595,143,38,423,
0,71,587,142,38,470,
0,71,579,141,37,464,
0,71,572,140,37,460,
0,70,568,139,36,455,
0,69,560,137,36,449,
0,69,553,137,41,447,
0,68,594,135,40,441,
0,76,586,135,39,438,
0,76,580,134,39,433,
0,75,573,133,39,430,
0,75,566,132,39,425,
0,73,559,131,39,422,
0,73,553,131,39,417,
0,71,547,130,39,415,
0,71,540,129,42,411,
0,71,535,128,42,407,
0,71,547,127,48,403,
0,70,593,127,47,399,
0,75,585,126,47,396,
0,74,577,125,46,393,
0,73,572,124,46,390,
0,72,565,138,46,443,
0,71,558,137,45,438,
0,71,551,135,44,432,
0,71,546,135,44,428,
0,70,540,134,44,425,
0,70,534,132,44,420,
0,70,579,131,45,415,
0,71,572,131,44,412,
0,81,565,130,44,409,
0,80,558,129,44,406,
0,79,551,127,44,401,
0,79,546,148,44,463,
0,79,540,147,43,459,
0,78,533,146,43,455,
0,78,527,144,42,450,
0,76,520,143,41,446,
0,76,516,142,43,441,
0,76,603,141,45,438,
0,78,595,140,44,433,
0,77,587,139,44,429,
0,76,581,137,44,424,
0,76,574,137,43,440,
0,75,567,149,43,483,
0,75,560,147,43,478,
0,73,555,147,42,472,
0,73,547,145,41,468,
0,72,541,144,41,463,
0,71,577,143,43,459,
0,71,600,142,42,454,
0,71,592,140,41,451,
0,71,585,140,41,446,
0,70,577,139,40,441,
0,70,572,140,40,493,
0,69,564,139,39StartUp!
123,60,518,163,33,467,
0,63,512,163,32,463,
0,79,510,161,32,460,
0,79,505,161,31,456,
0,79,500,159,31,454,
0,79,496,159,31,451,
0,78,493,158,31,497,
0,77,489,167,31,507,
0,77,485,167,31,504,
0,76,482,166,31,499,
0,76,479,164,31,494,
0,76,474,163,30,489,
0,75,469,162,30,484,
0,75,517,161,30,480,
0,73,511,159,30,474,
0,73,505,158,30,471,
0,72,499,157,29,465,
0,71,493,156,29,461,
0,71,489,156,29,455,
0,71,483,154,29,453,
0,70,478,153,28,448,
0,70,472,152,28,444,
0,70,468,151,28,440,
0,68,463,150,28,437,
0,67,548,149,27,433,
0,67,541,148,28,428,
0,67,536,147,27,424,
0,67,529,146,27,422,
0,66,523,145,27,418,
0,66,516,144,26,472,
0,65,512,143,26,467,
0,65,508,143,26,463,
0,65,502,142,25,459,
0,64,496,142,25,454,
0,63,492,140,39,449,
0,63,524,140,41,445,
0,113,518,138,40,441,
0,112,511,137,39,438,
0,111,505,137,39,433,
0,110,499,136,39,428,
0,109,494,166,39,424,
0,108,487,163,38,420,
0,107,483,163,38,416,
0,107,478,161,38,413,
0,105,472,159,47,409,
0,104,560,159,47,406,
0,124,555,157,46,402,
1,122,547,156,46,399,
1,121,540,155,45,395,
1,120,534,153,45,459,
1,119,527,157,44,454,
2,118,521,156,44,449,
3,117,515,154,44,444,
2,116,510,153,43,440,
3,115,504,152,43,435,
3,114,587,151,48,431,
3,113,577,150,48,426,
3,112,571,148,47,423,
3,112,563,147,47,418,
3,111,556,146,46,419,
3,110,551,227,46,470,
3,109,544,224,46,464,
3,108,537,222,45,460,
4,108,531,220,45,455,
3,107,526,219,44,451,
4,105,591,216,44,447,
4,104,615,215,44,441,
4,104,606,214,44,438,
4,103,598,211,43,433,
4,103,591,210,43,429,
4,103,583,208,42,481,
4,102,575,207,41,476,
4,100,568,205,41,470,
4,100,561,204,41,465,
4,99,556,202,41,460,
4,98,551,199,44,456,
4,97,618,199,44,451,
4,119,609,198,43,448,
4,118,601,196,43,443,
4,121,593,195,42,439,
4,120,587,193,41,499,
4,119,580,192,41,492,
4,118,574,191,41,487,
4,116,567,189,41,481,
4,115,560,188,40,476,
4,115,553,186,40,472,
4,114,551,184,40,467,
4,138,544,184,39,463,
4,135,538,183,39,458,
3,135,532,181,39,454,
4,134,526,179,39,472,
3,132,520,178,39,502,
4,131,515,177,39,496,
3,131,509,176,38,490,
4,129,504,175,38,485,
4,128,499,173,38,480,
3,127,513,172,38,475,
3,126,507,171,37,470,
3,126,501,169,37,465,
3,125,495,167,36,462,
3,124,489,167,36,457,
3,123,484,167,35,511,
3,121,480,166,35,505,
3,121,475,165,35,499,
3,120,470,163,35,494,
3,119,465,163,35,487,
3,118,499,161,39,483,
3,117,516,160,39,478,
3,116,510,159,39,473,
3,115,504,158,38,468,
3,115,499,156,38,463,
3,114,495,188,37,516,
3,113,487,187,37,510,
3,112,483,184,36,504,
3,111,478,184,36,500,
3,111,472,182,36,496,
3,110,467,180,46,491,
3,109,534,179,45,485,
3,108,527,177,44,480,
3,108,520,176,44,475,
3,107,515,175,44,470,
3,105,508,177,43,499,
3,105,502,192,43,494,
3,103,496,190,43,487,
3,103,492,188,42,483,
3,103,487,187,41,478,
3,102,481,185,43,472,
3,101,559,184,44,467,
3,100,551,183,44,463,
3,99,543,181,43,460,
3,99,537,179,43,455,
3,98,532,178,43,451,
2,97,526,177,42,448,
3,97,519,176,42,443,
2,96,513,175,41,439,
2,96,509,173,41,435,
3,95,503,172,40,431,
2,94,497,171,41,428,
2,94,553,169,40,423,
2,93,546,167,39,419,
2,92,542,167,39,415,
2,92,535,166,39,413,
2,91,527,165,39,480,
2,91,521,194,39,474,
1,90,517,192,39,468,
2,89,511,191,38,465,
2,88,505,189,38,460,
2,88,499,188,38,455,
1,88,549,186,44,451,
2,87,593,184,43,448,
1,86,585,184,43,443,
1,86,577,182,42,439,
1,85,572,180,42,433,
1,84,565,180,42,445,
1,83,558,179,41,440,
2,83,551,178,41,435,
1,83,546,177,40,431,
1,82,540,176,39,428,
1,81,534,175,39,423,
1,81,620,173,43,419,
1,81,614,172,43,415,
1,79,605,170,42,413,
1,79,598,169,41,409,
1,79,590,167,41,406,
1,79,583,185,41,448,
1,78,577,184,40,444,
1,77,569,182,39,440,
1,77,563,180,39,435,
1,76,556,179,39,432,
1,76,551,177,43,427,
1,75,619,176,42,423,
1,75,609,175,41,419,
1,75,601,174,41,415,
1,74,595,172,41,412,
0,73,588,192,40,451,
0,73,580,195,39,458,
0,72,574,193,39,453,
1,71,568,192,39,448,
0,71,561,190,39,444,
0,71,555,188,39,440,
1,71,631,187,39,435,
1,70,639,185,39,431,
0,83,631,184,39,428,
0,83,623,183,39,423,
0,83,614,182,38,419,
1,83,608,220,38,486,
0,81,600,217,38,481,
0,81,593,216,37,476,
1,80,585,214,36,471,
0,79,579,211,36,466,
0,79,572,210,36,463,
0,79,631,208,38,457,
0,78,621,207,38,452,
0,77,615,205,38,448,
0,76,607,204,37,444,
0,76,600,203,36,440,
0,76,591,220,36,495,
0,75,583,217,36,489,
0,74,579,216,35,483,
0,73,572,214,35,480,
0,73,564,212,35,475,
0,72,558,210,39,470,
0,71,639,209,39,465,
0,79,630,207,39,461,
0,79,620,206,38,456,
0,78,612,204,38,451,
0,77,607,203,38,507,
0,76,599,201,37,502,
0,76,591,199,36,496,
0,76,583,198,36,491,
0,75,579,196,36,485,
0,74,572,195,36,481,
0,73,581,194,45,476,
0,73,630,192,44,472,
0,72,623,191,44,466,
0,71,615,190,43,463,
0,71,606,188,43,458,
0,71,599,187,43,480,
0,70,592,186,42,473,
0,70,585,184,42,470,
0,69,578,184,41,464,
0,68,572,182,41,460,
0,68,566,180,40,455,
0,67,616,179,42,451,
0,71,608,178,41,448,
0,83,600,177,41,443,
0,83,591,176,40,439,
0,82,585,174,40,435,
0,81,579,173,39,500,
0,80,572,172,39,495,
0,79,564,171,39,489,
0,79,560,169,39,484,
0,78,552,167,39,480,
0,78,546,167,50,476,
0,78,577,167,54,471,
0,77,571,166,54,465,
0,77,564,164,53,462,
0,76,557,163,52,457,
0,76,550,162,52,476,
0,75,545,161,51,492,
0,75,539,159,51,487,
0,74,532,159,51,483,
0,73,527,158,50,478,
0,72,522,156,50,472,
0,71,516,156,51,469,
0,71,588,155,51,463,
0,71,580,153,50,459,
0,71,575,152,50,455,
0,70,568,152,50,450,
0,70,560,151,49,492,
0,69,553,159,49,486,
0,68,547,158,48,480,
0,68,542,156,48,475,
0,67,536,156,47,471,
0,67,529,155,47,465,
0,67,590,153,47,460,
0,66,583,152,47,455,
0,65,575,151,47,452,
0,65,568,150,46,448,
0,65,560,148,46,444,
0,64,556,147,45,487,
0,63,549,147,45,483,
0,63,542,146,44,477,
0,63,536,145,44,472,
0,63,531,143,44,467,
0,62,525,143,44,463,
0,62,583,142,44,459,
0,62,575,142,43,454,
0,62,569,140,43,449,
0,61,562,214,43,446,
0,61,555,211,43,460,
0,60,548,209,42,503,
0,60,543,207,41,497,
0,60,536,206,41,493,
0,59,530,204,41,487,
0,59,524,203,40,483,
0,59,519,201,54,478,
0,58,588,199,56,472,
0,67,580,199,56,468,
0,66,574,197,55,463,
0,66,566,195,54,459,
0,65,560,194,54,515,
0,65,553,192,54,511,
0,64,547,192,53,504,
0,63,540,190,52,499,
0,63,536,188,52,494,
0,63,529,187,51,489,
0,62,601,185,51,484,
0,62,591,184,51,480,
0,81,587,183,51,475,
0,81,579,182,51,471,
0,79,572,180,50,466,
0,79,564,179,49,495,
0,79,559,178,49,489,
0,78,552,177,49,485,
0,77,545,176,48,480,
0,77,539,175,48,475,
0,76,535,173,48,470,
0,76,591,172,47,465,
0,75,583,171,47,461,
0,75,575,169,47,456,
0,74,571,168,47,452,
0,73,563,167,46,448,
0,72,556,172,46,483,
0,71,550,171,45,479,
0,71,544,169,45,473,
0,71,538,167,44,468,
0,71,531,167,44,464,
0,70,526,166,44,460,
0,69,566,164,44,455,
0,71,560,163,44,450,
0,70,552,162,44,447,
0,69,546,161,43,443,
0,69,540,159,43,440,
0,68,535,165,42,435,
0,67,527,163,42,432,
0,67,522,163,41,428,
0,67,516,161,41,423,
0,66,512,159,41,419,
0,65,533,159,43,417,
0,65,583,158,42,413,
0,65,575,157,42,409,
0,74,571,156,41,406,
0,75,563,155,41,403,
0,74,556,156,41,462,
0,73,550,156,39,455,
0,73,544,155,40,451,
0,71,537,153,39,448,
0,71,531,152,39,443,
0,71,526,152,39,439,
0,71,603,150,40,434,
0,70,596,149,39,431,
0,70,588,148,39,427,
0,70,581,147,39,423,
0,69,575,146,39,419,
0,68,568,171,39,463,
0,67,561,169,38,460,
0,67,555,167,38,455,
0,67,547,167,38,450,
0,66,543,165,37,445,
0,65,536,163,37,442,
0,65,579,162,39,438,
0,68,572,161,39,433,
0,68,567,159,39,428,
0,67,560,159,39,425,
0,67,551,158,39,451,
0,67,545,161,38,463,
0,66,541,160,38,459,
0,65,535,159,38,455,
0,65,527,158,37,449,
0,64,522,156,37,445,
0,63,518,155,45,440,
0,63,585,154,45,437,
0,63,577,153,44,432,
0,63,571,157,44,428,
0,63,566,199,44,423,
0,62,558,196,43,487,
0,61,551,195,43,480,
0,61,544,193,43,475,
0,60,540,192,42,470,
0,60,533,190,41,465,
0,60,527,190,41,461,
0,60,685,188,44,455,
0,59,699,186,44,451,
0,59,688,184,43,447,
0,57,679,184,43,444,
0,57,669,183,42,440,
0,57,659,180,42,496,
0,56,653,179,41,491,
0,56,644,177,41,487,
0,56,636,177,41,481,
0,56,628,176,40,476,
0,55,622,175,39,472,
0,55,655,173,43,467,
0,55,646,172,43,463,
0,54,636,171,42,457,
0,60,630,169,41,453,
0,60,622,167,41,449,
0,59,614,201,41,499,
0,58,607,199,40,494,
0,57,600,197,39,487,
0,57,593,195,39,484,
0,56,587,194,39,479,
0,56,579,193,41,473,
0,56,628,191,41,470,
0,56,620,190,41,465,
0,64,611,188,40,460,
0,71,604,187,39,455,
0,71,598,185,39,496,
0,71,591,184,39,492,
0,71,583,183,39,487,
0,70,575,182,39,481,
0,69,571,180,39,476,
0,68,564,179,38,471,
0,67,609,178,38,467,
0,67,601,176,38,462,
0,67,593,175,37,457,
0,70,588,174,37,452,
0,68,580,172,36,449,
0,68,573,172,36,504,
0,67,566,170,35,498,
0,67,560,169,35,492,
0,67,553,167,35,488,
0,66,547,167,35,483,
0,65,542,165,35,479,
0,65,591,164,35,473,
0,64,583,163,35,470,
0,63,575,162,35,464,
0,63,568,161,34,460,
0,63,563,159,33,484,
0,63,556,158,34,513,
0,62,548,158,33,508,
0,62,542,156,33,502,
0,61,537,155,33,496,
0,60,531,154,32,492,
0,60,526,153,39,487,
0,60,596,152,39,483,
0,60,590,152,39,478,
0,59,583,150,39,473,
0,60,575,149,39,468,
0,60,568,148,38,497,
0,59,562,159,38,492,
0,59,556,158,37,486,
0,58,548,157,37,481,
0,57,542,156,36,476,
0,57,536,155,36,472,
0,57,551,153,41,467,
0,56,605,152,39,463,
0,58,596,152,39,458,
0,57,589,150,39,454,
0,57,583,149,39,449,
0,56,575,176,39,500,
0,56,568,175,39,495,
0,56,561,174,39,489,
0,56,556,172,38,484,
0,55,550,171,38,480,
0,55,543,169,38,476,
0,55,612,167,51,470,
0,54,606,167,50,465,
0,54,598,166,49,462,
0,55,590,164,49,457,
0,55,583,163,48,452,
0,54,577,166,48,495,
0,54,569,164,48,490,
0,53,563,163,47,485,
0,52,556,162,47,480,
0,52,551,161,47,475,
0,51,543,159,46,470,
0,51,614,159,46,466,
0,51,606,158,46,461,
0,51,598,156,46,455,
0,54,591,155,45,452,
0,53,583,153,45,463,
0,52,575,153,44,475,
0,52,569,152,44,470,
0,51,564,151,44,463,
0,51,558,150,43,460,
0,51,551,148,43,455,
0,51,594,147,57,451,
0,50,617,147,56,447,
0,50,609,145,56,444,
0,81,601,145,56,440,
0,80,593,143,55,435,
0,79,588,143,55,498,
0,79,580,142,54,494,
0,78,573,141,54,487,
0,78,567,140,53,483,
0,76,560,139,53,478,
0,76,554,138,52,473,
0,76,615,137,52,468,
0,75,606,136,52,463,
0,74,600,135,51,459,
0,73,591,135,51,455,
0,73,583,134,51,451,
0,72,576,174,50,512,
0,71,571,172,50,506,
0,71,564,171,49,500,
0,71,557,169,49,496,
0,70,550,167,49,491,
0,70,543,167,48,486,
0,69,591,166,48,480,
0,68,583,164,48,476,
0,68,575,163,47,472,
0,67,569,177,47,467,
0,67,563,175,47,505,
0,67,556,174,46,511,
0,66,550,173,46,505,
0,65,543,172,45,499,
0,65,539,169,45,494,
0,63,532,168,44,490,
0,63,527,167,44,484,
0,63,520,166,44,480,
0,99,516,164,44,475,
0,97,511,163,44,472,
0,96,505,163,43,466,
0,96,500,161,43,462,
0,95,496,160,42,457,
0,94,492,159,42,454,
0,93,487,158,41,449,
0,92,481,157,41,445,
0,92,478,156,41,440,
0,92,501,155,41,438,
0,91,494,153,39,433,
0,92,488,152,39,430,
0,92,484,152,39,425,
0,91,479,151,39,422,
0,90,474,203,39,460,
0,89,468,199,39,454,
0,88,463,198,39,449,
0,88,460,195,38,444,
0,88,455,194,38,441,
0,87,451,193,38,436,
0,86,494,192,37,432,
0,88,489,190,37,428,
0,88,483,188,36,424,
0,87,478,187,36,420,
0,87,472,185,36,436,
0,86,468,184,35,478,
0,85,463,183,35,473,
0,84,458,182,35,468,
0,83,454,180,35,463,
0,83,449,179,35,458,
0,83,446,177,34,455,
0,81,504,176,34,450,
0,116,496,175,33,446,
0,115,491,174,33,441,
0,113,486,172,33,436,
0,112,480,176,33,501,
0,111,474,174,33,495,
0,110,470,173,32,489,
0,109,465,172,31,483,
0,108,460,170,31,479,
0,108,455,168,31,473,
0,107,482,167,31,470,
0,105,476,167,31,465,
0,105,471,165,31,460,
0,103,465,164,31,455,
0,103,460,163,30,513,
0,103,455,164,30,512,
0,102,449,163,30,505,
0,101,445,162,30,500,
0,100,440,161,30,495,
0,99,438,159,29,489,
0,99,511,158,29,486,
0,98,504,158,29,480,
0,97,497,156,29,476,
0,97,492,155,28,471,
0,96,487,153,28,467,
0,95,481,153,28,514,
0,95,476,152,28,508,
0,94,472,151,28,502,
0,93,467,150,28,498,
0,92,461,149,28,492,
0,92,455,147,27,487,
0,91,496,147,27,483,
0,91,489,146,27,477,
0,89,483,145,27,473,
0,89,478,143,26,469,
0,88,472,143,26,487,
0,88,468,144,25,515,
0,88,463,143,25,510,
0,87,457,142,25,504,
0,86,453,141,25,499,
0,86,449,140,25,494,
0,85,444,140,28,489,
0,84,508,139,27,484,
0,86,501,137,27,480,
0,84,496,135,27,475,
0,84,491,135,26,471,
0,83,486,157,26,531,
0,83,480,188,25,523,
0,83,476,187,25,518,
0,81,470,184,25,513,
0,81,464,184,25,507,
0,80,460,182,25,502,
0,79,489,180,25,496,
0,103,511,179,25,491,
0,108,505,177,25,486,
0,107,499,176,25,483,
0,105,493,175,25,478,
0,105,487,243,24,531,
0,103,481,241,24,524,
0,103,476,239,24,518,
0,102,472,237,24,512,
0,102,466,235,24,507,
0,100,480,232,24,502,
0,99,523,231,24,496,
0,99,515,228,24,491,
0,98,510,227,24,487,
0,97,504,225,23,482,
0,97,497,224,23,514,
0,96,493,222,23,508,
0,95,487,220,23,504,
0,95,482,219,23,498,
0,94,477,217,22,493,
0,93,472,216,22,487,
0,92,513,214,23,483,
0,92,505,212,22,479,
0,91,499,211,22,473,
0,90,496,209,22,469,
0,89,489,207,22,465,
0,89,484,206,22,511,
0,88,479,205,22,504,
0,88,474,203,21,499,
0,87,469,202,21,495,
0,87,463,201,21,489,
0,86,459,199,22,485,
0,85,536,198,22,480,
0,91,528,196,22,476,
0,89,521,195,21,472,
0,89,515,193,21,466,
0,88,511,192,21,463,
0,88,504,191,21,491,
0,87,499,190,20,485,
0,86,493,188,20,480,
0,86,489,187,20,475,
0,85,483,185,19,470,
0,84,479,184,23,466,
0,83,473,184,22,461,
0,84,468,182,22,456,
0,84,465,180,22,452,
0,85,460,179,22,449,
0,84,455,183,22,503,
0,83,450,214,21,496,
0,83,447,211,21,491,
0,83,441,210,20,487,
0,82,438,208,21,481,
0,81,433,207,20,476,
0,81,449,205,24,472,
0,80,457,204,24,467,
0,80,452,203,23,463,
0,79,448,200,23,458,
0,79,444,199,23,454,
0,79,440,198,23,489,
0,78,434,196,22,484,
0,78,430,195,22,479,
0,77,427,193,22,473,
0,76,423,192,22,470,
0,76,419,191,27,465,
0,76,430,189,28,460,
0,96,426,188,28,455,
0,100,422,186,27,451,
0,99,417,185,27,448,
0,98,414,184,27,444,
0,97,409,183,27,484,
0,97,407,181,26,480,
0,96,403,179,26,476,
0,95,399,179,25,470,
0,95,396,177,25,465,
0,94,393,176,28,460,
0,93,513,175,28,456,
0,93,507,174,27,452,
0,92,501,173,27,448,
0,92,496,172,27,443,
0,91,491,171,27,487,
0,90,484,188,26,481,
0,89,480,185,25,476,
0,88,474,184,25,472,
0,88,470,183,25,466,
0,88,465,180,25,463,
0,88,547,179,28,457,
0,86,563,178,27,453,
0,110,558,176,27,448,
0,108,551,175,27,444,
0,108,543,174,27,440,
0,107,537,172,27,441,
0,105,531,172,26,438,
0,104,524,170,25,434,
0,103,518,169,25,430,
0,103,512,167,26,425,
0,103,507,167,28,422,
0,102,557,166,28,418,
0,100,550,164,28,414,
0,99,543,163,27,411,
0,99,537,162,27,407,
0,98,531,169,27,463,
0,97,525,167,26,457,
0,97,519,167,26,452,
0,96,514,165,25,448,
0,95,508,163,25,444,
0,95,503,163,25,440,
0,94,552,161,33,435,
0,93,547,160,32,431,
0,93,540,159,32,428,
0,92,533,158,31,423,
0,92,527,157,31,419,
0,91,522,156,31,465,
0,90,516,155,31,461,
0,89,510,154,31,455,
0,89,504,153,31,451,
0,88,499,152,30,447,
0,88,494,151,30,444,
0,87,569,150,31,439,
0,87,562,149,31,434,
0,86,556,147,31,430,
0,85,550,147,30,425,
0,84,543,146,30,423,
0,83,536,171,29,466,
0,83,530,169,29,461,
0,83,525,167,29,455,
0,81,519,167,29,452,
0,81,513,166,28,448,
0,80,511,164,29,443,
0,80,559,163,28,439,
0,81,551,161,28,435,
0,80,545,160,28,431,
0,79,539,159,28,427,
0,79,534,171,28,486,
0,79,527,199,27,480,
0,78,520,198,27,476,
0,78,515,195,27,470,
0,77,510,194,27,465,
0,76,504,192,27,461,
0,76,566,192,27,456,
0,76,561,190,27,451,
0,75,556,188,26,448,
0,74,548,187,26,444,
0,73,542,185,26,440,
0,73,536,184,26,488,
0,73,530,183,25,483,
0,71,524,181,25,479,
0,71,518,180,25,474,
0,71,512,179,24,468,
0,71,508,177,25,463,
0,71,585,176,28,459,
0,71,576,175,27,455,
0,71,569,174,27,451,
0,70,562,173,27,446,
0,70,557,172,27,451,
0,69,550,189,26,499,
0,68,543,188,26,494,
0,68,536,186,25,487,
0,67,532,184,25,483,
0,67,526,183,25,479,
0,67,519,182,27,474,
0,66,572,180,26,468,
0,68,567,179,26,463,
0,68,559,177,25,460,
0,67,551,176,25,455,
0,67,545,175,25,481,
0,66,540,174,25,476,
0,65,534,172,25,472,
0,65,527,171,24,467,
0,65,521,169,24,461,
0,64,517,168,24,456,
0,63,529,167,29,453,
0,63,567,167,28,448,
0,70,559,165,28,444,
0,70,553,163,28,440,
0,69,547,163,28,436,
0,68,540,161,28,465,
0,68,534,160,27,460,
0,67,529,159,27,455,
0,67,523,158,27,450,
0,66,516,158,27,446,
0,66,511,156,28,441,
0,65,574,155,29,437,
0,66,568,153,28,432,
0,72,561,152,28,430,
0,71,554,152,28,425,
0,71,547,151,28,422,
0,71,543,150,28,477,
0,70,536,149,27,472,
0,70,529,148,27,467,
0,69,523,147,27,463,
0,68,519,146,27,457,
0,67,513,145,28,454,
0,67,508,144,28,449,
0,91,502,143,28,444,
0,89,498,143,28,440,
0,88,492,141,28,436,
0,88,487,141,28,446,
0,88,482,170,27,475,
0,87,479,168,27,470,
0,86,473,167,27,465,
0,85,468,166,26,460,
0,84,463,165,26,455,
0,83,467,163,26,451,
0,83,543,162,25,447,
0,83,537,161,26,443,
0,83,530,159,25,439,
0,82,526,159,25,434,
0,81,519,158,25,489,
0,80,513,156,25,486,
0,79,507,155,24,480,
0,79,502,154,24,475,
0,79,497,152,24,470,
0,78,492,152,24,466,
0,78,550,151,33,461,
0,77,542,150,33,455,
0,77,536,148,33,451,
0,76,530,147,33,448,
0,76,524,147,32,444,
0,76,518,145,31,486,
0,75,512,144,31,480,
0,74,507,143,31,476,
0,73,501,143,31,472,
0,73,496,141,31,466,
0,72,492,140,31,462,
0,71,547,140,31,457,
0,79,540,139,31,453,
0,78,534,137,31,448,
0,78,528,136,31,444,
0,77,523,135,31,440,
0,76,515,135,30,492,
0,76,510,135,30,487,
0,75,505,134,30,481,
0,75,500,133,29,476,
0,74,494,131,29,472,
0,73,506,131,36,467,
0,72,563,130,36,463,
0,72,558,129,36,458,
0,71,551,128,35,455,
0,71,543,127,35,450,
0,71,537,127,35,465,
0,70,532,135,35,460,
0,70,526,135,34,455,
0,69,519,134,34,451,
0,68,514,132,34,446,
0,68,510,131,33,441,
0,67,563,131,35,439,
0,67,563,130,35,434,
0,68,555,128,35,430,
0,68,550,127,34,426,
0,67,543,129,34,423,
0,67,536,135,33,480,
0,67,530,133,33,473,
0,65,525,132,33,468,
0,65,519,131,33,463,
0,65,513,130,31,460,
0,64,508,129,35,455,
0,63,560,127,36,450,
0,63,551,127,36,447,
0,63,545,126,35,441,
0,63,539,125,35,438,
0,63,534,124,35,446,
0,63,527,153,35,486,
0,62,521,152,35,482,
0,62,515,151,34,476,
0,61,509,150,34,472,
0,60,504,148,33,466,
0,60,499,147,34,463,
0,60,494,147,33,458,
0,120,487,145,33,453,
0,118,483,143,33,448,
0,116,478,143,32,444,
0,115,473,165,32,441,
0,114,469,172,31,437,
0,113,464,171,31,432,
0,112,460,169,31,428,
0,111,455,167,31,425,
0,110,450,167,36,422,
0,110,521,165,39,417,
0,108,515,164,38,414,
0,108,508,163,38,409,
0,107,502,161,38,406,
0,107,496,160,37,456,
0,105,491,167,37,455,
0,104,486,165,36,451,
0,103,480,163,36,446,
0,103,475,162,35,441,
0,102,471,161,35,436,
0,102,533,159,37,432,
0,100,525,159,36,428,
0,99,519,157,36,424,
0,99,512,156,35,420,
0,99,506,155,35,416,
0,97,502,158,35,467,
0,97,496,156,35,463,
0,96,490,156,35,459,
0,96,484,154,34,454,
0,95,481,153,34,449,
0,94,476,152,35,446,
0,94,551,151,34,441,
0,92,543,150,34,436,
0,92,539,148,34,432,
0,92,532,147,33,429,
0,91,526,147,33,448,
0,90,519,145,33,481,
0,89,515,144,32,476,
0,89,508,143,32,472,
0,88,503,143,31,467,
0,88,497,142,31,462,
0,87,494,140,31,457,
0,86,567,140,31,452,
0,94,559,139,31,449,
0,93,551,137,31,444,
0,92,545,136,31,440,
0,92,540,153,30,496,
0,91,534,152,30,492,
0,90,527,150,30,486,
0,89,521,149,29,480,
0,89,516,147,29,476,
0,88,511,147,29,472,
0,88,596,145,30,467,
0,87,588,144,30,462,
0,87,582,143,30,457,
0,86,575,142,30,454,
0,85,568,141,29,449,
0,85,560,142,29,496,
0,84,555,140,28,491,
0,83,548,139,28,487,
0,83,542,138,28,481,
0,82,536,137,28,476,
0,81,531,135,35,472,
0,81,580,135,36,467,
0,81,572,135,36,463,
0,80,565,134,35,457,
0,79,560,132,35,454,
0,79,553,131,35,449,
0,79,546,155,35,489,
0,78,540,153,34,484,
0,77,535,152,34,479,
0,77,529,150,34,473,
0,76,523,149,34,470,
0,76,517,147,33,465,
0,75,511,147,33,460,
0,75,507,145,33,455,
0,75,501,144,32,451,
0,74,496,143,32,448,
0,73,491,143,31,531,
0,72,487,142,31,524,
0,71,481,140,31,519,
0,71,476,140,31,513,
0,71,472,139,31,507,
0,71,467,137,31,502,
0,70,536,135,31,497,
0,70,534,135,31,492,
0,70,527,135,31,487,
0,69,522,133,31,483,
0,68,515,132,31,479,
0,68,510,135,30,524,
0,67,504,134,30,518,
0,67,499,132,30,512,
0,66,494,131,30,508,
0,66,487,131,29,502,
0,65,483,129,29,497,
0,65,531,128,29,492,
0,69,524,127,29,487,
0,69,518,127,28,483,
0,68,511,127,28,478,
0,68,507,126,28,473,
0,67,500,161,28,513,
0,67,495,160,28,509,
0,66,489,159,27,504,
0,66,483,158,27,497,
0,65,480,156,27,492,
0,64,475,155,27,488,
0,64,534,153,27,483,
0,73,527,152,27,479,
0,72,521,152,27,473,
0,71,515,150,26,470,
0,71,510,149,26,517,
0,71,504,148,25,514,
0,70,499,147,25,508,
0,69,494,145,25,504,
0,69,487,144,25,498,
0,68,483,143,24,493,
0,67,481,142,28,487,
0,67,515,142,28,483,
0,69,508,141,27,479,
0,68,502,140,27,474,
0,68,497,139,27,470,
0,67,492,138,26,474,
0,67,486,137,25,468,
0,67,481,135,25,463,
0,66,476,135,25,459,
0,65,472,134,25,455,
0,65,467,134,28,451,
0,64,543,132,29,447,
0,65,537,131,29,443,
0,68,531,130,29,439,
0,67,524,129,28,435,
0,67,518,128,28,432,
0,67,512,158,28,480,
0,65,507,156,28,473,
0,65,502,155,27,470,
0,64,496,154,27,465,
0,63,490,152,27,460,
0,63,486,152,27,455,
0,63,569,150,27,451,
0,69,561,150,27,448,
0,68,555,148,26,443,
0,68,550,147,26,439,
0,67,543,145,25,450,
0,67,536,148,25,476,
0,66,529,147,25,472,
0,65,525,146,25,466,
0,65,519,144,24,463,
0,64,513,143,24,457,
0,63,556,143,25,453,
0,63,574,142,25,448,
0,67,566,140,25,444,
0,68,559,140,24,440,
0,68,551,139,24,436,
0,67,547,159,24,484,
0,67,540,157,24,479,
0,66,534,156,24,475,
0,66,527,155,24,470,
0,65,521,153,24,464,
0,65,516,152,23,460,
0,64,572,151,24,455,
0,63,564,150,24,451,
0,67,557,148,24,447,
0,67,551,147,24,442,
0,66,545,146,24,439,
0,65,539,145,24,480,
0,65,531,144,23,475,
0,64,527,143,23,470,
0,63,520,142,23,465,
0,63,515,141,23,460,
0,63,509,140,25,455,
0,63,555,139,25,451,
0,75,547,138,25,448,
0,73,540,137,24,443,
0,73,534,135,24,439,
0,71,529,135,24,472,
0,71,523,140,24,481,
0,71,516,139,24,476,
0,71,511,137,23,471,
0,70,506,136,23,465,
0,70,500,135,23,462,
0,69,496,135,24,457,
0,68,532,134,24,452,
0,68,527,132,24,448,
0,67,520,131,23,444,
0,67,515,131,23,440,
0,66,508,151,23,498,
0,65,503,178,22,492,
0,65,499,176,22,487,
0,65,492,175,22,483,
0,64,487,174,22,477,
0,63,482,172,22,472,
0,63,496,171,22,467,
0,63,489,169,22,463,
0,72,483,167,21,459,
0,71,478,167,21,454,
0,71,475,166,21,449,
0,71,470,187,21,499,
0,70,464,185,20,493,
0,69,460,184,20,487,
0,69,455,182,20,483,
0,68,451,180,20,479,
0,67,448,179,19,474,
0,67,526,178,19,468,
0,71,519,176,19,463,
0,71,514,175,19,460,
0,70,508,174,19,455,
0,70,502,172,19,452,
0,69,497,171,19,505,
0,68,492,169,19,502,
0,67,486,169,19,496,
0,67,480,167,18,491,
0,67,476,167,19,485,
0,66,472,165,18,480,
0,65,508,163,18,476,
0,69,502,163,18,472,
0,68,496,161,18,466,
0,67,491,160,17,462,
0,67,486,159,17,514,
0,66,480,158,17,518,
0,66,475,157,17,512,
0,65,471,156,17,506,
0,65,465,155,17,502,
0,64,461,153,17,497,
0,63,536,152,24,491,
0,70,539,152,24,487,
0,103,532,150,24,481,
0,102,526,149,24,478,
0,101,519,147,24,472,
0,100,513,150,23,524,
0,99,507,149,23,519,
0,99,502,148,23,512,
0,97,497,147,23,507,
0,97,492,145,23,503,
0,96,486,145,22,497,
0,96,516,143,22,492,
0,95,511,143,22,487,
0,95,505,142,22,483,
0,94,499,141,22,479,
0,93,494,140,21,489,
0,92,489,167,21,514,
0,92,483,165,20,510,
0,91,479,164,20,504,
0,90,473,163,20,498,
0,89,469,161,20,493,
0,88,465,160,20,489,
0,88,500,159,19,483,
0,94,495,158,19,479,
0,92,489,156,19,474,
0,92,484,156,19,469,
0,91,479,155,19,526,
0,91,473,157,19,519,
0,89,467,156,19,513,
0,89,463,155,18,508,
0,88,460,153,18,504,
0,88,455,152,18,498,
0,87,500,151,18,492,
0,86,496,150,18,487,
0,86,489,148,17,483,
0,85,483,147,17,479,
0,84,479,147,17,473,
0,83,475,157,17,535,
0,83,468,156,17,529,
0,83,463,154,17,524,
0,82,459,153,17,518,
0,81,455,152,17,512,
0,80,450,151,16,508,
0,79,455,150,16,503,
0,79,451,148,16,497,
0,79,447,147,15,492,
0,78,443,196,15,487,
0,78,438,194,15,483,
0,77,433,203,15,550,
0,77,431,200,15,543,
0,76,427,199,15,539,
0,76,423,198,15,532,
0,75,419,195,15,526,
0,75,415,194,15,520,
0,73,423,192,15,515,
0,73,418,192,15,511,
0,73,414,190,15,505,
0,71,409,188,15,500,
0,71,407,187,14,548,
0,71,403,185,14,543,
0,71,399,184,14,536,
0,70,396,183,14,530,
0,70,393,182,14,524,
0,69,390,180,14,519,
0,68,436,179,14,514,
0,68,430,177,13,508,
0,72,427,176,14,504,
0,73,422,175,13,499,
0,72,417,174,13,495,
0,71,413,187,13,569,
0,71,409,185,13,562,
0,71,405,184,13,557,
0,70,401,183,12,551,
0,70,397,181,12,544,
0,69,394,179,12,539,
0,68,408,177,12,534,
0,68,403,177,12,528,
0,67,399,176,12,523,
0,67,396,174,12,517,
0,67,391,172,12,513,
0,67,387,230,12,574,
0,66,384,227,12,568,
0,65,382,225,12,560,
0,65,379,223,12,553,
0,64,376,222,11,550,
0,63,372,220,11,543,
0,63,387,217,11,537,
0,71,384,216,11,531,
0,71,380,215,11,527,
0,71,376,213,11,521,
0,70,372,211,11,588,
0,70,369,209,11,579,
0,69,367,207,11,574,
0,68,364,207,11,568,
0,67,361,205,11,560,
0,67,359,204,10,555,
0,67,372,202,11,550,
0,66,400,201,10,543,
0,67,396,199,10,537,
0,66,393,198,10,531,
0,65,389,196,9,527,
0,65,385,195,9,575,
0,64,382,194,9,571,
0,63,378,193,9,563,
0,63,376,192,9,557,
0,63,371,190,9,552,
0,63,368,189,9,546,
0,62,383,188,9,542,
0,62,418,187,9,536,
0,62,415,185,9,529,
0,62,410,184,9,526,
0,62,406,183,9,519,
0,61,403,200,9,558,
0,60,398,214,8,569,
0,60,396,211,9,564,
0,60,391,210,8,558,
0,60,387,208,8,551,
0,59,384,207,8,547,
0,59,380,206,7,540,
0,58,378,204,8,536,
0,57,375,203,7,531,
0,57,371,200,8,524,
0,57,368,199,7,520,
0,56,364,198,7,549,
0,56,362,196,7,577,
0,56,359,195,7,571,
0,56,356,193,7,564,
0,55,353,192,7,559,
0,55,351,192,7,552,
0,55,348,190,7,548,
0,54,397,188,7,543,
0,58,393,187,7,537,
0,57,389,187,7,532,
0,57,385,184,7,526,
0,56,382,184,7,521,
0,56,378,187,7,593,
0,56,375,185,7,588,
0,55,371,184,7,580,
0,55,368,183,7,574,
0,55,365,181,7,569,
0,54,361,180,7,563,
0,54,392,179,7,558,
0,53,388,178,7,551,
0,52,385,176,7,545,
0,54,381,176,7,541,
0,54,377,174,7,536,
0,54,374,187,7,601,
0,53,370,185,6,593,
0,52,368,184,6,588,
0,52,364,183,6,581,
0,52,359,181,6,574,
0,51,358,179,6,569,
0,51,403,179,6,563,
0,51,399,177,6,558,
0,51,394,176,6,551,
0,51,391,175,6,546,
0,50,387,174,6,542,
0,49,384,174,6,612,
0,49,380,173,6,606,
0,49,376,172,6,598,
0,49,373,171,6,591,
0,48,369,170,6,585,
0,48,366,169,6,579,
0,48,364,167,6,574,
0,48,368,167,5,568,
0,50,365,166,6,563,
0,51,361,164,6,557,
0,52,358,163,6,551,
0,52,355,172,5,590,
0,51,352,179,5,604,
0,51,350,176,5,599,
0,51,347,176,5,591,
0,50,344,174,5,583,
0,50,342,172,5,579,
0,49,342,172,4,572,
0,49,401,170,4,568,
0,67,397,169,4,561,
0,67,393,167,4,555,
0,66,390,167,4,551,
0,66,385,166,4,577,
0,65,383,164,4,608,
0,64,379,163,4,600,
0,63,376,162,4,595,
0,63,372,161,4,588,
0,63,368,159,4,580,
0,63,366,159,4,575,
0,62,367,158,4,569,
0,63,364,157,4,564,
0,63,359,156,4,558,
0,63,358,155,4,551,
0,63,354,153,4,547,
0,62,351,176,4,620,
0,62,348,175,4,615,
0,61,345,173,3,607,
0,61,343,172,4,600,
0,60,339,171,4,594,
0,60,337,169,3,588,
0,59,444,167,3,583,
0,59,438,167,3,575,
0,68,434,166,3,571,
0,67,429,164,3,564,
0,67,423,163,3,558,
0,66,421,162,3,616,
0,66,416,161,3,608,
0,65,413,159,3,603,
0,65,408,159,3,595,
0,63,406,158,3,588,
0,63,401,156,3,583,
0,63,447,156,3,575,
0,63,443,155,3,571,
0,62,438,153,3,565,
0,63,433,152,3,559,
0,71,429,152,3,554,
0,71,423,166,3,568,
0,71,421,167,3,562,
0,70,416,167,3,556,
0,70,413,166,3,551,
0,69,409,164,3,545,
0,68,404,163,3,539,
0,68,401,162,3,535,
0,67,411,161,3,529,
0,67,408,159,3,525,
0,68,403,159,3,519,
0,83,399,158,3,515,
0,83,396,161,3,549,
0,82,391,164,3,573,
0,81,390,163,3,568,
0,80,385,161,3,561,
0,79,384,160,3,554,
0,79,379,159,2,550,
0,79,376,158,3,543,
0,78,391,157,2,539,
0,78,387,156,3,533,
0,77,384,155,2,528,
0,76,380,153,2,523,
0,76,376,152,2,547,
0,76,374,195,3,582,
0,75,370,194,2,575,
0,74,368,192,2,569,
0,73,364,191,3,563,
0,73,361,190,2,556,
0,72,358,188,2,551,
0,71,441,187,2,545,
0,71,438,185,2,541,
0,71,432,184,2,536,
0,88,429,183,2,529,
0,86,423,182,3,525,
0,86,420,182,3,592,
0,85,416,179,2,587,
0,84,412,179,3,579,
0,83,408,177,3,575,
0,83,404,176,3,568,
0,82,400,175,2,561,
0,81,398,174,2,556,
0,81,393,172,2,551,
0,80,391,172,2,546,
0,93,387,171,2,540,
0,92,384,169,2,535,
0,92,380,191,2,612,
0,91,377,189,2,604,
0,90,375,188,2,599,
0,89,371,186,2,591,
0,88,368,184,2,585,
0,88,364,184,2,579,
0,88,363,182,2,572,
0,87,359,180,2,568,
0,86,356,179,2,561,
0,86,354,178,2,556,
0,85,352,177,2,551,
0,84,348,177,6,560,
0,83,345,182,6,556,
0,83,343,180,6,549,
0,82,340,179,6,543,
0,81,337,177,5,539,
0,81,335,176,6,532,
0,80,335,175,5,528,
0,79,360,174,5,523,
0,79,358,172,5,519,
0,79,353,172,5,513,
0,79,352,169,5,510,
0,78,348,169,6,547,
0,78,344,182,5,569,
0,77,342,180,6,564,
0,76,339,179,5,558,
0,76,336,177,6,553,
0,75,333,176,5,547,
0,75,332,175,5,541,
0,74,377,174,5,536,
0,73,372,172,5,531,
0,73,370,171,4,526,
0,79,366,170,4,520,
0,78,363,168,5,548,
0,78,359,221,6,583,
0,77,356,220,6,575,
0,76,353,217,6,571,
0,76,350,216,6,564,
0,76,348,214,6,559,
0,75,344,212,6,553,
0,75,430,211,5,547,
0,73,425,209,5,542,
0,73,422,207,5,536,
0,75,417,206,5,531,
0,74,413,205,7,527,
0,73,410,207,9,574,
0,72,406,205,9,568,
0,72,401,204,9,561,
0,71,398,202,9,557,
0,71,394,200,9,551,
0,71,391,199,9,544,
0,70,436,198,9,540,
0,70,432,196,8,534,
0,70,428,195,8,529,
0,81,423,194,8,524,
0,86,419,192,8,519,
0,86,415,199,20,575,
0,85,411,196,19,568,
0,84,408,195,19,560,
0,83,403,193,19,553,
0,83,399,192,19,549,
0,82,395,191,19,543,
0,81,391,190,18,536,
0,80,388,188,18,531,
0,79,384,187,18,527,
0,106,381,185,17,521,
0,103,377,184,18,515,
0,103,374,237,18,587,
0,103,370,234,18,579,
0,102,367,231,17,572,
0,100,363,230,17,566,
0,99,360,228,17,559,
0,99,363,226,17,555,
0,98,391,225,17,548,
0,97,387,223,17,542,
0,96,384,221,17,536,
0,96,380,220,16,531,
0,95,376,220,17,582,
0,94,372,240,20,574,
0,94,369,238,19,568,
0,93,366,236,19,562,
0,92,361,235,19,556,
0,92,358,231,19,549,
0,91,355,231,19,543,
0,90,353,228,19,537,
0,89,350,227,19,532,
0,98,347,225,19,527,
0,97,344,224,18,521,
0,97,341,223,19,590,
0,96,337,221,19,583,
0,95,335,220,19,577,
0,95,332,218,18,570,
0,94,329,216,18,563,
0,93,327,215,18,559,
0,92,374,213,18,552,
0,92,369,211,17,546,
0,91,366,210,17,540,
0,103,363,208,17,535,
0,103,359,207,29,555,
0,102,355,232,28,594,
0,100,352,231,28,587,
0,99,348,229,28,579,
0,99,345,227,27,573,
0,98,343,225,27,566,
0,97,339,224,27,561,
0,96,336,222,26,555,
0,96,333,220,26,549,
0,96,331,219,26,543,
0,96,327,216,26,539,
0,96,326,218,29,603,
0,95,323,216,28,595,
0,94,321,214,28,588,
0,93,319,212,28,583,
0,92,316,211,28,575,
0,92,313,209,27,569,
0,92,312,207,27,563,
0,91,310,206,27,558,
0,90,307,205,27,551,
0,93,305,204,27,545,
0,92,304,202,31,540,
0,91,302,201,34,607,
0,91,300,199,33,600,
0,89,297,199,33,593,
0,89,295,197,33,586,
0,88,294,195,32,579,
0,88,291,194,32,575,
0,87,289,193,31,568,
0,86,287,192,31,561,
0,86,286,190,31,556,
0,105,284,188,31,550,
0,103,283,203,31,585,
0,103,280,217,31,593,
0,102,279,215,31,587,
0,102,276,214,31,579,
0,100,275,211,30,572,
0,99,273,210,30,566,
0,99,335,208,30,560,
0,98,332,207,30,555,
0,97,327,206,30,549,
0,97,325,204,29,543,
0,96,322,202,29,537,
0,95,319,206,42,627,
0,94,316,204,41,619,
0,94,313,203,41,611,
0,93,312,201,40,604,
0,92,308,199,39,596,
0,92,305,199,39,591,
0,91,303,196,39,584,
0,90,300,195,39,578,
0,89,298,193,39,572,
0,92,295,192,39,568,
0,92,293,192,47,584,
0,91,291,248,46,638,
0,90,288,244,45,630,
0,89,286,242,44,624,
0,88,284,241,44,615,
0,88,281,239,44,608,
0,88,280,237,44,601,
0,86,307,235,43,595,
0,86,304,233,43,589,
0,85,302,231,43,583,
0,88,300,230,42,575,
0,88,296,228,46,643,
0,88,294,226,45,634,
0,87,291,224,45,626,
0,86,289,223,44,619,
0,85,287,221,44,612,
0,84,284,220,44,606,
0,84,281,218,43,599,
0,83,280,216,43,591,
0,83,277,215,43,587,
0,84,275,214,42,579,
0,83,273,211,41,574,
0,83,271,212,42,606,
0,82,270,211,41,598,
0,81,268,209,41,592,
0,81,265,207,41,585,
0,80,263,206,41,579,
0,79,263,204,39,572,
0,79,291,203,39,568,
0,79,287,201,39,561,
0,78,284,199,39,556,
0,106,283,199,39,549,
0,104,280,198,39,588,
0,103,278,216,38,610,
0,103,275,215,38,603,
0,102,272,212,38,597,
0,101,270,211,37,590,
0,100,268,209,37,583,
0,99,295,207,36,575,
0,99,291,206,36,569,
0,98,289,204,36,563,
0,98,286,203,35,559,
0,97,284,201,35,552,
0,97,281,205,36,615,
0,96,279,203,36,607,
0,96,276,201,35,601,
0,95,274,199,35,594,
0,94,271,199,35,587,
0,93,270,197,35,580,
0,92,315,195,35,575,
0,92,312,195,35,569,
0,91,308,193,34,563,
0,110,305,192,33,556,
0,109,303,190,35,567,
0,108,300,191,34,613,
0,107,297,190,34,606,
0,106,295,188,33,598,
0,105,291,187,33,591,
0,103,289,185,33,585,
0,103,316,184,32,579,
0,103,319,183,32,572,
0,102,316,182,31,566,
0,117,312,180,31,560,
0,129,310,179,31,553,
0,127,307,199,31,639,
0,127,304,198,31,630,
0,126,300,195,31,622,
0,125,297,194,30,615,
0,124,295,192,30,608,
0,123,293,192,30,600,
0,121,325,190,30,593,
0,120,321,188,30,586,
0,120,318,187,29,581,
0,119,316,185,29,575,
0,118,312,184,31,634,
0,116,309,184,31,625,
0,116,307,183,31,617,
0,115,304,180,30,609,
0,114,300,179,30,603,
0,113,297,178,30,595,
0,112,335,177,30,588,
0,112,331,176,29,582,
0,111,328,174,29,575,
0,110,326,173,29,569,
0,109,323,172,29,615,
0,108,319,171,28,607,
0,108,316,169,28,601,
0,107,313,168,28,594,
0,105,310,167,28,587,
0,105,307,167,28,580,
0,104,382,166,27,574,
0,103,376,164,27,568,
0,103,372,163,27,561,
0,102,368,162,27,555,
0,101,365,161,26,583,
0,100,361,159,26,615,
0,99,359,159,26,608,
0,99,355,158,25,602,
0,98,352,157,25,595,
0,98,348,156,25,588,
0,97,345,155,25,581,
0,96,343,153,24,575,
0,96,339,153,24,569,
0,95,336,152,24,563,
0,95,334,151,24,557,
0,94,331,179,28,614,
0,94,327,178,28,605,
0,92,325,176,27,598,
0,92,323,175,27,590,
0,91,319,174,27,585,
0,91,317,172,26,578,
0,90,361,171,26,571,
0,89,358,169,25,564,
0,89,354,167,25,559,
0,88,351,167,25,554,
0,88,348,166,25,547,
0,87,344,195,26,609,
0,87,342,193,25,601,
0,86,338,192,25,595,
0,85,335,190,25,589,
0,84,332,188,24,582,
0,84,329,187,25,575,
0,83,387,185,24,569,
0,83,384,184,24,563,
0,82,379,183,24,557,
0,82,376,182,24,551,
0,81,372,180,25,547,
0,81,368,231,25,612,
0,80,364,230,25,604,
0,79,362,227,25,597,
0,79,359,225,25,591,
0,79,355,224,24,584,
0,78,352,222,24,578,
0,78,350,220,24,572,
0,77,347,219,24,567,
0,76,344,217,24,560,
0,76,340,216,24,553,
0,76,338,223,24,616,
0,75,335,238,24,610,
0,74,332,236,24,603,
0,73,329,235,24,595,
0,73,327,231,24,588,
0,72,324,231,24,582,
0,71,329,229,23,575,
0,71,326,227,23,569,
0,71,323,225,23,563,
0,110,320,224,23,557,
0,109,318,222,24,551,
0,108,315,262,38,596,
0,107,312,259,36,588,
0,105,310,255,36,583,
0,105,307,254,36,575,
0,103,304,252,35,569,
0,103,302,251,35,563,
0,103,319,248,35,556,
0,102,316,247,35,551,
0,101,313,244,34,544,
0,100,311,243,34,539,
0,99,308,240,35,608,
0,99,305,238,35,601,
0,98,302,237,34,595,
0,97,300,235,34,587,
0,96,297,233,34,580,
0,96,295,231,33,574,
0,95,329,231,33,568,
0,94,326,228,33,562,
0,94,323,227,33,556,
0,99,319,225,32,550,
0,98,317,224,31,545,
0,97,314,222,31,601,
0,96,311,220,31,594,
0,96,308,219,31,587,
0,95,306,217,31,582,
0,94,303,216,31,575,
0,94,300,214,31,568,
0,93,321,212,31,561,
0,92,318,211,30,557,
0,92,315,210,30,551,
0,92,312,208,30,545,
0,91,310,207,32,589,
0,90,307,212,33,595,
0,89,304,211,32,588,
0,89,300,209,31,580,
0,88,299,207,31,574,
0,88,295,206,31,568,
0,87,314,205,31,562,
0,86,355,204,31,556,
0,86,352,202,31,550,
0,96,348,200,30,545,
0,113,344,199,30,539,
0,112,342,263,30,620,
0,111,338,259,30,611,
0,110,335,257,29,604,
0,109,332,255,29,597,
0,108,327,252,29,590,
0,108,326,250,28,583,
0,107,399,248,28,575,
0,105,396,247,28,569,
0,104,391,244,28,563,
0,103,387,242,28,557,
0,103,384,240,28,614,
0,102,380,238,28,605,
0,102,376,236,27,600,
0,100,372,235,27,591,
0,99,368,233,27,585,
0,99,365,231,27,578,
0,99,430,230,27,572,
0,97,423,227,26,567,
0,97,418,226,25,560,
0,96,413,225,25,554,
0,96,410,223,25,548,
0,95,406,224,25,604,
0,94,401,223,25,595,
0,94,398,221,25,588,
0,93,393,219,24,582,
0,92,391,217,24,575,
0,91,387,216,24,569,
0,91,459,215,24,563,
0,90,452,213,24,556,
0,89,449,211,24,551,
0,89,444,210,24,546,
0,89,440,209,25,540,
0,88,434,207,25,583,
0,88,431,206,25,575,
0,87,427,204,25,570,
0,86,422,204,25,563,
0,86,417,201,24,557,
0,85,415,199,24,551,
0,84,411,199,24,546,
0,83,407,198,24,540,
0,83,403,196,24,535,
0,101,399,195,24,529,
0,100,396,194,25,582,
0,99,391,193,25,574,
0,98,388,192,25,568,
0,97,384,191,24,562,
0,97,381,190,24,556,
0,96,379,188,24,550,
0,95,446,187,24,544,
0,95,440,186,24,538,
0,94,435,184,24,532,
0,97,432,184,24,527,
0,96,427,182,24,523,
0,95,423,191,32,583,
0,94,417,188,31,575,
0,94,415,187,31,569,
0,93,411,185,31,564,
0,92,406,184,31,558,
0,92,402,183,31,551,
0,91,401,182,31,545,
0,90,397,180,30,541,
0,89,393,179,30,536,
0,104,389,178,30,529,
0,103,385,176,30,552,
0,103,382,183,30,583,
0,102,378,181,29,575,
0,100,375,179,29,568,
0,99,372,178,29,562,
0,99,369,177,28,557,
0,98,393,176,28,551,
0,97,390,175,28,544,
0,97,387,174,28,539,
0,97,383,172,28,535,
0,99,378,172,28,528,
0,98,375,179,28,594,
0,97,371,177,28,587,
0,96,368,176,28,581,
0,96,364,174,27,575,
0,95,361,173,27,568,
0,94,359,172,27,561,
0,93,355,170,27,556,
0,92,352,169,26,550,
0,92,350,167,26,543,
0,91,348,167,25,537,
0,90,344,166,26,534,
0,89,342,176,27,591,
0,89,339,175,26,583,
0,88,335,174,26,575,
0,88,333,172,26,569,
0,87,331,171,25,564,
0,87,327,169,25,558,
0,86,380,167,25,551,
0,85,377,167,25,546,
0,84,372,166,25,542,
0,86,369,164,24,536,
0,85,366,163,27,583,
0,84,363,190,26,588,
0,83,359,188,25,583,
0,83,355,187,25,575,
0,83,352,185,25,569,
0,82,350,184,25,563,
0,81,361,182,24,558,
0,80,397,181,24,551,
0,80,391,179,24,545,
0,80,390,178,24,539,
0,92,385,177,24,535,
0,91,381,179,26,579,
0,90,377,181,26,571,
0,89,375,179,25,564,
0,88,371,178,25,560,
0,88,367,176,25,553,
0,87,364,176,25,547,
0,86,399,174,25,540,
0,86,403,173,24,535,
0,85,399,172,24,530,
0,110,395,171,24,524,
0,108,391,169,24,519,
0,108,386,175,24,514,
0,107,382,173,24,508,
0,105,379,172,24,504,
0,104,375,171,23,499,
0,103,372,169,23,494,
0,103,368,167,23,489,
0,102,435,167,23,484,
0,101,429,165,22,480,
0,100,424,163,22,477,
0,100,419,163,22,472,
0,99,415,199,22,536,
0,99,412,198,22,529,
0,97,408,195,21,524,
0,97,403,194,21,519,
0,96,399,193,20,513,
0,96,396,192,20,508,
0,95,413,190,20,502,
0,94,408,188,20,498,
0,93,403,187,20,493,
0,93,399,185,20,487,
0,92,396,184,19,483,
0,92,392,183,19,540,
0,91,388,182,19,536,
0,90,385,180,19,529,
0,89,382,179,19,524,
0,88,379,177,19,518,
0,88,375,176,19,513,
0,88,447,175,19,508,
0,87,441,174,18,503,
0,86,438,172,18,497,
0,86,432,171,18,494,
0,85,428,169,18,521,
0,84,423,168,17,519,
0,83,420,167,17,513,
0,83,415,166,17,508,
0,82,412,165,17,504,
0,82,408,163,17,497,
0,81,419,163,17,492,
0,80,487,161,17,487,
0,79,481,160,16,483,
0,83,476,159,16,479,
0,88,472,159,16,473,
0,87,467,157,16,544,
0,86,462,157,16,537,
0,85,456,156,15,531,
0,84,452,155,15,525,
0,83,448,153,15,520,
0,83,444,152,15,515,
0,83,509,152,15,509,
0,82,504,151,15,504,
0,81,497,150,15,499,
0,87,492,148,15,495,
0,87,486,147,15,489,
0,86,480,184,15,536,
0,84,476,182,15,529,
0,84,472,179,15,525,
0,83,466,179,15,519,
0,83,461,177,14,513,
0,82,457,176,14,508,
0,81,512,174,14,504,
0,81,505,173,14,498,
0,80,499,172,14,493,
0,99,496,171,14,487,
0,97,489,169,14,484,
0,96,484,169,13,483,
0,96,479,167,13,478,
0,95,475,167,13,473,
0,94,470,166,13,470,
0,94,464,164,13,465,
0,93,487,163,13,461,
0,92,519,161,13,456,
0,92,513,160,12,454,
0,94,508,159,12,449,
0,103,502,159,12,446,
0,103,496,182,12,518,
0,102,491,179,13,511,
0,101,485,178,13,505,
0,100,480,176,13,499,
0,99,476,175,13,494,
0,98,471,173,13,490,
0,97,533,172,12,485,
0,97,526,171,12,480,
0,96,520,169,12,475,
0,110,515,167,12,470,
0,108,508,167,12,518,
0,108,503,187,12,512,
0,107,497,184,12,506,
0,105,492,184,12,500,
0,105,486,182,12,495,
0,103,481,180,12,489,
0,103,541,179,11,484,
0,102,534,177,11,480,
0,102,527,176,11,475,
0,102,520,175,11,470,
0,100,515,173,11,465,
0,99,510,174,11,491,
0,99,504,172,11,487,
0,98,499,172,10,481,
0,97,493,170,10,476,
0,96,488,168,10,472,
0,96,483,167,10,467,
0,95,543,167,10,462,
0,94,536,165,9,457,
0,94,531,163,9,455,
0,104,524,163,9,450,
0,103,519,161,9,487,
0,103,514,185,9,506,
0,102,508,184,9,502,
0,100,503,182,9,496,
0,100,496,180,9,491,
0,99,492,179,9,487,
0,98,487,177,9,482,
0,97,563,176,9,476,
0,97,558,175,8,472,
0,96,551,174,8,467,
0,109,545,172,8,463,
0,108,539,171,8,460,
0,107,532,170,7,455,
0,105,526,168,7,451,
0,105,521,167,8,446,
0,103,515,166,7,443,
0,103,510,165,7,439,
0,103,537,163,7,435,
0,102,571,163,7,431,
0,101,565,161,7,428,
0,99,558,160,7,424,
0,100,551,159,7,421,
0,99,546,159,7,473,
0,99,540,158,7,467,
0,98,535,156,7,463,
0,97,528,156,7,457,
0,96,523,154,7,453,
0,96,518,153,7,449,
0,95,525,152,7,445,
0,94,569,152,7,441,
0,94,562,151,7,437,
0,93,556,150,7,433,
0,95,551,148,7,430,
0,94,543,147,7,483,
0,93,539,159,7,491,
0,92,532,159,7,484,
0,92,527,157,7,480,
0,91,521,156,7,476,
0,91,515,155,6,470,
0,89,511,153,6,467,
0,89,614,152,6,462,
0,88,607,152,6,458,
0,88,599,151,6,454,
0,92,591,149,6,449,
0,91,585,148,6,446,
0,91,578,148,6,491,
0,89,572,147,6,486,
0,89,566,147,6,481,
0,88,560,145,6,476,
0,88,554,144,6,472,
0,87,547,143,6,467,
0,87,630,143,6,463,
0,86,620,142,6,459,
0,85,614,140,5,454,
0,115,606,141,6,450,
0,113,598,140,5,446,
0,112,590,140,5,475,
0,111,584,138,5,470,
0,110,577,137,6,465,
0,110,571,136,5,460,
0,108,563,135,5,455,
0,108,558,135,5,451,
0,107,603,134,5,448,
0,106,595,133,4,443,
0,105,588,132,4,439,
0,105,580,131,4,435,
0,104,575,131,4,463,
0,103,568,135,4,499,
0,103,560,135,4,494,
0,102,553,134,4,487,
0,101,549,132,4,484,
0,100,543,131,4,479,
0,100,568,130,4,473,
0,99,599,129,4,469,
0,98,591,129,4,465,
0,98,583,127,4,460,
0,97,577,127,3,456,
0,96,571,126,4,515,
0,96,565,172,4,509,
0,95,558,172,3,503,
0,94,551,169,3,497,
0,93,547,167,3,493,
0,93,540,167,3,487,
0,92,536,166,3,484,
0,92,608,165,3,479,
0,91,601,163,3,473,
0,90,593,162,3,471,
0,96,586,161,3,465,
0,96,580,159,3,462,
0,95,573,159,3,504,
0,94,568,158,3,498,
0,93,561,156,3,494,
0,92,555,156,3,488,
0,92,549,154,3,484,
0,91,543,153,3,480,
0,91,566,152,3,476,
0,90,558,152,3,471,
0,89,551,150,3,465,
0,89,546,149,3,462,
0,88,540,148,3,457,
0,88,535,174,3,499,
0,87,529,173,3,493,
0,87,524,172,3,487,
0,86,519,169,3,483,
0,86,513,169,3,479,
0,84,509,167,3,475,
0,84,562,167,3,470,
0,83,556,165,3,465,
0,83,550,163,3,461,
0,84,543,163,3,455,
0,86,537,161,2,452,
0,85,531,160,2,503,
0,84,527,159,2,498,
0,83,519,159,2,492,
0,83,515,157,2,487,
0,82,510,156,2,483,
0,82,504,155,2,478,
0,81,515,153,2,474,
0,80,529,153,2,469,
0,79,524,152,2,463,
0,99,518,151,2,460,
0,108,512,150,2,455,
0,108,506,186,2,502,
0,106,502,184,2,497,
0,105,496,182,2,492,
0,104,491,180,2,487,
0,103,486,179,2,481,
0,103,482,177,2,478,
0,102,529,176,1,472,
0,101,523,175,1,467,
0,100,516,174,2,463,
0,100,512,172,2,457,
0,99,505,171,2,454,
0,99,500,182,1,513,
0,97,496,180,2,509,
0,97,489,179,1,504,
0,96,486,177,1,499,
0,96,480,176,2,494,
0,95,476,175,2,488,
0,94,511,173,1,484,
0,94,504,172,1,480,
0,93,499,171,1,476,
0,97,494,170,1,471,
0,96,489,167,1,465,
0,96,484,174,1,519,
0,95,479,173,1,512,
0,94,474,172,1,508,
0,93,470,171,1,503,
0,92,466,169,1,497,
0,92,462,167,1,493,
0,92,524,167,1,487,
0,91,524,166,1,483,
0,90,516,164,1,479,
0,89,512,163,1,476,
0,88,506,162,1,471,
0,88,500,161,1,465,
0,88,496,166,1,462,
0,88,491,165,1,457,
0,87,487,163,1,454,
0,86,481,163,1,449,
0,85,477,161,1,445,
0,84,472,159,1,441,
0,84,467,159,1,438,
0,83,463,158,1,435,
0,83,458,157,1,430,
0,93,455,156,1,426,
0,92,450,155,1,463,
0,92,446,199,1,494,
0,91,443,198,1,490,
0,90,439,196,1,484,
0,89,435,195,1,481,
0,89,432,193,1,476,
0,88,428,192,1,471,
0,88,504,190,1,467,
0,87,496,189,1,462,
0,86,492,188,1,459,
0,88,487,187,1,454,
0,87,482,185,1,473,
0,86,476,184,1,513,
0,86,472,184,1,508,
0,85,467,182,1,504,
0,84,463,181,1,497,
0,83,459,179,1,492,
0,83,454,178,1,487,
0,83,527,177,1,483,
0,82,523,176,1,479,
0,81,516,175,1,474,
0,81,511,173,1,471,
0,81,505,172,1,465,
0,80,499,174,1,515,
0,79,496,172,1,511,
0,79,489,172,1,504,
0,78,486,169,1,500,
0,78,480,169,1,495,
0,78,476,167,1,489,
0,77,544,166,1,486,
0,76,536,166,1,480,
0,76,531,164,1,476,
0,75,525,163,1,472,
0,75,519,162,1,467,
0,74,515,161,1,529,
0,74,508,159,1,523,
0,73,504,159,1,519,
0,72,498,158,1,512,
0,71,494,156,1,508,
0,71,487,156,0,503,
0,71,575,155,0,497,
0,71,593,153,1,493,
0,71,585,152,1,487,
0,70,579,152,1,484,
0,70,572,151,0,480,
0,70,568,167,1,551,
0,68,560,192,0,545,
0,68,553,191,0,539,
0,67,548,188,0,534,
0,67,542,188,0,527,
0,67,537,186,0,521,
0,67,531,184,0,518,
0,66,569,184,0,512,
0,65,563,182,0,508,
0,65,556,180,0,503,
0,64,551,179,0,499,
0,64,544,178,0,494,
0,63,538,177,0,488,
0,63,534,176,1,484,
0,63,527,174,1,480,
0,63,523,173,1,476,
0,62,517,172,1,472,
0,62,513,171,1,467,
0,61,567,169,1,463,
0,61,559,167,1,459,
0,60,553,167,1,455,
0,79,547,166,1,451,
0,79,542,164,1,448,
0,78,536,172,1,515,
0,77,529,171,1,508,
0,77,524,169,1,504,
0,76,519,167,1,498,
0,76,513,167,1,494,
0,75,508,166,1,489,
0,74,550,164,1,483,
0,73,543,163,1,480,
0,73,537,162,1,475,
0,72,532,161,1,472,
0,71,526,159,1,467,
0,71,521,160,1,527,
0,71,515,159,1,521,
0,71,509,158,1,515,
0,70,504,156,1,511,
0,69,499,156,1,505,
0,69,496,155,1,501,
0,68,523,153,1,496,
0,67,516,152,1,491,
0,67,511,152,1,487,
0,76,505,151,1,482,
0,83,501,150,1,478,
0,83,496,160,1,534,
0,83,489,160,1,527,
0,81,486,159,1,523,
0,81,480,158,1,516,
0,80,477,157,1,512,
0,79,472,156,1,506,
0,79,468,155,1,500,
0,79,496,153,1,497,
0,78,489,152,1,492,
0,78,486,152,1,487,
0,77,480,154,1,483,
0,76,476,153,1,523,
0,76,471,152,14,536,
0,75,465,151,14,528,
0,75,462,150,14,523,
0,74,457,148,14,516,
0,73,452,147,14,512,
0,73,496,147,13,507,
0,71,495,145,14,502,
0,71,490,144,13,496,
0,80,484,143,13,492,
0,79,479,143,13,487,
0,79,473,166,12,537,
0,78,469,164,13,531,
0,78,463,163,13,527,
0,76,460,161,12,520,
0,76,454,160,12,515,
0,76,451,159,12,509,
0,75,504,158,12,504,
0,74,497,156,12,499,
0,73,492,156,12,495,
0,96,487,154,12,489,
0,95,482,152,12,486,
0,94,477,173,14,551,
0,94,472,172,15,544,
0,93,467,170,15,539,
0,92,462,167,14,534,
0,91,457,167,14,527,
0,90,452,166,14,521,
0,89,455,165,14,516,
0,89,451,163,14,512,
0,88,446,162,14,507,
0,92,441,161,13,502,
0,91,438,159,15,574,
0,89,434,196,28,576,
0,89,430,194,28,572,
0,88,426,193,28,564,
0,88,422,191,28,558,
0,87,419,190,27,551,
0,86,428,188,27,547,
0,86,471,187,27,541,
0,84,464,185,26,535,
0,91,460,184,27,529,
0,93,455,183,26,525,
0,92,451,205,26,608,
0,92,446,209,30,600,
0,91,442,207,30,592,
0,89,438,206,30,588,
0,89,432,204,30,580,
0,88,428,203,29,574,
0,88,425,200,29,568,
0,88,420,199,29,562,
0,87,416,198,28,556,
0,88,412,196,28,550,
0,88,410,195,33,544,
0,87,407,204,56,620,
0,86,403,203,56,611,
0,86,399,201,55,604,
0,84,396,199,55,597,
0,83,392,198,54,590,
0,83,390,196,54,584,
0,83,387,195,53,578,
0,82,384,193,52,572,
0,81,382,192,52,565,
0,103,378,190,51,560,
0,102,375,192,54,593,
0,100,371,217,56,639,
0,100,368,216,55,630,
0,99,366,214,54,622,
0,98,364,211,54,615,
0,97,359,210,54,608,
0,97,368,209,53,601,
0,96,365,207,52,595,
0,95,361,205,52,588,
0,96,359,204,51,582,
0,96,355,202,51,576,
0,95,353,203,56,644,
0,95,350,201,56,636,
0,94,348,199,55,627,
0,93,344,198,55,622,
0,92,342,196,54,614,
0,92,339,195,54,607,
0,91,365,193,53,600,
0,90,360,192,52,595,
0,89,357,191,52,588,
0,96,353,190,51,581,
0,95,351,188,51,583,
0,94,348,227,67,665,
0,93,344,225,68,655,
0,92,340,224,67,647,
0,92,339,221,67,639,
0,91,335,220,66,633,
0,90,333,218,65,625,
0,89,334,216,65,618,
0,88,332,215,64,611,
0,88,329,213,63,606,
0,117,327,211,63,599,
0,115,323,224,63,660,
0,115,321,224,63,664,
0,113,319,222,63,655,
0,113,316,220,62,646,
0,112,314,218,62,638,
0,111,312,216,61,631,
0,110,326,215,60,623,
0,109,322,212,60,615,
0,108,319,211,60,608,
0,108,316,209,60,601,
0,107,313,207,60,647,
0,106,311,225,65,669,
0,105,308,224,64,660,
0,103,306,222,63,654,
0,103,304,220,63,646,
0,103,302,217,63,638,
0,103,299,216,62,630,
0,102,297,215,62,622,
0,100,295,212,62,615,
0,113,292,211,61,608,
0,112,291,209,61,601,
0,112,288,207,70,688,
0,111,286,206,69,678,
0,110,285,204,69,669,
0,108,283,203,67,660,
0,108,280,201,67,652,
0,107,279,199,67,644,
0,106,276,198,66,639,
0,105,275,196,65,631,
0,115,273,195,65,624,
0,115,271,194,64,615,
0,113,269,208,67,688,
0,112,267,206,67,679,
0,112,265,204,67,670,
0,111,263,203,66,661,
0,110,262,201,65,653,
0,109,259,199,65,644,
0,108,284,198,65,637,
0,107,281,196,63,630,
0,106,279,195,63,622,
0,106,276,193,63,615,
0,105,273,206,68,687,
0,104,271,207,70,679,
0,103,269,206,70,671,
0,103,267,204,68,662,
0,103,263,203,68,654,
0,101,262,201,67,646,
0,100,280,199,67,638,
0,99,277,198,67,630,
0,99,275,196,66,623,
0,115,272,195,65,615,
0,114,270,193,65,609,
0,113,268,223,69,685,
0,112,265,221,68,675,
0,111,263,219,68,667,
0,110,260,217,67,659,
0,109,259,216,67,651,
0,108,263,214,66,642,
0,108,260,211,65,635,
0,107,258,210,65,627,
0,140,255,208,64,620,
0,137,255,207,64,612,
0,135,253,227,64,679,
0,135,252,225,63,671,
0,133,249,223,63,662,
0,132,248,221,63,655,
0,131,246,220,62,647,
0,130,244,217,62,639,
0,129,244,216,61,632,
0,127,243,215,61,624,
0,127,241,212,60,617,
0,127,240,211,60,610,
0,125,238,216,61,668,
0,124,236,215,61,659,
0,124,235,212,60,651,
0,123,233,211,60,643,
0,121,231,209,60,635,
0,120,231,207,59,627,
0,120,231,206,59,619,
0,119,231,204,58,614,
0,118,228,203,57,607,
0,117,227,201,57,600,
0,116,226,199,57,671,
0,115,224,199,60,662,
0,115,223,199,60,653,
0,114,222,198,59,644,
0,112,220,195,59,636,
0,112,219,194,58,629,
0,111,243,193,57,621,
0,110,241,192,57,614,
0,109,240,190,56,607,
0,143,238,188,56,600,
0,142,236,187,59,679,
0,140,233,185,60,678,
0,139,231,184,59,669,
0,137,229,184,59,660,
0,136,227,182,58,652,
0,135,225,181,57,643,
0,135,248,179,57,636,
0,134,244,178,56,628,
0,132,242,177,56,620,
0,131,240,176,56,614,
0,131,238,174,56,607,
0,129,236,224,63,671,
0,128,233,222,62,664,
0,127,231,220,62,655,
0,127,230,217,62,647,
0,126,227,216,61,639,
0,124,226,214,60,632,
0,124,248,212,60,625,
0,123,244,211,59,617,
0,122,243,209,59,610,
0,121,240,207,59,604,
0,120,238,212,59,675,
0,120,236,210,59,665,
0,119,234,207,57,657,
0,118,231,207,57,648,
0,117,230,205,57,639,
0,116,228,203,56,632,
0,115,259,201,56,625,
0,115,255,199,56,617,
0,113,254,199,56,611,
0,117,251,197,55,605,
0,115,249,195,55,678,
0,115,247,195,56,668,
0,114,244,193,56,659,
0,113,242,192,56,650,
0,112,240,190,55,641,
0,112,238,188,55,635,
0,111,276,187,54,627,
0,110,273,185,54,619,
0,109,271,184,54,611,
0,121,269,183,53,604,
0,120,267,182,52,676,
0,119,263,216,54,667,
0,118,262,215,52,657,
0,117,259,212,52,651,
0,116,257,211,52,643,
0,115,255,209,51,635,
0,115,290,207,51,627,
0,113,286,206,51,620,
0,112,284,204,50,612,
0,113,281,203,50,605,
0,113,279,201,50,603,
0,112,275,209,50,663,
0,111,273,207,50,654,
0,110,271,206,49,646,
0,109,269,204,49,638,
0,108,267,202,48,630,
0,108,273,199,48,622,
0,107,300,199,48,616,
0,106,296,198,48,609,
0,105,294,195,47,603,
0,104,291,195,47,595,
0,103,288,201,47,662,
0,103,286,199,47,653,
0,102,284,198,46,644,
0,102,280,196,46,636,
0,100,278,195,46,628,
0,99,276,193,46,621,
0,99,319,192,45,615,
0,98,316,191,44,608,
0,98,313,189,44,600,
0,97,312,188,44,593,
0,97,308,213,44,608,
0,96,305,242,44,624,
0,96,302,239,43,615,
0,95,300,237,43,608,
0,95,297,235,43,603,
0,94,295,233,42,595,
0,93,319,231,42,588,
0,92,316,230,41,582,
0,92,313,227,41,575,
0,92,310,227,41,571,
0,92,307,225,40,565,
0,91,304,223,39,633,
0,91,302,221,40,625,
0,89,299,220,39,619,
0,89,295,218,39,611,
0,88,294,216,39,604,
0,88,291,215,39,596,
0,88,332,213,39,591,
0,87,327,211,39,584,
0,87,324,210,38,578,
0,105,321,208,38,572,
0,103,319,207,38,579,
0,103,316,206,37,623,
0,103,312,204,37,615,
0,102,310,203,37,608,
0,100,307,201,36,601,
0,99,304,200,36,595,
0,99,324,199,35,588,
0,98,349,198,35,580,
0,97,345,196,35,575,
0,103,342,195,35,569,
0,109,338,193,35,563,
0,108,335,195,35,622,
0,107,332,193,35,613,
0,106,328,192,34,606,
0,105,326,191,34,598,
0,104,323,189,33,591,
0,103,319,188,33,583,
0,103,400,187,33,577,
0,102,396,185,33,571,
0,102,391,184,32,564,
0,108,388,182,31,558,
0,108,384,190,32,641,
0,107,380,192,34,632,
0,105,376,190,34,626,
0,105,372,188,33,618,
0,103,369,187,33,610,
0,103,366,185,33,604,
0,102,404,184,33,596,
0,102,399,183,32,589,
0,100,396,181,31,583,
0,119,391,179,31,575,
0,118,387,179,31,575,
0,116,384,177,31,580,
0,115,380,176,31,574,
0,114,376,175,31,568,
0,113,373,174,31,561,
0,112,369,172,30,555,
0,112,412,171,30,550,
0,111,411,169,30,544,
0,110,407,167,30,539,
0,116,403,167,29,534,
0,115,398,167,29,528,
0,114,393,185,29,580,
0,113,390,184,28,573,
0,112,386,182,28,566,
0,112,382,180,28,560,
0,111,379,179,28,553,
0,110,376,177,28,547,
0,108,432,176,28,540,
0,108,428,174,27,535,
0,135,423,172,27,529,
0,133,419,172,27,525,
0,132,415,216,28,612,
0,131,409,214,27,604,
0,130,406,212,27,596,
0,129,401,211,27,589,
0,127,397,209,26,582,
0,127,393,207,26,575,
0,126,446,206,25,568,
0,124,440,204,25,562,
0,124,435,202,25,556,
0,123,432,199,25,550,
0,121,428,200,25,601,
0,120,423,199,25,594,
0,120,419,197,24,587,
0,119,414,195,24,582,
0,118,410,194,24,575,
0,117,406,192,24,568,
0,116,456,191,24,561,
0,115,451,190,24,555,
0,115,446,188,24,549,
0,116,440,187,23,543,
0,115,436,185,23,600,
0,114,432,185,23,606,
0,113,427,184,23,598,
0,113,423,183,23,591,
0,112,419,182,22,583,
0,111,415,180,23,577,
0,110,478,179,22,571,
0,109,479,177,22,566,
0,108,472,176,22,559,
0,108,467,191,21,552,
0,107,462,190,21,547,
0,106,456,188,21,573,
0,105,452,186,20,566,
0,103,448,185,20,559,
0,103,443,184,20,552,
0,103,438,182,20,547,
0,102,479,180,20,540,
0,101,481,179,19,535,
0,100,476,177,19,529,
0,106,472,176,19,524,
0,105,466,175,19,518,
0,105,461,174,19,580,
0,103,455,172,19,575,
0,103,451,171,19,568,
0,102,446,170,19,561,
0,102,441,168,19,555,
0,101,436,167,18,548,
0,100,515,167,18,542,
0,99,508,165,18,536,
0,98,504,164,18,530,
0,117,498,163,18,524,
0,115,492,161,17,520,
0,115,487,160,17,515,
0,114,481,159,17,510,
0,113,476,159,17,505,
0,112,472,158,17,499,
0,111,466,156,16,496,
0,110,530,156,16,491,
0,109,523,154,16,486,
0,108,517,153,16,481,
0,111,511,152,16,477,
0,110,506,151,15,513,
0,110,500,152,15,507,
0,108,495,152,15,502,
0,108,489,150,15,496,
0,107,484,149,15,492,
0,106,480,147,15,487,
0,105,558,147,15,481,
0,103,548,146,15,476,
0,103,542,145,15,472,
0,103,535,144,15,467,
0,103,528,143,15,463,
0,103,523,145,15,503,
0,102,516,143,14,497,
0,101,511,143,14,492,
0,100,505,142,14,486,
0,99,500,140,14,481,
0,99,505,140,14,477,
0,98,571,139,14,472,
0,97,563,138,14,467,
0,99,559,137,13,463,
0,112,551,135,13,460,
0,111,545,191,13,489,
0,110,539,188,13,483,
0,109,532,187,13,479,
0,108,526,185,13,473,
0,108,519,184,12,468,
0,107,514,183,13,463,
0,105,547,180,12,459,
0,105,541,179,12,454,
0,103,535,177,12,450,
0,118,527,176,12,446,
0,116,523,175,12,502,
0,115,517,174,12,496,
0,114,511,172,12,489,
0,113,505,171,12,484,
0,112,500,169,12,480,
0,111,495,167,12,476,
0,111,579,167,11,470,
0,110,571,166,11,465,
0,109,563,164,11,460,
0,113,556,163,11,455,
0,112,550,162,11,452,
0,111,543,161,11,469,
0,110,536,159,11,463,
0,109,530,159,10,459,
0,108,526,157,10,454,
0,107,519,156,11,449,
0,107,559,156,10,444,
0,105,591,154,10,440,
0,104,583,152,10,438,
0,103,575,152,9,433,
0,103,568,151,9,430,
0,103,561,150,9,427,
0,102,556,148,9,423,
0,101,550,147,9,420,
0,100,543,147,9,416,
0,99,539,145,9,413,
0,99,532,145,9,411,
0,98,612,143,9,408,
0,97,606,143,9,404,
0,96,598,142,9,401,
0,96,591,141,9,398,
0,96,584,140,8,396,
0,95,577,140,8,460,
0,95,572,139,8,455,
0,94,565,138,7,451,
0,93,560,137,7,448,
0,92,553,135,7,443,
0,92,547,135,7,439,
0,91,625,135,7,435,
0,91,625,134,7,430,
0,89,619,132,7,427,
0,89,611,132,7,423,
0,88,605,131,7,419,
0,88,598,130,7,451,
0,88,590,129,7,446,
0,87,584,129,7,441,
0,87,577,127,7,438,
0,86,572,127,7,433,
0,85,566,127,7,430,
0,84,636,126,7,425,
0,84,645,125,7,422,
0,83,636,124,7,418,
0,83,630,124,7,415,
0,83,621,123,7,411,
0,82,614,122,7,440,
0,81,608,121,7,435,
0,81,600,120,7,431,
0,80,594,120,7,428,
0,79,587,120,7,423,
0,79,582,119,7,419,
0,79,575,118,6,415,
0,78,704,118,6,412,
0,82,696,116,6,408,
0,82,686,115,6,404,
0,88,679,115,6,401,
0,88,669,115,6,398,
0,87,660,114,6,395,
0,86,654,113,6,391,
0,86,646,112,6,389,
0,85,639,112,6,387,
0,84,631,111,6,384,
0,84,623,111,6,380,
0,83,804,110,41,378,
0,108,789,109,40,376,
0,107,776,108,39,372,
0,105,764,115,39,369,
0,104,753,115,39,366,
0,103,742,113,39,364,
0,103,732,112,38,360,
0,102,721,112,38,358,
0,101,711,111,38,355,
0,100,704,110,38,352,
0,99,818,109,65,350,
0,99,839,108,64,348,
0,98,825,108,63,345,
0,97,812,107,63,343,
0,97,803,107,63,340,
0,96,791,105,62,338,
0,96,779,105,62,335,
0,95,768,103,61,333,
0,94,759,103,60,331,
0,93,748,103,60,328,
0,92,737,103,76,327,
0,92,896,102,119,324,
0,103,883,101,117,321,
0,103,867,100,116,319,
0,103,852,100,115,317,
0,101,839,99,114,315,
0,100,825,99,113,312,
0,99,812,98,112,311,
0,99,803,97,112,308,
0,98,791,97,111,307,
0,97,779,96,110,304,
0,96,893,96,144,303,
0,97,904,95,143,300,
0,97,899,95,141,298,
0,97,878,94,140,296,
0,96,864,94,139,295,
0,95,849,93,137,292,
0,95,839,92,136,291,
0,94,825,92,135,289,
0,93,813,92,135,287,
0,92,800,91,134,285,
0,92,792,91,133,284,
0,91,896,89,131,281,
0,91,889,89,131,280,
0,89,872,88,130,278,
0,89,862,88,129,276,
0,88,847,88,127,275,
0,88,833,88,127,273,
0,88,820,87,127,271,
0,87,811,86,126,270,
0,86,799,86,124,268,
0,85,787,85,124,267,
0,84,775,85,124,265,
0,84,768,84,123,263,
0,83,756,83,121,262,
0,86,746,83,120,260,
0,86,736,83,120,259,
0,86,728,132,120,342,
0,84,719,139,118,337,
0,84,708,137,118,334,
0,83,700,135,116,331,
0,83,691,135,115,327,
0,82,681,134,115,325,
0,81,718,132,114,323,
0,81,707,131,113,319,
0,80,696,130,112,317,
0,90,687,147,112,314,
0,89,677,145,111,375,
0,88,668,144,110,386,
0,88,660,143,109,382,
0,87,652,142,109,378,
0,86,646,141,108,375,
0,86,638,140,107,371,
0,85,674,138,107,368,
0,84,664,137,105,364,
0,83,655,135,105,359,
0,86,646,135,103,358,
0,84,637,134,103,355,
0,84,629,135,103,409,
0,83,622,134,102,406,
0,82,614,133,102,401,
0,82,607,132,100,398,
0,81,600,131,99,393,
0,81,625,130,99,390,
0,79,764,129,99,387,
0,83,752,127,98,384,
0,83,740,127,97,380,
0,82,732,126,97,376,
0,81,721,125,96,372,
0,80,711,124,96,370,
0,79,700,124,95,366,
0,79,691,123,94,364,
0,79,684,122,94,359,
0,78,675,120,93,358,
0,78,852,120,175,355,
0,98,877,120,172,352,
0,115,861,119,171,348,
0,114,847,118,169,345,
0,112,833,116,167,343,
0,112,819,115,166,339,
0,110,807,115,164,335,
0,110,795,114,163,333,
0,108,783,113,162,331,
0,108,768,112,161,327,
0,107,897,112,220,326,
0,127,907,111,217,323,
0,125,903,110,215,319,
0,124,881,109,213,318,
0,122,866,108,211,315,
0,121,852,108,209,312,
0,120,839,107,207,309,
0,120,825,105,206,307,
0,118,812,105,204,304,
0,118,809,103,204,303,
0,116,903,103,268,300,
0,134,910,103,265,297,
0,131,911,102,263,295,
0,131,902,102,260,293,
0,129,879,100,258,291,
0,127,864,99,255,288,
0,127,850,99,254,286,
0,126,836,99,252,284,
0,125,824,98,249,282,
0,124,812,97,254,280,
0,124,903,96,263,278,
0,172,909,96,262,275,
0,169,905,95,259,273,
0,167,883,95,257,271,
0,166,867,94,255,270,
0,164,856,93,254,268,
0,163,843,93,252,266,
0,162,830,92,249,263,
0,161,816,92,248,263,
0,159,804,91,246,261,
0,158,894,90,243,259,
0,156,907,89,241,257,
0,156,907,89,240,255,
0,155,885,88,238,254,
0,153,870,88,236,252,
0,152,856,88,235,251,
0,151,841,87,233,249,
0,150,828,86,231,248,
0,148,816,86,230,246,
0,147,806,85,228,244,
0,147,844,84,227,243,
0,145,857,84,225,241,
0,144,844,83,224,240,
0,143,829,88,222,238,
0,142,816,88,220,237,
0,141,803,91,219,236,
0,140,792,90,217,234,
0,140,780,89,216,232,
0,138,768,88,214,231,
0,137,757,88,212,230,
0,135,747,88,211,228,
0,135,737,87,210,227,
0,135,727,86,208,225,
0,134,719,86,207,224,
0,132,710,86,206,223,
0,131,701,188,204,313,
0,131,691,185,203,310,
0,129,679,184,201,307,
0,128,671,182,199,304,
0,127,664,180,199,302,
0,127,655,179,198,299,
0,126,665,177,196,295,
0,124,655,176,195,294,
0,124,647,174,193,291,
0,123,639,173,192,300,
0,122,632,172,191,359,
0,121,625,170,190,356,
0,120,615,169,188,352,
0,120,608,167,187,349,
0,119,601,166,185,345,
0,118,638,164,184,343,
0,117,628,163,183,339,
0,115,620,162,182,336,
0,115,611,161,181,332,
0,114,604,159,179,390,
0,113,596,177,179,408,
0,113,590,176,177,403,
0,112,582,174,176,399,
0,111,575,172,175,395,
0,110,568,171,174,391,
0,110,619,169,172,387,
0,108,609,167,172,384,
0,108,601,167,171,380,
0,107,593,166,169,376,
0,106,586,164,167,428,
0,105,579,166,167,423,
0,104,572,164,166,419,
0,103,563,163,164,414,
0,103,557,161,163,410,
0,102,551,160,163,406,
0,102,601,159,161,402,
0,101,593,158,160,398,
0,100,585,156,159,395,
0,112,578,156,159,390,
0,110,571,199,158,470,
0,110,563,196,157,463,
0,108,556,195,156,459,
0,108,548,193,155,454,
0,107,543,192,153,448,
0,105,537,190,152,444,
0,105,581,188,152,440,
0,103,574,187,151,435,
0,103,566,184,150,431,
0,102,559,184,149,425,
0,102,551,182,148,481,
0,100,545,180,147,476,
0,99,539,179,146,471,
0,99,532,177,145,465,
0,98,527,176,144,460,
0,97,521,175,143,455,
0,97,583,174,142,451,
0,96,575,172,142,448,
0,96,568,171,140,444,
0,95,561,184,140,439,
0,95,554,199,139,484,
0,94,547,198,138,479,
0,93,540,195,137,473,
0,92,535,194,136,468,
0,92,529,192,135,463,
0,92,524,191,135,459,
0,91,593,189,135,454,
0,89,584,188,134,449,
0,89,577,186,133,444,
0,114,569,184,132,440,
0,113,563,184,131,483,
0,112,556,182,131,478,
0,111,547,180,129,472,
0,110,540,179,128,467,
0,109,534,177,127,462,
0,108,527,176,127,457,
0,108,579,175,126,452,
0,106,572,174,126,447,
0,105,564,172,124,443,
0,104,557,171,124,438,
0,103,550,169,124,471,
0,103,543,167,122,465,
0,102,536,167,121,460,
0,101,529,166,121,455,
0,100,523,164,120,450,
0,99,517,163,120,446,
0,99,588,162,119,441,
0,98,579,160,118,436,
0,97,574,159,118,432,
0,97,567,158,116,428,
0,96,560,157,116,478,
0,96,552,156,115,472,
0,94,545,155,115,467,
0,94,540,153,114,463,
0,93,532,152,113,457,
0,92,527,152,112,454,
0,92,558,151,112,449,
0,91,551,150,111,445,
0,91,543,148,111,440,
0,92,537,147,110,436,
0,91,531,147,109,492,
0,89,524,159,108,486,
0,89,519,157,108,480,
0,88,514,156,108,475,
0,88,508,155,107,470,
0,88,504,153,106,465,
0,87,583,152,105,460,
0,86,575,151,105,455,
0,86,568,150,103,451,
0,84,561,149,103,448,
0,84,553,147,103,443,
0,83,547,146,103,487,
0,83,540,145,102,481,
0,83,534,144,101,476,
0,82,527,143,100,471,
0,81,521,142,100,465,
0,80,582,141,99,460,
0,79,575,140,99,455,
0,79,568,139,99,452,
0,79,560,138,97,448,
0,79,553,137,97,444,
0,78,548,137,97,476,
0,78,542,135,96,472,
0,77,535,135,96,467,
0,76,528,135,95,462,
0,76,524,134,95,457,
0,76,518,132,94,454,
0,75,522,131,94,449,
0,75,515,131,93,445,
0,74,511,129,92,440,
0,82,505,129,92,437,
0,81,500,128,92,433,
0,80,495,129,91,487,
0,79,492,127,91,483,
0,79,487,127,90,479,
0,79,482,126,89,473,
0,78,478,125,88,468,
0,77,473,124,88,463,
0,77,534,124,88,460,
0,76,527,123,88,455,
0,76,519,122,87,451,
0,91,515,121,87,446,
0,89,510,120,86,441,
0,89,504,123,86,439,
0,88,497,121,85,434,
0,88,492,121,85,430,
0,87,487,120,84,426,
0,86,483,119,83,423,
0,86,501,119,83,419,
0,84,511,118,83,415,
0,84,507,116,82,412,
0,83,500,115,81,408,
0,83,495,115,81,404,
0,82,489,150,81,448,
0,81,485,158,80,444,
0,81,480,156,79,440,
0,80,474,156,79,435,
0,79,470,155,79,431,
0,79,466,153,79,427,
0,78,510,152,78,423,
0,78,503,151,78,419,
0,77,496,150,77,415,
0,77,492,148,77,412,
0,76,487,147,76,408,
0,76,481,147,76,405,
0,75,476,145,76,401,
0,75,472,143,75,397,
0,74,466,143,75,395,
0,73,462,143,74,391,
0,73,457,141,74,388,
0,71,454,140,73,385,
0,71,450,139,73,382,
0,71,446,138,72,379,
0,71,441,137,71,376,
0,71,438,135,71,420,
0,70,435,135,71,425,
0,70,431,134,71,422,
0,69,427,133,71,417,
0,68,423,132,70,413,
0,68,420,131,70,409,
0,68,419,130,70,406,
0,67,483,129,69,402,
0,67,477,128,68,398,
0,66,473,127,68,395,
0,66,467,127,67,391,
0,65,462,127,67,459,
0,65,456,145,67,453,
0,65,454,143,67,448,
0,63,448,142,66,444,
0,63,444,142,65,440,
0,63,439,140,65,435,
0,63,465,139,65,431,
0,63,471,138,64,428,
0,62,465,137,64,423,
0,62,460,135,63,419,
0,62,455,135,63,415,
0,61,451,134,63,413,
0,60,446,134,63,409,
0,60,441,132,63,406,
0,60,437,131,62,401,
0,59,432,130,62,398,
0,59,428,129,62,396,
0,59,491,128,61,391,
0,58,484,127,61,388,
0,57,480,127,60,385,
0,60,475,131,60,382,
0,60,470,131,60,396,
0,59,463,137,60,433,
0,59,460,136,59,428,
0,58,455,135,59,425,
0,57,450,135,58,420,
0,57,445,134,57,416,
0,56,441,132,57,412,
0,56,508,131,57,409,
0,56,502,131,57,406,
0,56,496,129,56,401,
0,58,492,128,56,398,
0,57,486,127,56,395,
0,57,480,127,56,391,
0,57,475,126,56,387,
0,56,472,125,56,384,
0,56,465,124,55,381,
0,56,460,123,55,377,
0,56,515,122,54,375,
0,55,510,121,54,371,
0,55,504,120,54,369,
0,54,497,120,53,366,
0,54,492,119,52,363,
0,54,487,120,52,420,
0,53,482,119,52,415,
0,52,476,118,52,412,
0,52,472,117,51,408,
0,51,466,116,51,404,
0,51,463,115,51,399,
0,51,521,115,51,398,
0,51,514,114,51,393,
0,51,508,113,50,390,
0,61,504,112,50,386,
0,60,497,112,49,384,
0,60,492,125,49,428,
0,60,486,124,49,423,
0,59,482,123,48,419,
0,59,476,122,48,416,
0,58,472,121,48,412,
0,57,466,120,48,408,
0,57,527,120,48,403,
0,56,519,119,47,401,
0,59,513,118,47,397,
0,60,507,116,47,393,
0,60,503,129,47,443,
0,59,496,150,46,439,
0,59,491,148,46,434,
0,58,486,147,46,429,
0,57,481,146,45,425,
0,57,476,145,45,420,
0,56,485,143,44,417,
0,56,488,143,44,414,
0,56,484,142,44,409,
0,59,479,142,44,406,
0,59,473,188,44,403,
0,58,468,187,43,457,
0,57,463,184,43,451,
0,57,459,183,43,448,
0,56,454,182,43,444,
0,56,449,180,43,439,
0,56,444,179,42,434,
0,56,515,177,41,430,
0,55,508,176,41,427,
0,54,502,175,41,423,
0,67,496,174,41,419,
0,67,492,172,40,423,
0,66,486,171,40,481,
0,65,480,170,39,476,
0,64,475,169,39,471,
0,63,471,167,39,465,
0,63,465,167,39,462,
0,63,460,166,39,457,
0,63,505,164,39,452,
0,62,501,163,39,448,
0,63,495,162,39,444,
0,79,489,161,38,440,
0,79,483,159,38,487,
0,78,480,158,38,496,
0,78,474,157,38,490,
0,76,468,156,37,486,
0,76,463,155,37,481,
0,76,459,153,36,476,
0,75,455,153,36,471,
0,75,497,152,36,467,
0,73,492,151,36,463,
0,78,486,150,35,457,
0,86,481,148,35,453,
0,84,476,162,35,516,
0,83,471,161,35,510,
0,83,465,159,35,504,
0,83,462,159,35,498,
0,82,455,156,34,494,
0,81,451,156,34,488,
0,81,527,155,34,483,
0,79,523,153,33,479,
0,79,515,152,33,475,
0,80,510,152,33,470,
0,79,504,150,33,465,
0,79,499,159,33,481,
0,79,493,158,33,478,
0,78,487,156,32,472,
0,78,482,156,32,467,
0,76,478,154,31,462,
0,76,472,153,31,459,
0,76,524,152,31,455,
0,75,517,151,31,449,
0,75,512,150,31,446,
0,89,507,148,31,441,
0,88,500,147,31,459,
0,88,495,147,31,487,
0,87,488,146,30,483,
0,86,485,145,30,478,
0,85,480,143,30,473,
0,84,474,143,30,468,
0,84,486,142,30,463,
0,83,507,140,30,459,
0,83,500,140,29,455,
0,82,494,139,29,451,
0,81,488,186,29,446,
0,80,484,204,29,442,
0,79,479,201,28,439,
0,79,473,199,28,435,
0,79,468,198,28,431,
0,78,464,195,28,427,
0,78,459,195,28,423,
0,77,539,193,28,419,
0,76,537,192,27,415,
0,76,532,190,27,412,
0,77,526,188,27,409,
0,76,519,187,27,406,
0,76,513,185,26,404,
0,76,508,184,26,401,
0,75,503,183,26,398,
0,74,496,182,26,395,
0,73,491,180,25,391,
0,73,487,179,25,387,
0,71,541,177,25,384,
0,71,534,176,25,382,
0,71,527,175,25,379,
0,71,520,174,25,376,
0,71,516,172,24,420,
0,70,510,171,24,432,
0,70,504,170,24,427,
0,68,498,169,24,423,
0,68,494,167,24,418,
0,67,488,167,24,415,
0,67,483,166,24,411,
0,67,511,164,24,407,
0,66,507,163,24,403,
0,67,500,161,24,399,
0,75,494,161,23,396,
0,73,488,159,23,444,
0,73,484,159,23,440,
0,71,479,158,23,435,
0,71,473,156,23,431,
0,71,469,156,23,427,
0,71,465,154,22,422,
0,70,486,153,23,419,
0,70,498,152,23,415,
0,69,492,152,22,411,
0,73,487,150,22,408,
0,72,483,149,22,403,
0,71,477,172,22,445,
0,71,472,171,21,440,
0,71,467,168,21,435,
0,70,462,167,21,431,
0,70,457,167,21,428,
0,70,452,165,21,423,
0,68,512,163,21,419,
0,68,508,163,20,415,
0,67,502,161,20,412,
0,76,496,159,20,408,
0,76,489,159,20,419,
0,75,486,161,20,478,
0,74,480,160,20,473,
0,73,475,159,20,468,
0,73,470,158,19,463,
0,71,465,156,19,457,
0,71,460,156,19,455,
0,71,513,155,19,450,
0,71,507,153,19,446,
0,70,502,152,19,441,
0,86,496,151,19,438,
0,86,491,150,19,480,
0,84,484,150,19,488,
0,84,481,148,19,483,
0,83,476,147,18,479,
0,83,470,146,18,473,
0,81,464,145,18,468,
0,81,461,143,18,463,
0,80,510,143,18,460,
0,79,504,142,18,455,
0,79,497,141,17,451,
0,79,494,175,17,446,
0,78,487,179,17,510,
0,78,482,178,17,505,
0,78,476,176,17,499,
0,76,472,175,17,494,
0,76,467,174,17,488,
0,76,462,172,17,484,
0,75,534,171,30,480,
0,75,526,169,29,475,
0,73,521,167,29,470,
0,73,515,167,28,466,
0,72,508,166,28,462,
0,71,503,194,28,510,
0,71,498,192,28,504,
0,71,492,190,28,499,
0,71,487,189,28,494,
0,70,481,188,27,489,
0,70,478,186,28,484,
0,68,489,184,33,480,
0,68,483,184,32,475,
0,67,478,182,32,470,
0,70,473,180,31,465,
0,68,468,179,31,462,
0,68,463,177,31,466,
0,67,458,176,31,461,
0,67,455,175,31,456,
0,66,450,174,31,454,
0,66,446,172,30,448,
0,65,475,172,32,444,
0,65,513,170,31,440,
0,65,507,169,31,435,
0,68,500,167,31,432,
0,70,495,167,31,428,
0,69,488,166,31,467,
0,68,484,164,31,461,
0,67,479,163,30,457,
0,67,473,162,30,452,
0,67,468,160,30,448,
0,66,464,159,30,444,
0,65,509,159,32,440,
0,65,502,158,32,435,
0,64,496,156,31,431,
0,125,490,155,31,427,
0,123,486,154,31,423,
0,121,480,153,31,481,
0,120,475,152,31,476,
0,120,470,151,31,472,
0,119,463,150,30,467,
0,118,459,149,30,463,
0,116,455,147,37,457,
0,115,513,147,36,453,
0,115,508,145,35,448,
0,114,501,144,35,444,
0,113,496,143,35,440,
0,112,489,143,35,483,
0,111,484,142,34,477,
0,110,479,140,34,472,
0,109,475,140,34,467,
0,108,470,139,33,462,
0,108,463,137,35,457,
0,107,543,135,39,452,
0,105,536,135,39,449,
0,105,529,135,38,444,
0,103,523,134,38,440,
0,103,516,153,38,466,
0,103,510,199,38,460,
0,102,504,197,37,455,
0,102,499,195,36,451,
0,100,493,193,36,446,
0,99,489,192,36,441,
0,99,510,190,36,439,
0,98,504,189,35,433,
0,97,498,188,35,430,
0,97,494,185,35,425,
0,96,487,184,35,423,
0,96,482,184,35,456,
0,95,477,182,34,451,
0,94,472,180,34,447,
0,94,467,179,33,443,
0,92,463,177,33,440,
0,92,458,176,35,435,
0,92,499,175,35,430,
0,91,494,174,35,425,
0,90,487,172,35,423,
0,89,483,172,35,419,
0,88,477,170,35,476,
0,88,473,205,34,469,
0,88,467,203,33,465,
0,87,463,201,33,460,
0,87,457,199,33,455,
0,86,454,198,32,451,
0,86,463,196,35,447,
0,84,505,195,34,443,
0,84,499,193,34,438,
0,83,495,192,33,433,
0,83,489,191,33,431,
0,82,483,189,33,476,
0,81,478,188,33,470,
0,81,473,186,32,463,
0,80,468,184,31,460,
0,79,463,184,31,455,
0,79,459,183,31,451,
0,79,508,181,31,446,
0,78,500,179,31,441,
0,78,495,179,31,439,
0,83,488,177,30,434,
0,82,483,176,30,430,
0,81,480,174,30,481,
0,80,473,173,30,478,
0,79,468,172,30,472,
0,79,463,171,30,467,
0,79,460,169,29,462,
0,78,454,167,29,459,
0,77,527,167,28,454,
0,77,521,166,28,449,
0,76,516,164,28,444,
0,76,510,163,28,441,
0,75,504,163,28,436,
0,75,498,161,28,440,
0,74,494,160,28,435,
0,73,488,159,27,432,
0,72,483,158,27,428,
0,72,478,157,26,423,
0,71,473,156,27,419,
0,71,493,155,26,416,
0,71,487,154,26,413,
0,71,482,153,26,409,
0,71,478,152,25,406,
0,71,472,193,25,476,
0,71,467,192,25,472,
0,71,462,190,25,467,
0,70,457,188,24,462,
0,70,454,186,24,456,
0,69,448,184,24,453,
0,68,491,184,25,448,
0,68,484,182,24,444,
0,67,480,180,24,440,
0,68,475,179,24,435,
0,67,468,178,24,432,
0,67,463,176,24,490,
0,67,460,175,24,484,
0,66,455,174,24,480,
0,66,449,173,24,476,
0,65,445,172,23,470,
0,65,441,170,23,465,
0,64,454,169,23,462,
0,65,448,167,23,457,
0,65,443,167,23,452,
0,65,440,168,23,448,
0,63,435,211,23,444,
0,63,431,209,22,493,
0,63,425,207,22,487,
0,63,423,206,22,481,
0,62,419,204,22,478,
0,62,415,203,21,472,
0,62,412,201,26,468,
0,61,462,199,25,463,
0,60,456,198,25,458,
0,60,451,196,25,455,
0,60,446,195,25,450,
0,60,441,222,25,494,
0,60,438,228,24,487,
0,59,433,226,24,483,
0,59,428,224,24,478,
0,58,423,223,24,473,
0,57,420,220,24,468,
0,57,467,219,24,463,
0,57,476,217,24,460,
0,56,471,216,23,455,
0,79,466,214,23,451,
0,78,461,212,23,447,
0,77,455,211,23,443,
0,76,451,209,22,438,
0,76,447,207,23,434,
0,75,441,206,22,431,
0,75,437,204,22,427,
0,74,432,204,22,423,
0,73,505,201,24,419,
0,72,499,199,24,415,
0,71,493,199,24,412,
0,71,487,198,24,408,
0,71,483,195,23,405,
0,71,478,195,23,419,
0,70,472,193,23,415,
0,70,467,192,23,411,
0,68,463,191,23,407,
0,68,457,189,22,403,
0,67,453,188,24,399,
0,67,510,187,24,396,
0,67,503,185,24,393,
0,66,499,184,24,390,
0,67,492,183,24,387,
0,67,487,182,24,387,
0,67,481,180,24,384,
0,66,478,179,23,380,
0,65,472,177,23,377,
0,65,467,176,23,374,
0,64,462,175,23,371,
0,63,471,174,28,368,
0,63,513,172,28,366,
0,63,508,172,28,363,
0,68,502,171,28,359,
0,74,497,169,27,356,
0,73,492,179,27,415,
0,72,486,177,27,412,
0,71,480,176,27,407,
0,71,476,174,26,403,
0,71,471,172,26,399,
0,70,465,172,25,396,
0,70,520,171,34,391,
0,69,515,169,34,388,
0,68,509,167,34,385,
0,68,504,187,33,382,
0,67,497,184,33,379,
0,67,493,183,33,452,
0,66,487,181,32,447,
0,65,481,180,31,444,
0,65,476,179,31,439,
0,64,471,177,31,434,
0,63,467,176,31,430,
0,63,512,175,31,427,
0,63,506,173,31,423,
0,63,499,172,30,419,
0,63,496,224,30,414,
0,62,489,222,30,415,
0,62,484,220,30,430,
0,62,479,219,29,425,
0,61,475,216,29,421,
0,60,469,215,29,418,
0,60,463,214,29,414,
0,60,492,211,31,409,
0,59,504,210,31,406,
0,59,497,208,31,403,
0,75,492,207,30,399,
0,79,486,206,30,396,
0,79,481,204,30,446,
0,78,476,202,30,442,
0,77,471,201,29,438,
0,76,465,199,28,433,
0,76,462,198,28,428,
0,75,456,196,28,425,
0,75,511,195,38,421,
0,74,504,193,37,417,
0,73,499,192,37,412,
0,86,494,191,36,408,
0,84,487,190,36,406,
0,84,482,188,35,451,
0,83,476,187,35,446,
0,83,472,185,35,441,
0,82,467,184,35,438,
0,81,462,183,34,433,
0,80,457,182,35,429,
0,79,496,180,34,423,
0,79,489,179,34,422,
0,79,483,178,33,417,
0,139,479,176,33,413,
0,136,473,177,33,485,
0,135,467,222,33,483,
0,134,463,220,31,478,
0,133,459,217,31,472,
0,131,454,216,31,467,
0,131,448,214,31,463,
0,129,499,212,34,458,
0,128,493,210,33,455,
0,127,487,208,33,450,
0,129,481,207,32,446,
0,127,476,206,32,441,
0,127,471,204,31,480,
0,126,465,203,31,474,
0,124,460,201,31,469,
0,124,455,199,31,463,
0,123,450,198,31,459,
0,121,483,196,43,455,
0,120,478,195,42,450,
0,120,472,193,41,446,
0,119,467,192,41,441,
0,118,462,191,40,436,
0,117,456,189,39,487,
0,116,451,188,39,481,
0,115,447,186,39,476,
0,114,441,185,39,471,
0,114,437,184,39,466,
0,113,433,183,39,461,
0,112,453,181,39,456,
0,111,448,179,38,451,
0,110,443,178,38,448,
0,110,438,177,38,443,
0,109,433,176,37,494,
0,108,430,174,36,487,
0,107,425,173,36,483,
0,106,422,172,36,478,
0,105,417,171,35,472,
0,104,414,169,35,468,
0,103,458,167,35,463,
0,103,452,167,35,459,
0,103,448,166,35,455,
0,102,443,164,34,449,
0,102,438,163,34,496,
0,100,432,163,34,489,
0,99,430,161,33,484,
0,99,424,159,33,479,
0,98,420,159,33,475,
0,97,415,158,32,470,
0,97,468,157,36,464,
0,96,463,156,36,460,
0,96,457,155,35,456,
0,102,452,155,35,451,
0,100,448,153,35,448,
0,100,443,197,35,443,
0,99,438,194,35,439,
0,98,434,192,34,434,
0,97,430,191,34,431,
0,96,425,190,33,427,
0,96,420,188,35,423,
0,96,485,187,35,419,
0,95,479,185,35,415,
0,94,472,184,34,412,
0,94,467,183,34,408,
0,93,463,181,33,454,
0,92,459,179,33,459,
0,92,454,178,33,454,
0,92,448,177,33,449,
0,91,444,176,32,444,
0,90,440,174,32,440,
0,89,435,173,38,436,
0,88,486,172,38,432,
0,88,480,171,37,428,
0,88,475,169,36,423,
0,92,470,167,36,420,
0,92,464,167,36,473,
0,91,459,166,36,467,
0,90,455,164,35,462,
0,89,450,163,35,458,
0,88,445,163,35,453,
0,88,440,161,35,448,
0,88,480,160,41,444,
0,87,491,159,40,440,
0,86,484,158,40,436,
0,87,479,156,39,432,
0,88,475,156,39,428,
0,87,470,155,39,469,
0,86,463,153,39,463,
0,86,459,152,39,459,
0,85,455,152,39,454,
0,84,450,151,38,451,
0,83,445,150,38,446,
0,83,440,148,39,441,
0,82,437,147,39,436,
0,82,432,147,39,433,
0,81,428,146,39,429,
0,81,423,145,39,438,
0,79,420,143,39,470,
0,79,415,143,38,463,
0,79,412,142,38,460,
0,79,408,141,38,455,
0,78,404,140,37,451,
0,78,402,139,39,446,
0,77,432,138,39,443,
0,76,428,137,38,438,
0,76,423,136,38,433,
0,94,419,189,38,430,
0,93,415,188,38,497,
0,92,411,185,37,489,
0,92,407,184,36,484,
0,91,403,183,36,479,
0,90,399,181,35,475,
0,89,396,179,35,470,
0,89,449,179,40,465,
0,88,444,177,39,460,
0,88,440,176,39,456,
0,89,434,174,39,451,
0,88,430,173,39,448,
0,88,426,172,39,481,
0,87,422,170,39,476,
0,86,417,169,38,472,
0,86,412,167,38,467,
0,85,409,167,37,461,
0,84,405,166,37,458,
0,83,476,164,50,454,
0,83,469,163,49,448,
0,82,465,162,49,444,
0,84,460,161,48,440,
0,83,455,159,48,436,
0,83,449,159,47,432,
0,82,444,158,47,428,
0,81,440,156,47,423,
0,81,436,156,46,422,
0,80,432,154,46,417,
0,79,427,153,47,414,
0,79,494,152,47,409,
0,79,487,151,47,407,
0,78,482,150,46,403,
0,77,476,149,46,399,
0,76,472,151,45,431,
0,76,467,149,45,427,
0,76,462,148,44,423,
0,75,456,147,44,418,
0,75,452,146,44,414,
0,74,448,145,44,411,
0,73,483,144,47,408,
0,73,516,143,47,403,
0,71,511,142,46,399,
0,82,505,141,46,396,
0,88,499,140,45,393,
0,88,494,140,45,432,
0,87,489,139,44,428,
0,86,483,137,44,423,
0,85,478,137,44,419,
0,84,473,135,44,415,
0,83,469,135,43,412,
0,83,513,134,51,408,
0,82,506,133,51,404,
0,81,500,132,51,400,
0,83,494,131,51,397,
0,82,489,131,51,403,
0,81,484,129,50,455,
0,81,479,129,49,451,
0,80,473,128,49,446,
0,79,470,127,48,441,
0,79,464,127,48,438,
0,79,460,126,52,433,
0,78,556,125,52,428,
0,78,550,124,51,424,
0,77,543,123,51,422,
0,76,536,123,51,417,
0,76,529,177,51,463,
0,76,525,192,50,457,
0,75,519,191,50,453,
0,74,512,189,49,448,
0,73,507,188,49,444,
0,73,503,185,48,439,
0,72,497,184,50,435,
0,71,555,184,49,431,
0,71,547,182,49,427,
0,71,542,180,48,423,
0,71,536,179,48,419,
0,71,529,177,48,465,
0,71,523,176,47,459,
0,70,519,175,47,455,
0,70,512,174,47,449,
0,69,507,172,46,446,
0,68,500,171,46,441,
0,68,561,170,60,436,
0,67,555,168,60,432,
0,67,548,167,59,429,
0,67,541,166,59,425,
0,67,535,165,58,420,
0,67,529,163,57,417,
0,66,524,163,57,414,
0,65,518,161,56,409,
0,65,511,160,56,407,
0,65,507,159,56,403,
0,63,502,158,56,399,
0,63,563,157,65,396,
0,63,556,156,64,391,
0,63,551,155,63,389,
0,63,543,153,63,387,
0,62,537,152,63,384,
0,62,531,152,62,431,
0,61,526,151,62,427,
0,61,519,150,61,423,
0,60,514,148,61,419,
0,60,508,147,60,415,
0,60,504,146,60,411,
0,59,498,145,60,408,
0,64,493,144,60,403,
0,64,487,143,59,399,
0,63,483,143,58,396,
0,63,479,142,57,397,
0,63,473,141,57,394,
0,63,468,140,57,391,
0,62,463,139,57,387,
0,61,460,138,56,384,
0,60,455,137,56,381,
0,60,452,135,56,377,
0,60,448,135,55,374,
0,63,445,135,55,371,
0,63,440,134,54,368,
0,63,435,132,54,366,
0,62,432,131,53,419,
0,62,428,131,53,415,
0,61,423,129,52,412,
0,60,420,129,52,408,
0,60,415,127,51,403,
0,60,414,127,52,399,
0,59,499,126,53,396,
0,67,492,126,53,392,
0,67,487,125,52,389,
0,67,482,124,52,385,
0,67,476,123,51,383,
0,66,472,126,51,428,
0,65,465,125,51,423,
0,65,462,124,50,419,
0,64,457,124,50,415,
0,63,452,122,49,412,
0,63,448,121,56,408,
0,63,515,121,55,403,
0,91,508,120,55,399,
0,89,502,123,54,396,
0,88,496,125,54,392,
0,88,491,124,54,389,
0,87,486,134,53,385,
0,86,480,132,52,384,
0,86,476,131,51,380,
0,85,470,131,51,376,
0,84,466,129,51,372,
0,83,495,128,51,370,
0,83,492,127,51,367,
0,83,487,127,50,364,
0,81,483,126,49,359,
0,81,476,124,49,359,
0,80,472,127,49,415,
0,79,466,127,48,411,
0,79,462,126,48,407,
0,79,457,125,48,403,
0,78,452,124,47,399,
0,78,448,123,47,396,
0,76,471,122,47,391,
0,77,464,121,46,389,
0,76,459,120,46,385,
0,76,454,120,46,382,
0,76,450,119,45,387,
0,75,446,118,45,440,
0,74,440,118,44,435,
0,73,436,117,44,431,
0,73,432,116,44,426,
0,72,428,115,44,422,
0,71,424,115,44,419,
0,71,489,113,43,415,
0,71,483,113,43,411,
0,71,479,112,42,406,
0,71,473,112,42,403,
0,70,467,111,41,443,
0,70,463,111,41,450,
0,68,459,110,41,445,
0,68,454,109,40,441,
0,67,449,108,39,436,
0,67,444,108,39,432,
0,67,444,107,39,428,
0,66,488,106,39,424,
0,71,483,105,39,420,
0,71,477,105,39,416,
0,70,472,104,39,412,
0,70,467,153,39,465,
0,69,462,152,38,460,
0,68,456,150,38,454,
0,67,453,148,38,449,
0,67,448,147,38,446,
0,67,444,146,37,441,
0,66,508,145,37,436,
0,67,503,143,36,432,
0,69,496,143,36,428,
0,68,491,142,36,425,
0,68,486,141,36,420,
0,67,480,172,35,476,
0,67,476,169,35,471,
0,67,470,167,35,467,
0,66,465,167,35,462,
0,65,460,165,35,457,
0,65,455,163,34,452,
0,63,484,163,34,449,
0,67,479,161,33,444,
0,67,472,160,33,440,
0,65,469,159,33,435,
0,65,463,158,33,441,
0,65,459,157,33,487,
0,63,454,156,32,481,
0,63,449,155,31,476,
0,63,445,153,31,472,
0,63,440,152,31,467,
0,62,435,152,36,462,
0,62,432,150,36,457,
0,62,428,149,35,454,
0,61,423,148,35,449,
0,61,419,147,35,445,
0,60,416,146,35,498,
0,60,412,145,35,493,
0,59,408,144,34,487,
0,59,404,143,34,482,
0,58,402,142,33,477,
0,58,398,141,33,472,
0,57,467,140,36,468,
0,57,461,139,35,463,
0,88,455,137,35,459,
0,88,451,137,35,454,
0,87,447,135,35,451,
0,86,441,135,34,447,
0,85,436,134,34,441,
0,84,433,133,34,438,
0,83,428,132,33,434,
0,83,423,131,33,430,
0,82,419,131,70,427,
0,81,551,129,84,422,
0,110,543,129,83,418,
0,109,536,127,83,415,
0,108,530,127,81,412,
0,107,524,126,81,408,
0,106,517,125,80,404,
0,105,511,124,79,400,
0,103,505,124,79,397,
0,103,499,123,78,393,
0,103,494,121,78,390,
0,102,623,120,96,386,
0,105,612,120,95,384,
0,127,607,120,94,380,
0,125,599,119,93,376,
0,124,591,118,92,373,
0,123,583,116,92,370,
0,122,575,115,91,368,
0,121,568,115,90,364,
0,120,562,114,89,361,
0,119,556,113,88,359,
0,118,587,113,88,355,
0,118,585,112,88,353,
0,116,578,111,87,350,
0,115,571,111,86,347,
0,115,564,110,85,344,
0,113,557,127,84,406,
0,113,551,125,83,401,
0,112,545,124,83,398,
0,111,540,123,83,393,
0,110,534,121,82,390,
0,109,527,121,81,386,
0,108,527,120,81,384,
0,108,521,119,80,380,
0,107,515,118,79,376,
0,107,510,165,79,372,
0,105,504,163,78,438,
0,104,499,161,78,432,
0,103,494,160,77,428,
0,103,487,159,76,423,
0,102,483,158,76,419,
0,101,479,156,76,415,
0,100,515,155,75,411,
0,99,509,153,75,407,
0,99,504,153,74,403,
0,99,497,152,73,399,
0,97,493,151,73,457,
0,97,487,151,72,472,
0,96,481,150,71,467,
0,96,476,148,71,463,
0,95,472,147,71,457,
0,94,467,146,71,453,
0,93,463,145,70,449,
0,93,487,143,70,445,
0,92,482,143,68,440,
0,92,478,142,68,436,
0,92,472,141,67,433,
0,91,467,140,67,492,
0,90,462,139,67,487,
0,89,457,137,67,481,
0,88,454,136,66,477,
0,88,449,135,65,472,
0,88,444,135,65,467,
0,87,441,134,65,462,
0,86,437,133,63,458,
0,86,433,132,63,454,
0,86,429,131,63,449,
0,86,426,130,63,444,
0,84,422,131,63,500,
0,84,417,131,62,494,
0,83,414,129,62,488,
0,83,412,128,61,483,
0,83,408,127,60,480,
0,82,403,127,60,475,
0,81,470,126,60,470,
0,81,465,125,60,464,
0,80,460,124,59,460,
0,89,455,124,59,455,
0,88,449,123,59,472,
0,88,444,129,58,515,
0,87,441,127,57,510,
0,87,436,127,57,505,
0,86,432,126,56,499,
0,85,427,126,56,495,
0,84,423,124,56,489,
0,83,420,123,56,486,
0,83,415,123,55,480,
0,83,412,121,55,476,
0,83,409,121,55,471,
0,83,404,147,54,531,
0,81,401,147,54,524,
0,81,398,146,53,517,
0,81,395,144,53,511,
0,79,391,143,52,507,
0,79,388,143,52,502,
0,79,417,141,51,496,
0,78,414,140,51,491,
0,78,408,139,51,487,
0,81,404,138,51,482,
0,80,399,137,50,478,
0,79,397,140,50,539,
0,79,392,138,49,534,
0,78,389,137,49,527,
0,78,385,136,49,521,
0,77,384,135,48,515,
0,76,380,135,48,511,
0,76,460,134,48,507,
0,76,453,132,47,501,
0,75,448,131,47,496,
0,75,444,130,47,491,
0,74,440,129,46,487,
0,73,435,129,46,489,
0,73,430,127,46,484,
0,71,427,127,46,480,
0,71,422,126,45,476,
0,71,418,126,45,471,
0,71,432,124,44,466,
0,71,486,123,44,462,
0,70,480,123,44,458,
0,71,473,121,44,454,
0,92,468,120,44,449,
0,91,464,120,43,490,
0,90,459,136,43,486,
0,89,454,135,43,480,
0,88,449,135,42,475,
0,88,445,134,41,470,
0,88,440,132,41,466,
0,87,489,131,41,462,
0,86,485,131,40,456,
0,85,480,129,40,451,
0,86,475,128,39,448,
0,86,470,127,39,444,
0,86,464,220,39,513,
0,85,459,217,39,508,
0,84,455,215,39,502,
0,83,450,212,39,497,
0,83,445,211,39,492,
0,82,440,209,39,487,
0,81,444,207,38,481,
0,81,439,206,38,478,
0,80,433,205,38,473,
0,86,429,203,37,468,
0,85,426,201,37,463,
0,84,422,199,36,515,
0,83,417,199,36,510,
0,83,414,197,35,504,
0,83,410,195,35,499,
0,81,407,194,35,494,
0,81,403,193,35,489,
0,80,463,192,35,484,
0,79,458,190,35,479,
0,79,453,188,35,476,
0,85,448,188,34,471,
0,84,443,186,34,523,
0,83,440,184,33,524,
0,83,434,184,33,519,
0,82,430,182,33,515,
0,82,425,181,33,508,
0,81,422,179,33,504,
0,80,418,178,33,497,
0,79,446,177,33,494,
0,79,440,176,33,488,
0,79,435,175,32,483,
0,79,432,174,32,479,
0,78,428,172,32,551,
0,78,423,171,31,543,
0,77,418,170,31,537,
0,76,415,169,31,531,
0,76,411,167,31,527,
0,75,407,167,31,521,
0,75,467,166,31,515,
0,74,462,164,31,510,
0,73,456,163,31,506,
0,95,451,216,31,500,
0,94,447,212,30,496,
0,93,443,243,30,573,
0,92,438,240,30,568,
0,91,433,239,29,561,
0,91,428,236,29,555,
0,90,425,235,29,548,
0,89,420,232,29,543,
0,88,508,231,29,537,
0,88,502,229,29,531,
0,87,497,227,29,526,
0,87,491,225,29,521,
0,86,486,224,28,531,
0,85,480,228,28,562,
0,84,476,226,28,556,
0,83,471,224,28,549,
0,83,465,223,28,544,
0,83,460,221,27,539,
0,81,470,219,35,532,
0,81,472,217,35,527,
0,80,467,216,35,523,
0,79,462,215,34,516,
0,79,455,213,34,511,
0,79,452,211,33,545,
0,78,448,210,33,541,
0,78,443,208,33,535,
0,77,439,207,33,528,
0,76,435,206,32,523,
0,76,431,204,31,518,
0,75,468,203,31,512,
0,75,463,201,31,507,
0,74,459,199,31,502,
0,79,454,199,31,498,
0,79,448,197,31,493,
0,78,444,200,31,513,
0,78,440,199,31,507,
0,77,435,197,30,503,
0,76,431,196,30,497,
0,76,426,195,30,492,
0,76,423,193,30,487,
0,75,455,192,30,483,
0,74,449,191,29,479,
0,73,444,189,29,474,
0,84,440,188,29,470,
0,83,436,187,29,496,
0,83,432,185,28,505,
0,82,427,184,28,499,
0,81,423,184,28,494,
0,80,419,182,28,489,
0,79,415,180,28,485,
0,79,411,179,28,480,
0,79,455,177,27,475,
0,78,451,177,27,470,
0,78,446,176,27,467,
0,90,440,175,27,462,
0,89,435,174,27,500,
0,88,432,172,26,495,
0,88,428,171,26,491,
0,87,423,170,25,485,
0,87,419,169,25,480,
0,86,415,167,25,475,
0,85,435,167,28,472,
0,84,430,166,28,466,
0,83,424,164,28,461,
0,92,422,163,27,456,
0,92,416,162,27,454,
0,91,412,163,27,449,
0,91,408,161,27,445,
0,89,405,160,27,441,
0,89,401,159,26,438,
0,88,398,159,25,433,
0,88,393,157,39,430,
0,87,486,156,41,426,
0,87,479,155,40,422,
0,86,473,154,39,419,
0,87,467,153,39,415,
0,86,462,152,39,412,
0,86,459,157,39,455,
0,84,453,156,39,452,
0,84,448,155,39,448,
0,83,444,153,38,443,
0,83,440,152,38,438,
0,82,435,151,71,435,
0,81,543,150,71,431,
0,81,536,149,71,426,
0,80,531,148,71,422,
0,81,525,147,70,419,
0,81,519,146,70,421,
0,80,512,145,68,416,
0,79,508,144,68,412,
0,79,503,143,67,409,
0,78,496,142,67,406,
0,78,491,142,67,402,
0,78,501,140,66,399,
0,76,536,140,65,396,
0,76,528,139,65,393,
0,78,523,138,64,390,
0,83,518,137,63,386,
0,82,511,156,63,392,
0,81,505,154,63,388,
0,81,499,153,63,385,
0,79,496,152,62,382,
0,79,490,151,62,379,
0,78,484,150,61,376,
0,78,543,148,61,372,
0,78,536,147,61,369,
0,77,531,145,60,367,
0,79,524,145,60,364,
0,79,518,143,60,361,
0,78,512,147,59,412,
0,78,508,146,59,408,
0,77,502,145,58,404,
0,76,496,143,57,399,
0,76,491,143,57,396,
0,75,487,142,57,391,
0,75,555,140,56,390,
0,73,547,140,56,386,
0,73,540,147,56,382,
0,73,536,147,56,379,
0,71,529,147,55,391,
0,71,523,173,54,425,
0,71,516,171,54,421,
0,71,512,169,54,417,
0,70,507,167,53,414,
0,70,500,167,52,409,
0,69,561,166,52,406,
0,68,575,164,51,401,
0,68,568,163,51,398,
0,67,560,162,51,395,
0,67,552,161,51,391,
0,67,547,159,51,441,
0,67,541,158,50,436,
0,66,535,157,49,433,
0,66,528,156,49,428,
0,65,522,155,49,423,
0,65,518,153,48,419,
0,64,560,152,48,416,
0,63,552,152,48,412,
0,63,545,151,47,408,
0,63,540,150,47,404,
0,63,534,148,47,401,
0,62,527,186,47,465,
0,62,521,184,46,460,
0,62,517,182,46,455,
0,61,511,180,45,451,
0,61,505,179,45,447,
0,60,499,178,46,443,
0,60,568,176,45,438,
0,60,560,175,44,435,
0,59,553,174,44,430,
0,59,547,173,44,426,
0,58,542,172,44,460,
0,57,536,170,43,463,
0,57,529,169,43,457,
0,57,523,167,43,452,
0,56,518,167,43,448,
0,56,512,165,41,443,
0,56,547,164,51,440,
0,56,606,163,50,435,
0,56,598,161,49,431,
0,55,591,160,49,427,
0,55,583,159,49,423,
0,54,577,179,48,468,
0,54,569,189,48,463,
0,54,564,188,48,457,
0,52,558,185,47,454,
0,52,551,184,47,449,
0,52,544,183,47,444,
0,52,540,182,47,440,
0,51,534,179,46,436,
0,57,527,179,46,432,
0,72,521,177,46,428,
0,71,518,176,45,423,
0,71,512,174,44,476,
0,70,506,174,44,471,
0,70,500,172,44,465,
0,69,496,171,44,460,
0,68,492,169,44,457,
0,67,487,167,44,452,
0,67,527,167,47,448,
0,67,522,166,47,443,
0,67,515,164,47,440,
0,67,510,163,46,435,
0,66,504,175,46,432,
0,65,499,217,45,427,
0,65,493,215,45,423,
0,64,487,213,45,419,
0,63,483,211,44,415,
0,63,478,209,44,412,
0,63,474,207,48,408,
0,63,525,206,48,405,
0,63,519,204,48,401,
0,63,512,203,47,398,
0,63,508,201,47,394,
0,62,502,199,47,451,
0,62,496,199,46,448,
0,61,490,197,46,444,
0,60,486,195,46,439,
0,60,480,194,45,435,
0,60,476,193,45,431,
0,59,489,192,56,426,
0,59,484,190,56,422,
0,59,479,188,55,419,
0,58,473,188,55,415,
0,57,468,186,55,411,
0,57,465,184,54,467,
0,57,460,184,53,463,
0,56,455,182,52,457,
0,56,451,181,52,453,
0,56,448,179,52,448,
0,55,443,179,52,445,
0,55,509,177,54,440,
0,54,503,176,53,436,
0,54,498,174,52,432,
0,56,492,173,52,427,
0,56,487,172,51,423,
0,56,481,187,51,478,
0,55,476,185,51,472,
0,54,472,184,51,467,
0,54,466,182,50,463,
0,53,461,181,49,458,
0,53,455,179,50,454,
0,52,516,178,49,449,
0,52,510,177,49,445,
0,52,504,176,48,440,
0,55,497,175,48,436,
0,54,494,173,48,472,
0,54,487,172,48,467,
0,53,482,171,47,462,
0,52,476,169,47,456,
0,52,472,167,47,452,
0,51,467,167,46,448,
0,51,521,167,49,444,
0,51,524,165,48,440,
0,51,519,163,48,435,
0,51,513,163,48,432,
0,51,507,161,48,428,
0,51,502,166,47,493,
0,51,496,164,47,487,
0,51,491,163,47,483,
0,50,486,162,46,478,
0,49,480,161,45,472,
0,49,476,159,46,467,
0,49,504,159,47,463,
0,49,498,158,47,459,
0,49,492,156,47,455,
0,60,487,156,46,449,
0,59,482,190,46,446,
0,58,476,188,46,500,
0,58,472,187,45,495,
0,57,466,185,45,488,
0,56,463,184,44,483,
0,56,457,183,44,480,
0,56,452,181,48,475,
0,56,504,179,49,470,
0,55,499,178,48,464,
0,55,494,177,48,461,
0,62,487,176,48,456,
0,62,483,174,48,504,
0,61,478,173,47,513,
0,60,472,172,47,508,
0,60,467,171,46,503,
0,59,463,169,46,497,
0,59,459,167,45,492,
0,58,475,167,58,487,
0,57,524,166,57,482,
0,60,518,164,57,478,
0,60,513,163,56,472,
0,59,507,162,56,469,
0,59,502,173,56,487,
0,59,496,199,56,482,
0,57,491,198,55,476,
0,57,486,195,55,472,
0,56,480,195,54,467,
0,56,475,193,54,463,
0,56,556,192,53,458,
0,56,550,190,53,454,
0,59,543,188,52,450,
0,60,536,187,51,446,
0,60,529,185,51,441,
0,59,526,184,51,468,
0,58,519,183,51,464,
0,57,513,182,50,460,
0,57,507,180,50,455,
0,56,503,179,49,450,
0,56,497,177,49,447,
0,56,563,176,49,441,
0,56,556,175,49,438,
0,56,551,173,48,433,
0,58,543,172,48,430,
0,57,537,171,47,435,
0,57,531,169,47,463,
0,57,526,168,47,459,
0,56,519,167,47,455,
0,56,514,167,46,450,
0,56,508,165,46,446,
0,55,504,164,70,441,
0,55,555,163,68,438,
0,76,547,162,67,433,
0,76,541,160,67,429,
0,76,536,212,67,424,
0,75,529,238,67,465,
0,73,523,235,65,461,
0,73,517,231,65,455,
0,72,511,230,64,451,
0,71,507,228,63,447,
0,71,501,226,63,444,
0,71,572,225,64,439,
0,71,564,223,63,434,
0,75,559,221,63,430,
0,75,551,220,63,427,
0,73,545,266,62,423,
0,73,538,263,62,460,
0,71,534,260,62,455,
0,71,527,259,61,451,
0,71,521,257,60,447,
0,71,515,255,60,441,
0,70,511,252,60,438,
0,70,558,250,63,433,
0,73,550,249,62,430,
0,72,543,247,62,425,
0,71,537,244,61,421,
0,71,531,243,61,418,
0,71,525,241,60,465,
0,70,519,239,60,460,
0,70,515,238,60,455,
0,69,508,236,59,451,
0,68,503,235,59,447,
0,67,497,232,59,443,
0,67,550,231,58,438,
0,68,543,229,58,433,
0,67,536,227,57,430,
0,67,529,226,57,425,
0,67,523,224,56,473,
0,66,519,222,56,467,
0,65,512,221,56,463,
0,65,507,220,56,458,
0,64,500,217,55,454,
0,63,496,216,55,448,
0,63,504,215,59,445,
0,63,497,214,58,440,
0,88,492,212,57,436,
0,88,487,211,57,432,
0,86,483,209,56,428,
0,86,478,207,56,502,
0,85,472,206,56,496,
0,84,468,204,56,489,
0,83,463,203,55,486,
0,83,459,202,55,480,
0,82,454,200,55,476,
0,81,517,199,57,471,
0,81,510,198,56,467,
0,80,504,196,56,462,
0,79,497,195,56,457,
0,79,493,194,55,452,
0,79,487,193,55,499,
0,78,482,192,54,494,
0,78,476,190,54,488,
0,76,472,189,54,483,
0,76,467,188,53,479,
0,76,463,187,61,475,
0,75,459,185,61,470,
0,92,454,184,60,464,
0,91,451,183,60,460,
0,89,446,182,60,456,
0,89,441,180,59,462,
0,88,437,179,58,467,
0,88,434,178,58,463,
0,87,430,176,57,459,
0,86,425,176,57,455,
0,86,422,175,56,449,
0,85,462,174,56,445,
0,84,518,172,56,442,
0,83,511,171,55,438,
0,83,505,170,55,433,
0,82,500,169,55,429,
0,81,495,203,54,478,
0,80,489,201,54,472,
0,80,483,199,53,467,
0,79,480,198,52,462,
0,79,474,195,52,458,
0,79,469,195,51,454,
0,78,542,193,51,448,
0,77,536,192,51,444,
0,77,528,190,51,440,
0,76,523,189,51,436,
0,76,516,187,50,432,
0,75,510,185,50,478,
0,75,505,184,49,472,
0,74,499,183,49,468,
0,73,494,182,49,463,
0,73,488,180,48,458,
0,72,484,179,49,454,
0,71,553,177,49,450,
0,71,546,176,49,446,
0,71,539,175,48,440,
0,71,535,174,48,436,
0,70,527,172,48,437,
0,70,521,172,47,479,
0,69,515,170,47,473,
0,68,511,169,47,468,
0,67,505,167,46,464,
0,67,499,167,46,460,
0,67,568,166,62,455,
0,66,608,164,62,450,
0,91,600,163,61,447,
0,96,591,163,60,442,
0,95,583,161,60,438,
0,95,579,161,59,483,
0,94,572,159,59,479,
0,92,564,159,58,473,
0,92,558,158,58,468,
0,91,552,156,57,463,
0,90,546,156,56,459,
0,89,572,155,58,455,
0,89,564,153,57,450,
0,88,557,152,57,446,
0,88,551,152,56,441,
0,87,545,151,56,438,
0,87,539,150,56,486,
0,86,532,149,55,480,
0,85,527,147,55,476,
0,84,521,147,54,472,
0,83,515,146,54,466,
0,83,511,145,57,462,
0,82,575,144,57,456,
0,81,568,143,56,453,
0,81,561,143,56,448,
0,80,555,142,56,444,
0,79,550,140,55,468,
0,79,543,143,55,483,
0,79,536,143,54,478,
0,78,529,142,54,472,
0,78,525,140,54,467,
0,77,519,140,53,463,
0,76,515,139,54,459,
0,76,569,137,53,454,
0,81,564,136,52,449,
0,80,557,135,52,446,
0,79,550,135,52,441,
0,79,543,134,51,440,
0,79,539,158,51,435,
0,78,532,156,51,431,
0,78,526,156,50,428,
0,77,519,154,50,423,
0,76,514,152,49,419,
0,76,592,152,86,415,
0,75,625,151,84,413,
0,89,616,150,83,409,
0,88,608,148,82,406,
0,88,603,147,82,401,
0,88,595,145,81,399,
0,86,588,145,80,396,
0,86,580,143,79,391,
0,85,575,143,79,388,
0,84,568,142,79,386,
0,83,561,140,113,384,
0,83,728,140,164,380,
0,120,715,139,162,376,
0,120,704,137,160,373,
0,119,694,135,159,369,
0,118,684,135,158,366,
0,116,675,134,156,363,
0,115,665,134,156,359,
0,114,657,132,154,358,
0,113,647,131,152,355,
0,112,638,131,179,352,
0,111,775,130,177,349,
0,113,763,129,176,346,
0,112,751,127,175,344,
0,111,739,127,173,340,
0,111,729,126,172,337,
0,110,719,125,170,335,
0,108,708,124,169,332,
0,108,696,124,167,329,
0,107,687,123,166,327,
0,106,738,122,233,326,
0,105,844,121,233,323,
0,156,830,120,231,319,
0,153,816,120,229,318,
0,152,803,119,227,315,
0,151,791,118,225,312,
0,150,779,117,224,310,
0,147,768,116,222,307,
0,147,753,115,220,305,
0,145,743,115,217,304,
0,144,820,114,231,302,
0,143,829,113,228,299,
0,143,816,113,226,297,
0,142,802,112,224,295,
0,141,790,111,222,292,
0,140,777,110,220,291,
0,139,766,110,219,288,
0,138,755,109,217,286,
0,136,742,108,216,284,
0,135,731,108,214,282,
0,135,831,107,236,280,
0,146,817,106,233,279,
0,152,803,105,231,276,
0,150,792,105,230,275,
0,149,779,104,227,272,
0,147,768,127,226,271,
0,147,755,126,224,268,
0,145,744,125,222,267,
0,143,732,124,220,265,
0,143,721,123,219,263,
0,142,868,121,243,262,
0,148,852,120,241,259,
0,147,838,120,239,258,
0,145,824,119,237,255,
0,143,812,118,235,254,
0,143,799,116,233,253,
0,142,787,115,231,251,
0,141,775,115,230,249,
0,140,761,115,227,248,
0,139,751,113,226,246,
0,137,846,112,225,244,
0,135,831,112,223,243,
0,135,817,111,222,241,
0,134,804,110,220,240,
0,133,792,109,218,238,
0,131,780,108,216,236,
0,131,768,108,216,235,
0,130,757,107,214,233,
0,129,743,105,212,231,
0,127,738,105,214,231,
0,127,788,103,212,228,
0,129,775,103,211,227,
0,127,764,103,209,225,
0,127,752,102,207,224,
0,126,741,102,207,223,
0,125,731,101,205,221,
0,124,719,99,204,220,
0,124,711,99,202,219,
0,123,701,99,200,217,
0,121,705,98,201,216,
0,130,807,97,199,215,
0,143,795,97,199,214,
0,142,782,97,198,212,
0,140,770,96,195,211,
0,139,759,95,194,209,
0,138,747,95,193,208,
0,137,736,94,192,207,
0,135,726,94,191,206,
0,135,718,92,190,204,
0,134,708,92,188,204,
0,132,734,92,187,202,
0,131,723,92,185,200,
0,131,711,91,184,199,
0,129,702,90,183,204,
0,129,692,145,182,266,
0,127,683,149,180,263,
0,127,675,147,179,260,
0,126,665,146,178,258,
0,124,657,145,177,255,
0,124,647,143,176,254,
0,123,639,143,175,252,
0,121,632,141,174,249,
0,120,624,140,172,248,
0,120,617,139,171,246,
0,119,610,191,169,363,
0,118,603,188,168,359,
0,117,595,186,167,355,
0,116,589,184,167,352,
0,115,583,183,166,348,
0,115,575,182,164,344,
0,113,568,179,163,342,
0,113,562,178,162,339,
0,112,556,177,161,335,
0,111,550,176,159,333,
0,110,544,211,159,406,
0,110,539,208,158,401,
0,108,532,207,157,397,
0,108,527,205,156,393,
0,108,522,203,155,390,
0,106,531,201,153,385,
0,105,524,199,153,382,
0,104,518,198,152,379,
0,103,512,196,151,375,
0,103,508,195,150,371,
0,102,503,193,149,444,
0,102,497,192,147,439,
0,101,492,190,147,433,
0,100,487,189,146,430,
0,99,483,188,145,425,
0,99,511,186,144,420,
0,98,504,184,143,417,
0,97,497,184,143,412,
0,97,492,182,142,409,
0,96,487,180,140,406,
0,95,481,179,140,475,
0,95,476,178,139,468,
0,94,472,176,138,463,
0,93,467,175,137,459,
0,92,463,174,135,454,
0,92,518,173,135,449,
0,92,516,172,135,444,
0,91,510,170,134,440,
0,90,504,169,133,435,
0,89,498,167,132,432,
0,88,492,178,131,488,
0,88,487,176,131,483,
0,88,481,175,130,479,
0,87,476,174,129,473,
0,86,471,172,127,468,
0,86,465,171,127,463,
0,85,499,169,127,459,
0,84,492,167,126,455,
0,84,487,167,125,449,
0,83,481,166,124,446,
0,83,477,209,124,504,
0,82,472,222,123,497,
0,82,466,220,123,492,
0,81,461,218,121,487,
0,80,456,216,121,481,
0,79,452,215,120,476,
0,79,480,212,120,472,
0,79,475,211,119,468,
0,78,469,209,118,463,
0,78,463,207,118,459,
0,77,459,206,116,513,
0,77,454,207,115,513,
0,76,449,206,115,508,
0,76,445,204,115,502,
0,75,441,203,114,496,
0,75,438,201,113,492,
0,74,471,199,113,486,
0,73,464,198,112,481,
0,73,459,196,111,476,
0,72,454,217,111,472,
0,71,449,216,110,467,
0,71,444,247,109,463,
0,71,440,243,108,458,
0,70,435,241,108,454,
0,70,431,239,107,449,
0,70,427,237,106,445,
0,69,463,235,106,440,
0,68,457,233,105,436,
0,70,452,231,104,432,
0,70,448,230,103,428,
0,69,443,227,103,423,
0,68,439,226,103,487,
0,67,433,224,102,483,
0,67,429,222,102,477,
0,67,423,220,101,472,
0,66,420,219,100,468,
0,66,417,217,99,463,
0,65,413,216,99,459,
0,65,411,214,99,454,
0,64,407,212,99,449,
0,63,403,211,97,446,
0,63,399,209,97,503,
0,63,396,207,96,496,
0,63,394,206,96,491,
0,62,391,205,96,486,
0,62,387,204,95,481,
0,62,384,202,94,476,
0,61,421,200,94,471,
0,60,432,199,93,467,
0,60,427,198,92,463,
0,60,422,196,92,457,
0,60,419,195,92,454,
0,60,414,194,91,504,
0,59,409,193,91,498,
0,59,406,192,90,492,
0,59,402,190,89,487,
0,58,399,189,89,483,
0,57,395,188,88,478,
0,57,447,186,88,473,
0,57,443,184,88,468,
0,56,438,184,87,464,
0,75,432,183,87,460,
0,74,428,182,86,455,
0,73,424,236,86,511,
0,72,419,234,85,507,
0,71,415,231,84,501,
0,71,411,230,83,496,
0,71,408,228,83,491,
0,70,403,227,83,486,
0,70,439,225,83,481,
0,69,433,223,82,476,
0,68,428,222,81,472,
0,75,425,220,81,466,
0,74,420,217,81,510,
0,73,415,216,80,524,
0,73,412,215,79,518,
0,72,408,213,79,512,
0,71,404,211,79,508,
0,71,399,210,79,503,
0,71,443,208,78,497,
0,70,438,207,78,492,
0,70,432,205,77,487,
0,71,428,204,76,483,
0,70,423,203,76,478,
0,69,419,201,76,518,
0,68,415,199,76,513,
0,68,411,199,75,507,
0,67,407,197,75,502,
0,67,403,195,74,496,
0,66,399,194,74,492,
0,66,423,193,73,487,
0,65,418,192,72,481,
0,65,415,190,72,477,
0,65,409,188,71,473,
0,63,406,188,71,468,
0,63,401,187,71,524,
0,63,398,185,71,518,
0,63,394,184,71,512,
0,62,390,183,70,508,
0,62,387,182,70,503,
0,62,384,179,70,497,
0,61,439,179,69,492,
0,60,433,177,69,487,
0,60,428,176,68,483,
0,60,423,175,67,478,
0,60,420,174,67,523,
0,60,415,174,67,518,
0,59,412,172,66,511,
0,59,407,171,66,505,
0,58,403,170,66,500,
0,57,399,168,65,496,
0,57,417,167,65,491,
0,56,433,167,65,486,
0,56,430,166,63,480,
0,61,425,164,63,477,
0,60,420,163,63,472,
0,60,415,163,63,499,
0,60,412,161,63,494,
0,59,408,160,63,489,
0,59,403,159,62,484,
0,58,399,159,62,479,
0,58,396,158,62,475,
0,57,431,156,61,471,
0,57,425,156,60,465,
0,56,420,155,60,461,
0,71,417,153,60,455,
0,70,412,152,60,452,
0,70,408,152,59,516,
0,68,403,151,59,511,
0,68,399,150,59,504,
0,67,396,148,58,499,
0,67,391,147,57,495,
0,67,388,147,57,489,
0,66,388,145,57,484,
0,65,385,144,56,480,
0,65,382,143,56,476,
0,64,379,143,56,472,
0,63,376,142,56,495,
0,63,373,142,56,512,
0,63,370,141,55,508,
0,62,367,140,55,503,
0,62,364,140,55,497,
0,62,361,138,54,492,
0,61,377,137,54,487,
0,60,440,136,54,483,
0,60,435,135,53,478,
0,60,432,135,53,472,
0,67,427,134,52,469,
0,67,423,134,52,523,
0,67,418,147,51,515,
0,66,415,145,51,510,
0,65,410,143,51,505,
0,65,406,143,51,500,
0,63,401,142,51,494,
0,63,449,141,51,489,
0,63,467,140,50,484,
0,63,461,139,50,480,
0,67,455,137,49,476,
0,66,451,136,49,471,
0,65,448,143,49,537,
0,65,441,142,48,532,
0,64,437,140,48,526,
0,63,432,140,48,519,
0,63,429,138,48,514,
0,63,424,137,48,510,
0,62,451,135,47,504,
0,62,446,135,47,499,
0,61,443,134,47,494,
0,61,438,133,46,490,
0,60,432,132,46,486,
0,60,428,184,46,480,
0,60,424,182,46,476,
0,59,420,180,45,472,
0,59,415,179,44,467,
0,59,412,177,44,463,
0,57,408,176,44,458,
0,57,483,174,44,455,
0,56,478,173,44,450,
0,56,472,172,44,446,
0,69,468,171,44,441,
0,68,463,169,43,482,
0,67,457,167,43,489,
0,67,452,167,42,484,
0,67,449,166,42,479,
0,66,444,164,42,473,
0,65,440,163,41,470,
0,65,463,162,41,465,
0,64,455,161,41,460,
0,63,452,159,40,455,
0,83,448,159,40,452,
0,82,442,158,39,448,
0,81,438,157,39,460,
0,80,434,156,39,455,
0,79,430,155,39,451,
0,79,425,153,39,447,
0,78,420,152,39,442,
0,77,417,152,39,439,
0,77,453,150,38,435,
0,76,448,149,38,431,
0,76,443,148,38,427,
0,81,439,147,38,423,
0,80,433,146,38,420,
0,79,429,147,38,469,
0,79,423,146,37,463,
0,78,421,145,37,459,
0,78,417,144,36,455,
0,77,412,143,36,450,
0,76,420,143,36,446,
0,76,486,141,36,441,
0,75,480,140,35,438,
0,75,475,139,35,433,
0,75,469,138,35,429,
0,74,465,137,35,503,
0,73,460,136,35,496,
0,72,455,135,35,492,
0,72,450,135,34,486,
0,71,445,134,34,481,
0,71,441,133,33,476,
0,71,458,131,33,472,
0,70,472,131,33,467,
0,70,465,130,33,462,
0,69,462,129,33,457,
0,68,455,128,32,454,
0,68,451,143,32,487,
0,67,447,142,32,481,
0,67,443,140,32,476,
0,67,438,139,31,472,
0,66,433,139,31,467,
0,66,429,137,31,462,
0,65,495,135,31,456,
0,64,487,135,31,454,
0,63,482,135,31,449,
0,64,477,134,31,444,
0,63,472,132,30,440,
0,63,467,137,30,499,
0,63,462,135,30,493,
0,62,457,135,30,487,
0,62,453,134,29,483,
0,61,448,132,30,477,
0,60,444,131,29,473,
0,60,535,131,29,468,
0,60,527,129,29,463,
0,60,523,129,29,459,
0,71,516,127,28,455,
0,70,510,127,28,480,
0,70,504,158,28,484,
0,69,500,156,28,480,
0,68,495,155,28,476,
0,67,488,153,27,471,
0,67,483,152,28,465,
0,67,482,151,28,460,
0,66,531,150,27,457,
0,65,524,148,27,452,
0,65,518,147,27,448,
0,64,513,147,27,444,
0,63,507,147,27,480,
0,63,501,145,26,475,
0,63,496,144,26,470,
0,63,492,143,26,464,
0,62,486,142,25,461,
0,62,480,141,25,455,
0,61,527,140,25,451,
0,60,521,139,25,447,
0,60,515,138,25,444,
0,62,509,137,24,440,
0,61,504,135,24,435,
0,60,499,152,24,440,
0,60,494,150,24,435,
0,60,487,148,24,432,
0,59,483,147,24,428,
0,59,477,146,24,423,
0,58,473,145,28,419,
0,57,523,143,28,417,
0,57,516,143,28,413,
0,57,510,142,28,409,
0,71,505,141,27,406,
0,70,499,140,27,409,
0,70,494,175,27,462,
0,69,487,173,27,457,
0,68,484,172,26,451,
0,67,479,170,26,448,
0,67,473,169,25,444,
0,67,489,167,27,440,
0,66,536,166,26,435,
0,65,529,164,26,432,
0,67,524,164,25,428,
0,67,517,163,25,423,
0,67,512,161,25,480,
0,66,506,159,25,476,
0,65,500,159,25,471,
0,65,495,158,24,465,
0,65,491,156,24,460,
0,63,485,156,24,456,
0,63,556,155,30,452,
0,63,569,153,30,448,
0,63,564,152,30,443,
0,62,557,151,29,439,
0,62,550,150,28,435,
0,62,543,152,28,481,
0,60,536,151,28,476,
0,60,532,150,28,471,
0,60,526,148,28,467,
0,60,519,147,28,462,
0,59,513,146,28,457,
0,59,560,145,32,452,
0,58,551,144,31,448,
0,58,545,143,31,444,
0,89,538,142,31,440,
0,88,533,142,31,454,
0,88,527,161,31,484,
0,87,520,159,31,480,
0,86,515,159,30,474,
0,85,511,157,30,468,
0,84,504,156,30,465,
0,83,499,155,29,460,
0,83,540,153,29,455,
0,82,536,152,29,451,
0,81,528,152,28,448,
0,81,522,150,28,443,
0,80,516,149,28,499,
0,79,511,152,28,493,
0,79,505,150,28,489,
0,79,499,150,28,483,
0,78,495,148,27,479,
0,78,490,147,27,473,
0,77,505,145,27,468,
0,76,528,145,27,464,
0,76,521,143,26,460,
0,78,515,143,27,455,
0,76,511,142,26,451,
0,76,505,140,25,481,
0,76,499,140,25,476,
0,75,494,139,25,471,
0,74,489,137,25,465,
0,73,483,136,25,462,
0,73,479,135,26,457,
0,72,531,135,49,452,
0,71,526,134,48,448,
0,71,519,133,48,444,
0,71,513,132,47,440,
0,71,507,131,47,435,
0,70,502,139,46,432,
0,69,496,138,46,428,
0,68,491,137,46,423,
0,68,486,135,45,420,
0,67,481,135,45,417,
0,67,476,134,45,414,
0,67,522,133,45,409,
0,66,515,132,44,407,
0,66,511,131,44,403,
0,65,504,134,44,399,
0,65,499,134,44,443,
0,65,492,172,43,460,
0,64,489,171,43,455,
0,63,483,169,42,450,
0,63,478,167,41,447,
0,63,472,167,41,441,
0,62,487,166,47,438,
0,62,483,164,46,433,
0,61,477,163,46,430,
0,61,472,161,45,425,
0,61,467,160,45,422,
0,60,463,159,44,470,
0,60,457,158,44,465,
0,60,454,157,44,460,
0,60,449,156,43,455,
0,59,446,155,43,450,
0,58,441,153,43,447,
0,57,506,152,44,442,
0,57,499,152,43,438,
0,57,495,150,43,433,
0,92,489,149,43,430,
0,90,483,148,42,426,
0,89,478,188,41,422,
0,89,474,187,41,417,
0,88,468,184,41,415,
0,88,463,184,40,411,
0,87,458,182,40,407,
0,86,455,180,39,403,
0,85,534,179,40,400,
0,84,527,178,39,396,
0,83,519,176,39,393,
0,83,515,175,39,390,
0,83,510,174,39,438,
0,81,504,173,39,432,
0,81,497,172,39,428,
0,80,492,170,38,423,
0,79,487,168,38,419,
0,79,483,167,38,416,
0,79,488,167,39,412,
0,78,532,165,39,408,
0,78,527,163,39,404,
0,77,521,163,38,401,
0,77,515,161,38,398,
0,76,509,161,38,467,
0,76,504,159,37,460,
0,75,499,159,36,457,
0,75,494,158,36,452,
0,74,487,157,36,448,
0,73,483,156,36,443,
0,73,532,155,44,440,
0,71,524,153,43,435,
0,71,518,152,43,431,
0,81,513,152,43,427,
0,81,508,150,42,423,
0,79,502,152,41,467,
0,79,496,152,41,463,
0,79,492,150,41,457,
0,78,487,148,40,454,
0,78,481,147,39,449,
0,77,476,147,39,445,
0,76,553,146,39,440,
0,76,545,144,39,435,
0,75,539,143,39,432,
0,75,532,143,39,428,
0,74,526,142,39,423,
0,73,521,143,39,422,
0,72,515,142,38,418,
0,71,509,141,38,414,
0,71,504,140,38,410,
0,71,499,139,37,407,
0,71,494,137,47,403,
0,70,539,137,47,399,
0,70,532,135,46,396,
0,69,527,135,46,392,
0,68,520,134,46,390,
0,67,514,134,45,454,
0,67,508,132,45,448,
0,67,504,131,44,444,
0,66,498,130,44,440,
0,66,492,130,44,435,
0,65,487,129,44,431,
0,65,507,127,48,427,
0,64,537,127,47,423,
0,63,531,127,47,419,
0,64,524,127,46,415,
0,64,519,126,46,411,
0,63,513,125,46,408,
0,63,507,124,45,403,
0,63,501,124,44,399,
0,62,496,123,44,396,
0,62,492,121,44,392,
0,62,486,121,44,390,
0,61,560,120,50,387,
0,60,551,120,50,384,
0,60,547,119,49,380,
0,103,540,118,49,377,
0,103,534,118,48,375,
0,102,527,119,48,417,
0,101,520,118,48,412,
0,100,515,117,47,408,
0,99,509,116,47,404,
0,98,504,115,46,400,
0,97,510,115,60,398,
0,97,572,114,59,393,
0,96,565,113,59,390,
0,101,558,113,58,386,
0,119,551,116,57,383,
0,118,544,169,57,444,
0,116,540,167,56,439,
0,115,533,166,56,434,
