=~=~=~=~=~=~=~=~=~=~=~= PuTTY log 2021.04.22 12:23:48 =~=~=~=~=~=~=~=~=~=~=~=
,3,216,167,17,449,
0,33,215,166,17,445,
0,33,213,183,17,465,342126,190,5,446,
0,12,124,189,5,443,
0,12,124,9,195,5,463,
0,12,127,195,5,459,
0,12,127,193,5,455,
0,12,126,192,5,450,
0,12,126,190,5,446,
0,12,124,189,5,443,
0,12,124,188,5,439,
0,12,130,199,4,446,
0,12,149,198,5,441,
0,12,148,196,4,438,
0,12,147,195,4,433,
0,12,145,193,4,430,
0,12,144,192,4,426,
0,12,143,191,4,423,
0,11,142,190,4,StartUp!
123,0,407,184,50,557,
0,0,404,183,49,553,
0,0,402,182,49,550,
0,0,399,180,49,547,
0,0,397,179,49,542,
0,0,395,179,49,539,
0,0,391,178,48,535,
0,0,390,177,48,531,
0,0,387,176,48,541,
0,0,385,176,48,605,
0,0,384,174,47,600,
0,0,380,173,47,593,
0,0,376,172,47,586,
0,0,373,171,47,580,
0,0,369,170,46,574,
0,0,367,168,46,568,
0,0,364,167,46,563,
0,0,361,167,46,556,
0,0,358,166,45,551,
0,0,355,165,44,545,
0,0,352,181,44,615,
0,0,350,180,44,609,
0,0,348,179,44,601,
0,0,344,177,44,596,
0,0,342,176,43,589,
0,0,339,175,43,583,
0,0,419,174,43,577,
0,0,502,172,42,571,
0,3,495,172,42,566,
0,3,489,170,41,559,
0,3,484,168,41,555,
0,3,481,167,41,617,
0,3,477,188,41,625,
0,3,472,188,41,620,
0,3,468,185,41,611,
0,3,463,184,41,606,
0,3,459,183,40,599,
0,3,518,182,40,591,
0,6,748,180,39,587,
0,30,734,179,39,579,
0,29,725,177,39,574,
0,28,715,176,39,568,
1,28,704,175,39,607,
2,28,696,219,49,623,
3,28,688,216,48,615,
3,28,679,215,48,609,
4,27,670,214,48,601,
5,27,661,211,47,595,
6,26,782,210,47,588,
6,35,900,207,46,583,
6,34,903,207,46,575,
7,34,884,205,46,569,
7,33,873,204,45,563,
7,33,859,243,44,647,
7,33,845,240,57,636,
7,32,831,238,56,628,
7,31,822,236,56,620,
7,31,809,233,56,613,
7,31,798,231,55,608,
7,31,898,230,55,600,
7,33,909,227,54,593,
7,33,911,226,54,587,
7,31,910,224,53,582,
7,31,888,223,53,575,
7,31,871,236,65,659,
7,31,861,233,65,651,
7,31,847,231,64,644,
7,31,834,230,63,636,
7,31,822,227,63,628,
7,30,812,226,63,621,
7,30,871,224,63,615,
7,31,856,223,62,608,
7,31,842,221,61,600,
7,30,831,220,60,593,
7,30,819,217,60,589,
7,30,806,243,66,647,
7,30,794,241,66,638,
7,29,785,239,65,631,
7,29,775,236,65,624,
7,28,764,236,63,616,
7,28,753,233,63,609,
7,28,745,231,63,602,
7,28,736,230,63,595,
7,28,726,228,62,590,
7,28,716,226,62,583,
7,27,707,248,62,639,
7,27,700,255,68,631,
7,27,691,252,67,624,
7,27,683,251,67,616,
7,26,674,248,66,609,
6,25,668,246,65,601,
7,25,660,244,65,596,
6,25,652,243,64,590,
6,25,644,240,64,583,
6,25,638,239,63,575,
6,24,632,237,63,572,
6,24,625,248,88,625,
6,24,618,245,95,617,
6,24,612,243,94,609,
6,24,606,241,93,604,
6,24,600,239,92,596,
6,24,592,237,91,590,
6,24,588,236,91,583,
6,23,582,233,90,577,
6,23,575,231,89,571,
6,23,569,230,88,564,
6,23,565,228,88,560,
6,23,559,252,102,572,
6,22,553,249,101,564,
6,22,547,248,100,559,
6,22,542,246,99,553,
6,22,536,243,98,548,
6,21,531,241,97,542,
6,21,527,240,97,536,
6,21,521,238,96,532,
6,20,517,236,96,527,
6,24,512,235,95,521,
6,24,508,265,96,581,
6,24,504,262,98,575,
7,23,499,259,97,568,
6,23,494,257,96,561,
6,23,491,255,96,556,
6,23,486,252,95,551,
6,22,481,251,95,543,
6,22,477,248,94,538,
6,22,473,247,93,532,
6,30,470,244,92,527,
6,29,465,243,92,522,
6,29,461,255,92,583,
6,28,457,252,92,575,
6,28,454,251,92,571,
6,28,449,249,91,564,
6,28,446,247,89,558,
6,27,443,244,89,551,
6,27,440,243,88,547,
6,27,435,241,88,540,
6,27,432,239,88,535,
6,27,429,237,87,529,
6,27,425,236,86,572,
5,27,422,243,87,583,
5,26,418,240,86,575,
5,26,415,238,86,569,
5,25,412,236,85,563,
5,25,409,234,84,558,
4,25,406,232,83,551,
4,25,402,231,83,545,
5,25,399,229,83,539,
4,25,396,227,82,535,
4,33,393,226,81,529,
4,33,391,225,82,598,
4,33,388,240,89,590,
4,32,385,237,89,583,
4,32,382,236,88,577,
4,31,380,233,88,571,
3,31,376,231,87,564,
4,31,374,230,86,559,
4,31,371,228,86,552,
3,31,368,227,85,546,
3,31,366,225,84,540,
3,30,364,223,83,536,
3,30,361,231,97,617,
4,30,358,228,100,609,
3,29,355,227,99,601,
3,29,353,224,99,594,
3,29,351,223,98,588,
3,28,348,222,97,582,
3,28,345,220,96,575,
3,28,344,218,96,568,
3,28,341,216,95,563,
3,28,339,215,94,558,
3,28,335,214,94,551,
3,27,334,230,93,602,
3,27,332,227,92,596,
3,27,329,226,92,589,
3,27,327,224,91,582,
3,26,326,222,91,575,
3,26,323,220,89,568,
3,25,320,219,89,563,
2,25,319,217,88,557,
3,25,316,216,88,551,
2,26,315,214,88,545,
3,25,312,231,87,599,
3,25,310,236,86,611,
2,25,307,233,85,604,
2,25,306,231,84,595,
2,24,304,230,84,591,
2,24,302,227,83,583,
2,24,300,226,83,577,
2,24,299,224,83,570,
2,24,295,222,82,566,
2,24,295,221,81,559,
2,24,292,219,80,552,
2,24,291,233,80,622,
1,24,289,231,79,615,
1,24,287,230,79,608,
1,24,285,228,79,600,
2,24,284,226,78,593,
1,23,281,224,78,588,
1,23,280,223,77,581,
1,23,278,221,76,574,
1,23,276,219,76,568,
1,29,275,217,76,563,
1,29,273,216,75,557,
1,29,271,248,74,632,
1,28,270,246,74,624,
1,28,268,243,73,615,
1,28,267,241,73,611,
1,28,264,240,71,603,
1,27,263,238,71,595,
1,27,262,236,71,589,
1,27,259,233,71,583,
1,27,258,231,71,577,
1,28,255,230,70,571,
1,28,255,228,70,627,
1,27,254,255,69,620,
1,27,252,254,68,612,
0,27,251,252,68,604,
0,26,249,249,67,597,
1,26,248,248,67,591,
1,25,246,246,67,584,
0,25,244,243,66,578,
0,25,243,241,66,571,
0,27,241,240,65,567,
0,29,240,238,65,560,
1,28,239,257,64,643,
0,28,238,255,64,635,
0,28,236,253,63,628,
0,28,235,252,63,620,
0,27,233,249,63,612,
0,27,231,247,63,606,
0,27,231,244,62,600,
0,28,229,243,62,593,
0,27,227,241,62,586,
0,27,227,239,61,579,
0,27,225,237,60,573,
0,26,224,251,62,652,
0,26,223,248,61,643,
0,25,221,246,61,636,
0,25,220,243,60,627,
0,25,219,241,60,622,
0,25,241,240,60,615,
0,24,387,238,59,608,
0,71,384,236,59,600,
0,69,379,234,58,595,
0,68,376,233,58,588,
0,68,371,231,58,620,
0,67,369,247,57,652,
0,67,365,243,57,646,
0,66,361,243,56,638,
0,65,358,240,56,630,
0,65,355,238,56,622,
0,63,352,236,56,615,
0,63,349,235,55,609,
0,63,346,232,55,601,
0,63,344,231,55,595,
0,62,340,229,54,590,
0,61,337,228,54,679,
0,61,335,251,55,668,
0,60,332,249,54,659,
0,60,329,247,54,652,
0,60,327,245,54,644,
0,59,323,243,53,636,
0,59,321,241,53,628,
0,58,319,239,52,620,
0,57,316,238,52,615,
0,57,313,236,51,608,
0,56,311,233,51,601,
0,56,310,252,51,674,
0,56,307,249,52,667,
0,56,304,248,52,659,
0,55,302,245,51,649,
0,55,300,243,51,641,
0,55,297,241,51,636,
0,54,295,239,50,628,
0,54,292,238,50,620,
0,52,291,236,49,614,
0,52,288,233,49,608,
0,52,286,231,49,601,
0,51,284,257,55,684,
0,51,283,255,55,675,
0,51,280,252,54,668,
0,51,278,251,54,659,
0,50,275,248,53,651,
0,49,274,247,52,643,
0,49,272,244,52,637,
0,49,270,243,51,630,
0,49,268,240,51,622,
0,48,267,239,51,615,
0,48,263,239,51,645,
0,47,263,243,51,662,
0,47,260,241,50,652,
0,47,259,239,50,644,
0,46,257,238,49,636,
0,46,255,236,49,631,
0,46,253,233,48,623,
0,45,252,231,48,615,
0,45,249,230,48,608,
0,44,248,228,48,603,
0,44,247,227,47,596,
0,44,244,233,56,662,
0,44,243,231,56,652,
0,43,241,230,56,646,
0,43,240,227,56,638,
0,43,238,226,55,630,
0,42,236,224,55,622,
0,41,235,223,54,615,
0,41,233,221,54,609,
0,41,231,220,53,602,
0,41,231,217,53,595,
0,40,229,216,52,590,
0,39,227,243,60,670,
0,39,226,241,60,661,
0,39,224,239,60,652,
0,39,223,237,59,646,
0,39,222,236,59,638,
0,39,220,233,58,630,
0,39,219,231,57,623,
0,38,217,230,57,615,
0,38,216,228,57,609,
0,39,215,227,56,603,
0,38,214,225,56,659,
0,38,212,237,57,653,
0,38,211,235,56,647,
0,36,209,233,56,639,
0,36,208,231,56,631,
0,36,207,230,55,623,
0,35,206,227,55,617,
0,35,205,226,54,609,
0,35,204,224,54,603,
0,36,203,222,53,595,
0,37,201,220,52,591,
0,36,199,240,52,665,
0,36,199,241,53,655,
0,36,198,240,52,647,
0,35,197,237,51,641,
0,35,195,236,51,633,
0,35,195,233,51,625,
0,35,193,231,51,618,
0,34,192,230,50,612,
0,34,192,228,50,605,
0,34,190,227,49,598,
0,34,190,225,49,591,
0,34,237,253,65,677,
0,33,235,251,65,668,
0,33,231,248,64,659,
0,33,231,247,64,651,
0,32,228,244,63,642,
0,32,227,243,63,636,
0,31,224,240,63,628,
0,31,223,239,62,621,
0,31,221,236,62,614,
0,31,220,235,61,608,
0,31,250,233,60,616,
0,31,283,252,61,655,
0,31,280,251,61,647,
0,30,278,248,60,641,
0,30,275,247,60,633,
0,30,272,244,60,625,
0,30,271,242,59,617,
0,29,268,240,59,612,
0,30,266,239,58,604,
0,29,263,236,57,598,
0,29,262,235,57,591,
0,29,315,254,57,651,
0,28,326,252,61,639,
0,28,322,249,60,632,
0,28,319,248,60,624,
0,28,316,245,59,619,
0,28,313,243,59,611,
0,28,311,241,58,604,
0,28,308,240,57,596,
0,27,305,237,57,591,
0,28,303,236,57,584,
0,28,300,234,56,579,
0,28,327,249,58,637,
0,27,323,247,62,628,
0,27,319,245,62,623,
0,27,316,243,61,615,
0,27,313,241,60,607,
0,26,312,239,60,600,
0,26,308,237,60,594,
0,26,305,236,59,588,
0,25,303,233,59,580,
0,31,301,231,58,574,
0,31,298,230,57,569,
0,31,303,249,59,627,
0,30,300,248,58,620,
0,30,297,245,57,611,
0,30,295,243,57,606,
0,30,292,241,57,599,
0,29,290,239,56,591,
0,29,287,237,56,584,
0,29,286,236,56,579,
0,29,284,233,55,573,
0,28,281,231,55,567,
0,28,280,231,55,623,
0,28,281,240,57,615,
0,28,279,239,56,608,
0,28,276,237,56,600,
0,28,275,235,56,593,
0,27,272,233,56,588,
0,27,270,231,55,582,
0,27,268,230,55,575,
0,27,266,227,54,568,
0,27,263,226,54,562,
0,26,262,224,54,558,
0,26,260,231,56,615,
0,25,258,230,56,607,
0,25,255,227,56,600,
0,25,255,225,55,594,
0,25,252,224,55,587,
0,25,251,222,54,580,
0,24,248,220,54,573,
0,27,247,219,53,568,
0,26,245,217,52,562,
0,26,243,216,52,556,
0,25,317,214,52,551,
0,25,415,243,62,615,
0,25,410,241,62,608,
0,25,406,239,61,600,
0,24,402,237,61,593,
0,24,398,235,60,588,
0,24,394,233,60,581,
0,24,390,231,59,574,
0,24,387,230,58,568,
0,24,384,227,58,563,
0,42,380,226,57,557,
0,41,376,224,57,593,
0,41,374,233,68,604,
0,40,370,231,67,599,
0,39,367,230,67,591,
0,39,364,228,66,583,
0,39,361,226,66,577,
0,39,358,224,65,571,
0,39,355,223,65,566,
0,39,352,222,63,560,
0,38,348,220,63,553,
0,38,347,217,63,547,
0,38,344,240,63,615,
0,37,340,239,63,608,
0,36,337,236,62,600,
0,36,335,234,61,592,
0,36,332,231,61,588,
0,35,329,231,60,580,
0,35,327,228,60,574,
0,35,324,227,60,568,
0,35,322,225,59,562,
0,36,319,224,59,556,
0,36,317,222,58,550,
0,35,315,249,58,614,
0,35,312,248,57,608,
0,35,310,246,57,600,
0,35,307,243,57,592,
0,34,305,241,56,585,
0,34,303,239,56,580,
0,33,300,238,56,574,
0,33,298,236,56,568,
0,33,295,233,55,560,
0,43,294,231,55,556,
0,43,291,230,54,565,
0,42,289,248,54,605,
0,41,287,246,54,598,
0,41,286,243,54,590,
0,40,283,242,53,584,
0,40,281,240,52,577,
0,40,279,238,52,571,
0,39,278,236,51,564,
0,39,275,234,51,560,
0,39,273,232,51,553,
0,39,271,231,50,547,
0,39,270,254,50,578,
0,39,268,251,51,572,
0,38,265,249,50,566,
0,38,263,248,50,559,
0,38,262,245,49,552,
0,37,260,243,49,547,
0,37,258,241,49,542,
0,36,255,240,48,536,
0,36,255,237,48,531,
0,38,253,235,48,527,
0,37,251,234,48,521,
0,37,249,252,54,595,
0,36,248,249,54,588,
0,36,247,248,54,583,
0,36,244,246,53,575,
0,36,243,243,52,568,
0,35,241,241,52,562,
0,35,240,240,51,556,
0,35,238,238,51,551,
0,35,236,236,51,544,
0,34,235,235,51,539,
0,34,233,231,50,572,
0,34,231,255,54,602,
0,33,230,252,54,594,
0,33,228,250,54,587,
0,33,227,248,53,580,
0,32,225,246,52,575,
0,31,224,244,52,568,
0,31,223,242,51,561,
0,31,222,240,51,555,
0,31,220,238,51,551,
0,31,218,236,51,544,
0,31,217,235,50,597,
0,31,216,233,54,589,
0,30,215,231,54,583,
0,30,212,230,54,575,
0,30,211,228,53,569,
0,30,210,227,52,563,
0,30,209,224,52,558,
0,29,207,224,51,551,
0,29,206,222,51,545,
0,28,205,220,51,540,
0,29,204,218,50,536,
0,28,203,220,54,598,
0,28,200,217,55,590,
0,28,199,216,55,583,
0,28,199,215,54,575,
0,28,197,213,54,571,
0,28,195,211,53,563,
0,27,195,210,52,558,
0,27,193,207,52,551,
0,27,192,207,51,547,
0,34,191,206,51,540,
0,34,190,204,51,535,
0,33,189,216,68,600,
0,33,188,214,67,595,
0,33,187,212,67,588,
0,32,185,211,66,580,
0,31,184,209,66,574,
0,31,184,207,65,569,
0,31,183,206,65,563,
0,31,182,204,63,556,
0,31,180,203,63,550,
0,33,179,201,63,545,
0,32,179,199,63,590,
0,32,177,227,63,600,
0,32,176,225,62,592,
0,31,176,224,61,587,
0,31,174,222,61,580,
0,31,174,220,60,573,
0,31,172,219,60,567,
0,31,172,216,60,561,
0,31,171,216,59,556,
0,30,169,214,59,549,
0,30,169,211,58,543,
0,30,176,231,57,608,
0,30,175,230,59,601,
0,29,173,228,58,594,
0,29,172,226,58,587,
0,28,171,224,57,579,
0,28,169,222,57,575,
0,28,167,220,56,568,
0,28,167,219,56,561,
0,28,167,217,56,556,
0,28,166,216,56,551,
0,28,166,214,55,545,
0,28,294,231,59,607,
0,27,343,229,59,599,
0,27,338,227,58,593,
0,27,334,225,57,585,
0,27,331,224,57,579,
0,27,327,222,56,572,
0,27,326,220,56,568,
0,27,322,219,56,560,
0,26,319,216,56,555,
0,27,317,215,55,548,
0,26,314,213,54,543,
0,26,312,222,69,563,
0,25,308,220,68,556,
0,25,307,219,67,549,
0,25,304,216,67,543,
0,25,301,216,67,538,
0,24,299,213,66,532,
0,24,297,211,65,527,
0,46,295,210,65,521,
0,46,291,208,64,518,
0,45,289,207,63,512,
0,44,288,224,63,573,
0,44,286,231,63,566,
0,44,284,229,62,560,
0,44,281,227,62,553,
0,43,280,225,62,547,
0,43,278,224,61,541,
0,42,275,222,60,536,
0,42,273,220,60,531,
0,41,271,219,60,524,
0,41,269,216,59,519,
0,41,267,215,59,515,
0,40,292,246,62,577,
0,39,289,243,62,570,
0,39,287,240,62,563,
0,39,284,238,61,558,
0,39,282,236,60,551,
0,39,280,235,60,545,
0,39,278,232,60,539,
0,38,275,231,59,535,
0,38,272,230,59,528,
0,38,270,227,58,523,
0,38,268,225,57,547,
0,37,343,251,57,588,
0,36,339,248,57,579,
0,36,335,247,56,572,
0,36,332,244,56,566,
0,35,329,242,56,560,
0,35,327,240,56,555,
0,35,323,239,55,548,
0,35,320,236,55,542,
0,35,318,235,54,536,
0,34,316,233,54,531,
0,34,454,231,54,598,
0,34,486,265,60,589,
0,33,481,263,59,582,
0,33,476,260,58,575,
0,33,471,259,58,569,
0,32,465,255,57,563,
0,31,462,254,57,556,
0,31,456,252,56,551,
0,31,451,250,56,545,
0,31,448,248,56,540,
0,36,444,246,56,534,
0,36,440,264,59,604,
0,35,435,263,61,595,
0,35,431,260,60,588,
0,35,428,258,60,580,
0,35,423,255,59,575,
0,34,419,254,59,568,
0,34,415,252,59,562,
0,34,412,249,58,556,
0,33,408,248,57,551,
0,35,404,246,57,545,
0,35,401,244,56,540,
0,35,399,260,60,600,
0,33,395,258,59,593,
0,33,391,255,58,588,
0,33,388,254,58,580,
0,33,384,252,57,574,
0,32,382,249,57,568,
0,32,379,248,56,562,
0,32,375,246,56,556,
0,31,371,244,56,550,
0,34,369,242,56,543,
0,34,367,240,55,573,
0,33,364,244,57,606,
0,33,359,243,56,598,
0,33,358,240,56,591,
0,32,355,239,56,585,
0,31,352,237,56,579,
0,31,349,236,55,572,
0,31,347,233,55,566,
0,31,344,231,54,560,
0,50,342,230,54,554,
0,49,339,228,53,548,
0,49,336,264,53,577,
0,48,334,262,54,572,
0,48,331,259,53,566,
0,47,327,257,53,559,
0,47,327,255,52,551,
0,47,324,253,51,547,
0,46,321,252,51,541,
0,46,319,249,51,536,
0,46,317,248,51,529,
0,46,315,245,51,524,
0,45,312,243,50,519,
0,45,310,256,54,608,
0,44,307,254,54,600,
0,44,305,252,53,591,
0,44,304,249,53,587,
0,43,301,248,52,579,
0,43,299,246,51,572,
0,43,297,244,51,566,
0,44,295,241,51,561,
0,44,292,240,51,555,
0,44,291,239,51,549,
0,44,289,236,50,603,
0,43,287,263,51,617,
0,43,284,261,51,609,
0,42,283,259,50,601,
0,42,281,255,50,594,
0,41,279,254,50,588,
0,41,276,252,49,582,
0,41,275,251,49,575,
0,40,273,248,48,568,
0,39,271,246,48,563,
0,39,270,244,48,558,
0,39,268,246,48,625,
0,39,266,248,49,615,
0,39,263,246,48,611,
0,39,262,245,48,603,
0,39,260,243,48,595,
0,38,259,240,48,588,
0,38,257,239,47,582,
0,38,255,237,47,575,
0,37,254,236,46,570,
0,37,252,233,46,563,
0,36,250,231,46,558,
0,36,249,255,56,649,
0,36,248,254,58,639,
0,35,246,252,57,632,
0,35,244,249,57,624,
0,35,242,247,56,619,
0,35,240,246,56,611,
0,35,239,243,56,604,
0,34,238,241,55,596,
0,34,236,239,55,591,
0,33,235,238,54,584,
0,33,233,236,54,594,
0,33,231,239,59,655,
0,33,230,237,59,648,
0,32,228,236,57,639,
0,32,227,233,57,632,
0,31,225,231,56,624,
0,31,224,230,56,619,
0,31,223,228,56,611,
0,33,222StartUp!
124,49,219,220,31,518,
0,49,217,219,31,515,
0,49,216,217,30,511,
0,48,216,216,30,507,
0,48,214,216,30,502,
0,48,212,214,30,499,
0,48,211,212,30,496,
0,47,210,211,30,492,
0,48,209,210,30,489,
0,47,208,209,29,485,
0,47,207,207,29,480,
0,46,206,207,28,476,
0,46,206,219,28,527,
0,46,204,231,30,521,
0,46,203,228,29,515,
0,45,201,227,29,511,
0,44,199,225,29,505,
0,44,198,224,28,499,
0,44,197,222,28,494,
0,51,195,220,28,490,
0,50,194,218,28,484,
0,49,192,216,27,480,
0,49,192,215,27,475,
0,49,190,217,27,519,
0,48,188,216,28,513,
0,48,187,215,28,507,
0,47,186,212,28,502,
0,47,185,211,28,497,
0,47,183,209,28,492,
0,46,182,207,28,487,
0,46,180,207,27,483,
0,46,180,206,27,480,
0,46,179,204,27,475,
0,45,177,203,27,472,
0,44,176,204,39,483,
0,44,175,203,44,478,
0,44,174,201,43,473,
0,44,172,199,43,468,
0,43,172,198,42,463,
0,43,171,196,41,460,
0,43,169,195,41,455,
0,43,167,193,40,451,
0,42,167,192,40,448,
0,41,166,191,39,443,
0,41,164,225,39,514,
0,41,163,228,57,507,
0,40,162,225,57,500,
0,39,161,224,56,495,
0,39,159,222,56,491,
0,39,159,220,56,486,
0,39,158,218,55,480,
1,39,157,216,54,476,
1,39,156,215,54,472,
1,39,155,214,53,467,
1,39,153,211,53,462,
2,39,153,244,53,512,
2,39,152,241,57,508,
2,39,151,240,56,502,
3,39,150,238,56,496,
3,38,149,236,56,491,
3,38,148,233,55,487,
3,37,147,231,54,481,
3,47,146,230,54,476,
3,46,145,227,54,472,
3,46,144,226,53,467,
3,45,143,225,52,463,
3,45,142,242,55,525,
3,44,141,240,56,519,
3,44,140,238,55,513,
3,44,140,236,54,508,
3,44,139,234,54,503,
3,43,137,231,54,497,
3,43,137,231,53,492,
3,47,135,228,52,487,
3,47,135,227,52,483,
3,46,135,225,51,478,
3,46,134,224,51,541,
3,46,133,228,54,536,
3,45,132,227,54,529,
3,45,131,225,54,523,
3,44,131,224,53,517,
3,44,130,222,52,512,
3,44,129,220,52,507,
3,44,128,219,51,502,
3,46,127,216,51,496,
3,45,127,215,51,492,
3,45,127,214,51,487,
3,44,126,240,50,550,
2,44,125,238,59,543,
2,44,124,236,57,538,
3,44,124,233,57,532,
2,43,123,231,56,526,
2,43,123,230,56,519,
2,42,121,228,56,515,
3,44,121,227,56,510,
2,44,120,224,55,504,
2,43,120,223,55,499,
2,43,120,221,54,495,
2,42,119,249,56,548,
2,41,118,248,57,542,
2,41,118,246,56,536,
2,40,116,243,56,529,
2,40,116,241,56,524,
2,39,115,240,55,519,
2,39,115,238,55,513,
1,44,114,236,55,508,
1,44,113,233,54,504,
2,43,113,231,54,498,
1,43,112,231,53,531,
1,43,112,241,63,549,
1,42,111,239,67,543,
1,41,111,237,67,537,
1,41,110,235,66,531,
1,41,109,233,65,526,
1,40,109,231,65,521,
1,41,108,230,64,515,
1,41,108,228,63,510,
1,41,107,226,63,504,
1,40,107,224,63,500,
1,39,106,224,63,542,
1,39,105,238,63,535,
1,39,104,236,63,528,
1,39,103,233,62,523,
1,39,103,231,62,518,
1,39,103,231,61,512,
2,38,103,228,60,507,
1,38,102,227,60,501,
1,38,102,224,60,497,
1,39,101,224,60,492,
1,39,100,222,59,487,
1,39,102,246,59,547,
1,39,101,243,60,542,
1,38,100,241,59,535,
1,38,99,240,59,529,
1,37,99,238,58,524,
1,37,99,236,57,519,
1,36,98,233,57,514,
1,44,97,231,56,508,
1,44,97,231,56,504,
1,44,97,230,56,499,
1,44,96,227,56,494,
1,43,103,239,55,551,
1,43,119,236,56,546,
1,42,118,235,55,539,
1,41,116,233,54,533,
0,41,115,231,54,527,
1,40,114,229,54,523,
0,40,113,227,53,517,
1,41,112,225,52,511,
1,41,112,224,52,505,
1,40,111,222,52,502,
0,39,110,221,51,497,
1,39,114,240,51,492,
0,39,113,238,51,487,
0,39,112,236,51,483,
1,38,112,233,50,478,
0,38,111,231,50,473,
1,38,110,230,49,468,
0,38,109,227,49,465,
0,39,108,227,49,460,
0,38,107,225,48,455,
0,38,107,223,48,451,
0,37,105,224,48,504,
0,37,104,233,54,499,
0,37,103,231,52,492,
0,36,103,230,52,487,
0,36,103,227,51,482,
0,36,102,226,51,478,
0,35,101,224,51,473,
0,35,100,223,51,467,
0,35,99,220,50,464,
0,35,99,220,49,460,
0,35,99,217,49,455,
0,34,107,230,49,526,
0,34,105,227,50,519,
0,34,103,225,50,513,
0,33,103,224,49,507,
0,33,103,222,49,503,
0,33,102,220,48,497,
0,33,101,219,48,492,
0,34,100,216,48,487,
0,34,99,216,48,483,
0,34,99,214,47,478,
0,34,98,211,47,475,
0,33,97,237,46,533,
0,33,97,236,56,527,
0,33,97,235,56,521,
0,32,97,233,56,515,
0,32,96,231,56,511,
0,31,96,230,55,505,
0,31,96,227,55,500,
0,33,95,227,54,496,
0,33,94,224,54,491,
0,33,94,223,53,487,
0,33,93,221,53,482,
0,33,93,240,52,534,
0,33,92,240,56,536,
0,33,92,238,56,528,
0,32,91,236,56,524,
0,32,91,235,55,519,
0,31,90,231,55,514,
0,31,89,231,54,508,
0,31,89,230,54,503,
0,31,89,227,53,499,
0,31,88,225,53,494,
0,31,88,224,52,489,
0,30,88,223,52,504,
0,30,88,236,51,517,
0,30,87,233,51,512,
0,30,86,231,51,507,
0,30,86,231,51,503,
0,29,85,228,50,497,
0,29,85,227,50,493,
0,29,84,225,49,487,
0,39,84,224,49,483,
0,39,83,222,49,479,
0,39,83,220,48,474,
0,39,83,219,48,471,
0,38,82,228,49,531,
0,38,81,226,50,524,
0,38,81,224,49,519,
0,37,81,223,49,514,
0,36,80,220,48,510,
0,36,79,219,48,504,
0,36,79,217,48,499,
0,41,79,216,48,495,
0,40,79,215,47,489,
0,39,79,213,47,486,
0,39,78,211,46,481,
0,39,78,231,46,544,
0,39,78,231,47,537,
0,39,76,228,47,531,
0,39,77,227,46,527,
0,39,76,225,46,520,
0,38,76,223,46,516,
0,38,76,222,45,511,
0,41,75,220,45,505,
0,41,75,218,44,501,
0,41,74,216,44,496,
0,41,73,215,44,492,
0,40,79,231,46,554,
0,39,96,228,49,547,
0,39,102,227,48,542,
0,39,100,225,48,536,
0,39,99,223,48,529,
0,39,99,222,47,525,
0,39,98,220,47,519,
0,41,97,217,46,515,
0,41,96,216,46,510,
0,41,96,215,46,504,
0,41,95,214,46,500,
0,40,96,231,45,553,
0,39,98,235,54,547,
0,39,103,233,53,541,
0,39,102,231,52,535,
0,39,101,229,52,528,
0,39,100,227,52,524,
0,38,99,226,51,519,
0,38,99,224,51,512,
0,38,98,223,50,508,
0,38,97,220,51,504,
0,38,96,219,50,499,
0,37,121,224,49,548,
0,37,184,227,51,542,
0,36,182,225,51,535,
0,36,179,224,49,530,
0,35,177,222,49,524,
0,35,176,220,49,519,
0,35,175,219,49,513,
0,39,173,216,48,508,
0,39,172,216,48,504,
0,39,171,214,48,497,
0,39,169,211,47,493,
0,39,167,231,48,554,
0,38,167,228,50,547,
0,38,165,227,49,541,
0,38,163,224,49,535,
0,37,163,223,48,529,
0,37,161,222,48,524,
0,36,159,220,48,518,
0,57,159,217,48,512,
0,56,158,216,47,508,
0,56,156,215,47,504,
0,56,156,213,47,519,
0,55,155,243,46,559,
0,55,153,240,46,551,
0,54,152,239,45,547,
0,54,151,236,45,540,
0,53,150,234,44,534,
0,52,149,231,44,528,
0,52,147,231,44,524,
0,52,147,229,44,519,
0,51,145,227,44,513,
0,51,145,225,43,508,
0,51,143,227,43,565,
0,51,143,226,51,557,
0,50,142,224,50,550,
0,49,140,222,50,543,
0,49,140,220,49,539,
0,49,139,219,49,533,
0,48,137,217,48,527,
0,48,136,216,48,521,
0,48,135,214,48,517,
0,47,135,212,48,511,
0,47,134,211,47,506,
0,47,134,241,47,553,
0,46,132,239,49,547,
0,46,131,237,49,541,
0,46,130,235,48,535,
0,45,129,233,48,528,
0,45,129,231,48,524,
0,44,127,230,48,519,
0,44,127,227,47,513,
0,44,126,226,47,508,
0,44,125,224,46,502,
0,43,124,222,46,498,
0,43,124,246,48,551,
0,42,123,243,48,543,
0,42,121,241,48,537,
0,41,121,239,48,532,
0,41,120,238,47,527,
0,41,119,236,47,521,
0,39,119,233,47,515,
0,41,118,231,46,511,
0,41,116,230,46,505,
0,41,116,228,46,500,
0,39,115,227,45,554,
0,39,115,248,48,548,
0,39,119,246,47,542,
0,39,118,243,47,536,
0,39,116,241,47,529,
0,39,115,239,46,525,
0,38,115,238,46,519,
0,38,114,236,45,513,
0,39,113,233,45,508,
0,39,112,231,44,504,
0,39,111,231,44,499,
0,38,127,246,44,547,
0,38,126,243,45,540,
0,38,124,241,45,535,
0,38,124,239,44,528,
0,37,122,237,44,523,
0,37,121,235,44,517,
0,36,120,233,43,511,
0,37,120,231,43,507,
0,37,119,230,43,502,
0,36,118,228,42,496,
0,36,117,226,41,495,
0,35,119,243,43,560,
0,35,120,241,45,551,
0,35,119,239,44,545,
0,35,119,237,44,540,
0,35,117,235,44,535,
0,34,116,233,43,528,
0,34,115,231,43,523,
0,50,115,230,43,518,
0,50,114,227,42,513,
0,49,113,226,41,508,
0,49,116,224,41,545,
0,48,125,246,46,545,
0,48,149,243,46,540,
0,48,147,242,46,535,
0,47,146,240,45,527,
0,47,145,238,44,523,
0,46,143,236,44,518,
0,46,143,234,44,512,
0,46,142,231,44,507,
0,46,140,231,44,502,
0,45,140,228,43,497,
0,45,139,229,43,540,
0,45,140,241,52,534,
0,44,140,239,52,527,
0,44,137,237,51,521,
0,44,137,236,51,517,
0,44,135,233,51,511,
0,43,135,231,50,505,
0,44,134,230,50,500,
0,44,132,227,49,496,
0,43,131,226,49,491,
0,43,131,224,48,486,
0,43,135,243,50,540,
0,41,146,240,51,536,
0,41,145,238,50,529,
0,41,143,236,50,523,
0,41,143,234,49,517,
0,40,141,231,49,512,
0,39,140,231,49,507,
0,43,139,229,48,502,
0,42,138,227,48,496,
0,41,136,225,48,492,
0,41,135,224,47,487,
0,41,135,236,47,484,
0,41,134,233,47,480,
0,39,133,231,46,476,
0,39,132,230,46,471,
0,39,131,227,45,466,
0,39,130,226,45,462,
0,39,129,224,45,459,
0,42,127,223,44,454,
0,41,127,221,44,450,
0,41,127,219,44,446,
0,41,126,230,44,499,
0,40,125,231,46,495,
0,39,125,230,46,489,
0,39,124,227,46,483,
0,39,123,225,45,479,
0,39,122,224,44,475,
0,39,121,223,44,470,
0,39,120,220,44,465,
0,38,120,219,44,460,
0,38,119,217,43,456,
0,38,118,216,43,452,
0,38,117,226,43,506,
0,37,116,224,43,500,
0,36,115,222,43,496,
0,36,114,221,42,490,
0,36,113,219,42,484,
0,35,113,216,41,480,
0,35,112,216,41,476,
0,35,111,214,41,471,
0,35,111,212,41,466,
0,35,110,211,40,461,
0,35,109,209,39,457,
0,35,108,233,43,510,
0,35,108,231,43,504,
0,35,108,230,43,499,
0,34,107,227,43,494,
0,33,106,226,42,488,
0,33,105,224,41,483,
0,33,104,222,41,479,
0,36,103,220,41,473,
0,36,103,219,40,470,
0,35,103,217,39,465,
0,35,102,216,39,513,
0,35,101,236,41,507,
0,35,110,235,43,502,
0,34,108,233,43,496,
0,34,107,231,42,491,
0,33,107,229,42,486,
0,33,105,227,41,482,
0,33,104,225,41,477,
0,33,103,224,40,472,
0,33,103,222,40,467,
0,33,103,220,39,463,
0,32,110,238,39,514,
0,32,111,236,40,508,
0,31,110,233,39,502,
0,31,109,231,39,497,
0,31,108,230,39,492,
0,31,108,227,39,487,
0,31,107,225,39,481,
0,31,105,224,39,478,
0,31,104,223,38,473,
0,31,103,220,38,468,
0,31,103,219,38,463,
0,31,103,227,38,518,
0,31,127,225,37,513,
0,30,156,224,37,507,
0,30,155,222,36,502,
0,30,153,220,36,496,
0,30,152,217,36,492,
0,29,151,216,35,487,
0,34,149,215,35,481,
0,33,148,213,35,476,
0,33,147,211,35,473,
0,33,146,210,35,494,
0,32,144,234,38,519,
0,32,143,231,39,513,
0,31,142,230,39,508,
0,31,141,228,39,503,
0,31,140,226,38,497,
0,31,140,224,38,492,
0,31,138,223,38,487,
0,33,137,221,37,483,
0,32,135,219,37,478,
0,32,135,217,36,473,
0,31,134,227,36,528,
0,31,134,225,36,521,
0,31,132,224,35,515,
0,31,131,222,35,509,
0,31,130,220,35,504,
0,31,129,218,35,499,
0,30,127,216,35,494,
0,31,127,215,35,488,
0,31,127,213,35,483,
0,31,126,211,34,480,
0,31,124,210,34,475,
0,31,124,221,33,535,
0,30,123,219,39,527,
0,30,122,217,39,524,
0,30,121,216,39,518,
0,30,120,214,38,511,
0,29,120,211,38,505,
0,29,119,210,38,502,
0,28,118,209,37,496,
0,28,117,207,37,491,
0,28,116,206,36,486,
0,28,115,204,36,482,
0,28,115,231,41,536,
0,28,114,229,40,529,
0,28,113,227,39,523,
0,27,112,225,39,519,
0,27,111,224,39,513,
0,27,111,222,39,507,
0,26,110,220,39,502,
0,30,109,217,39,497,
0,29,108,216,39,492,
0,28,108,215,38,487,
0,28,107,216,38,542,
0,28,106,224,39,536,
0,28,106,223,39,530,
0,28,105,220,39,524,
0,28,104,219,39,518,
0,27,103,217,39,512,
0,27,103,216,39,508,
0,33,102,214,39,503,
0,34,102,211,39,497,
0,34,100,210,38,492,
0,33,100,208,38,487,
0,33,99,219,39,540,
0,33,99,216,42,536,
0,32,98,215,41,529,
0,32,97,213,41,523,
0,31,97,211,41,519,
0,31,96,210,40,513,
0,31,96,208,39,508,
0,31,95,207,39,504,
0,31,95,205,39,497,
0,31,94,204,39,494,
0,31,93,203,39,488,
0,31,93,234,39,547,
0,30,114,231,48,540,
0,30,118,230,47,534,
0,30,116,227,47,527,
0,30,115,225,46,523,
0,29,115,224,46,517,
0,29,113,222,46,511,
0,29,113,220,45,505,
0,31,112,218,45,502,
0,31,111,217,44,496,
0,31,110,216,44,491,
0,31,110,229,44,547,
0,31,109,227,44,542,
0,30,108,225,44,536,
0,30,108,224,44,529,
0,29,107,222,43,523,
0,29,105,220,43,518,
0,29,104,218,43,513,
0,33,103,216,42,508,
0,34,103,215,41,502,
0,34,103,213,41,497,
0,33,102,211,41,493,
0,33,103,231,42,537,
0,33,111,230,43,531,
0,32,110,227,42,525,
0,31,109,226,42,520,
0,31,108,224,41,515,
0,31,107,223,41,509,
0,31,106,220,41,504,
0,35,105,219,40,499,
0,35,103,217,39,494,
0,34,103,216,39,489,
0,33,103,215,39,539,
0,33,115,228,39,534,
0,33,113,227,39,527,
0,33,112,224,39,521,
0,32,112,223,39,515,
0,32,111,220,39,511,
0,31,110,219,38,505,
0,34,109,217,38,500,
0,34,108,216,38,495,
0,33,107,214,37,491,
0,33,107,212,36,486,
0,33,105,234,39,553,
0,33,105,231,47,547,
0,32,103,230,46,540,
0,31,103,228,46,535,
0,31,103,226,45,528,
0,31,102,224,44,523,
0,31,100,222,44,518,
0,33,100,220,44,513,
0,32,99,219,44,508,
0,32,99,217,44,504,
0,31,98,216,43,498,
0,31,99,219,44,574,
0,31,99,217,46,568,
0,31,99,216,45,561,
0,31,98,214,45,556,
0,31,97,212,44,550,
0,30,97,211,44,543,
0,30,96,209,44,540,
0,31,95,207,44,533,
0,31,95,206,43,528,
0,31,94,205,43,523,
0,31,94,204,42,518,
0,30,93,220,47,571,
0,30,113,220,53,563,
0,30,112,217,53,556,
0,30,111,216,52,551,
0,29,110,215,51,545,
0,29,109,213,51,539,
0,29,108,211,51,533,
0,29,108,209,51,528,
0,30,107,207,50,523,
0,30,105,206,50,517,
0,29,105,204,49,512,
0,29,103,235,49,556,
0,28,139,233,49,548,
0,28,137,231,49,542,
0,28,135,229,49,536,
0,28,135,227,48,529,
0,28,134,225,48,525,
0,27,132,224,48,519,
0,33,131,222,47,513,
0,33,131,220,47,508,
0,32,129,218,46,504,
0,31,127,216,46,515,
0,31,127,230,55,537,
0,31,129,227,54,531,
0,31,128,226,54,527,
0,31,127,224,53,520,
0,30,126,223,53,515,
0,30,126,221,52,509,
0,31,124,219,52,505,
0,31,124,217,51,499,
0,31,123,216,51,495,
0,31,121,214,51,489,
0,31,121,238,50,505,
0,30,120,236,50,499,
0,30,119,233,49,494,
0,30,119,231,49,488,
0,29,117,230,49,484,
0,29,116,227,48,480,
0,29,115,226,48,475,
0,30,115,224,47,471,
0,30,114,222,47,467,
0,30,113,221,47,463,
0,30,112,219,46,458,
0,30,111,231,46,519,
0,29,110,228,47,512,
0,29,110,227,46,508,
0,29,108,225,46,502,
0,28,108,223,46,496,
0,28,108,221,45,491,
0,28,107,219,45,487,
0,32,105,217,44,482,
0,31,104,216,44,477,
0,31,103,214,44,472,
0,31,103,212,43,468,
0,31,103,228,43,516,
0,30,102,227,43,511,
0,30,102,224,43,505,
0,30,100,222,42,500,
0,30,99,221,41,495,
0,29,99,219,41,489,
0,29,99,217,41,486,
0,31,97,216,41,480,
0,31,97,214,40,477,
0,31,96,212,39,472,
0,31,96,211,39,468,
0,30,103,238,39,526,
0,30,103,236,39,519,
0,29,103,233,39,513,
0,29,102,231,39,507,
0,29,100,230,39,504,
0,29,99,228,39,497,
0,28,99,226,39,494,
0,33,98,225,39,488,
0,32,97,223,38,483,
0,31,97,222,38,480,
0,31,96,220,38,487,
0,31,97,223,42,532,
0,31,96,222,43,526,
0,31,96,220,42,519,
0,31,95,219,42,515,
0,30,94,216,41,510,
0,30,94,215,41,505,
0,30,93,214,41,500,
0,40,92,211,40,495,
0,39,92,210,39,491,
0,39,91,209,39,486,
0,39,91,207,39,481,
0,39,91,222,39,527,
0,39,90,220,39,523,
0,38,89,218,39,516,
0,38,89,216,39,511,
0,38,88,215,39,507,
0,37,88,213,39,500,
0,37,88,211,38,497,
0,38,87,210,38,492,
0,37,86,207,38,487,
0,36,86,207,37,482,
0,36,85,205,37,478,
0,35,122,233,36,540,
0,35,120,231,39,536,
0,35,119,229,39,529,
0,35,118,227,38,523,
0,35,117,225,38,518,
0,35,116,223,37,513,
0,34,115,222,37,508,
0,39,114,220,36,502,
0,39,113,218,36,496,
0,38,112,216,35,492,
0,38,112,215,35,487,
0,38,112,220,37,538,
0,37,112,219,37,531,
0,37,111,216,36,527,
0,36,110,216,36,520,
0,36,109,214,36,515,
0,35,108,211,35,509,
0,35,108,210,35,505,
0,35,107,208,35,499,
0,35,105,207,35,494,
0,35,105,205,35,489,
0,35,115,204,34,513,
0,34,140,217,43,541,
0,34,139,216,42,534,
0,33,137,214,41,527,
0,33,135,211,41,524,
0,32,135,211,41,518,
0,32,134,209,40,512,
0,33,133,207,39,506,
0,33,131,206,39,500,
0,32,131,204,39,497,
0,32,129,203,39,492,
0,31,147,220,39,543,
0,31,147,217,41,536,
0,31,146,216,40,531,
0,31,144,215,39,525,
0,31,143,212,39,519,
0,31,142,211,39,513,
0,30,141,208,39,509,
0,32,140,207,39,504,
0,32,139,206,39,497,
0,31,137,204,39,492,
0,31,136,203,38,489,
0,31,135,229,41,559,
0,31,135,227,43,551,
0,31,134,224,43,545,
0,31,132,223,42,540,
0,30,131,222,41,534,
0,30,131,220,41,527,
0,30,130,217,41,523,
0,35,129,216,41,518,
0,35,127,214,40,512,
0,35,127,212,39,507,
0,35,126,211,39,536,
0,35,126,224,43,537,
0,34,138,222,43,531,
0,33,136,220,43,524,
0,33,135,218,43,519,
0,33,135,216,42,513,
0,33,134,215,41,509,
0,32,132,214,41,504,
0,34,131,211,41,498,
0,34,131,209,40,493,
0,33,129,207,39,489,
0,33,128,209,39,547,
0,33,127,220,43,540,
0,32,127,217,43,534,
0,32,126,216,41,529,
0,31,125,215,41,524,
0,31,124,212,41,518,
0,31,123,211,41,512,
0,39,122,209,39,508,
0,41,121,207,39,502,
0,40,120,206,39,497,
0,39,120,204,39,492,
0,39,140,226,39,541,
0,39,139,224,48,534,
0,39,137,222,48,527,
0,39,135,220,48,521,
0,38,135,218,47,518,
0,38,134,217,47,512,
0,38,132,215,46,506,
0,38,131,213,46,500,
0,38,131,211,46,496,
0,37,130,210,45,492,
0,36,128,208,45,487,
0,36,140,209,51,530,
0,36,139,207,53,524,
0,35,138,206,53,519,
0,35,136,204,52,513,
0,35,135,203,51,508,
0,35,135,201,51,502,
0,34,134,199,51,498,
0,35,132,199,51,492,
0,34,131,197,50,487,
0,34,131,195,50,483,
0,33,129,217,49,535,
0,33,128,222,49,532,
0,33,127,220,49,526,
0,32,127,217,49,519,
0,32,126,216,48,515,
0,31,125,214,48,510,
0,31,124,212,48,504,
0,33,123,211,47,499,
0,33,122,209,47,495,
0,33,121,207,46,489,
0,33,120,206,46,484,
0,33,126,228,46,547,
0,32,125,226,46,542,
0,31,124,224,46,535,
0,31,123,223,46,528,
0,31,121,220,45,523,
0,31,120,219,44,518,
0,31,120,217,44,512,
0,33,119,216,44,507,
0,33,118,214,44,502,
0,33,117,211,44,496,
0,32,116,211,43,492,
0,32,115,242,44,568,
0,31,118,240,44,560,
0,31,117,238,44,553,
0,31,115,236,43,549,
0,31,115,234,43,543,
0,31,114,231,43,536,
0,30,113,230,42,531,
0,34,112,228,41,526,
0,33,112,227,41,520,
0,33,111,225,40,515,
0,33,111,223,40,574,
0,32,110,225,41,568,
0,32,108,224,41,560,
0,31,108,222,40,554,
0,31,107,220,40,547,
0,31,106,219,39,543,
0,31,105,217,39,536,
0,31,104,216,39,531,
0,36,103,214,39,524,
0,36,103,212,39,520,
0,35,103,211,39,515,
0,35,102,224,38,560,
0,35,102,224,41,551,
0,35,102,222,41,547,
0,34,100,220,40,541,
0,34,100,218,40,535,
0,34,99,216,39,528,
0,33,99,216,39,524,
0,34,97,214,39,519,
0,35,97,211,39,514,
0,35,96,210,39,509,
0,35,96,208,39,504,
0,34,95,223,39,570,
0,34,95,227,46,563,
0,33,95,224,46,558,
0,33,94,223,45,551,
0,33,93,221,44,546,
0,32,92,220,44,540,
0,32,92,217,44,534,
0,33,92,216,44,529,
0,33,91,214,43,524,
0,33,90,212,43,519,
0,32,89,211,43,513,
0,31,91,212,42,555,
0,31,97,225,42,550,
0,31,103,224,41,543,
0,31,103,222,41,536,
0,31,102,220,41,531,
0,31,100,218,40,526,
0,31,100,216,39,519,
0,32,99,215,39,515,
0,36,99,214,39,510,
0,36,97,211,39,504,
0,36,97,209,39,500,
0,35,115,209,39,559,
0,35,113,228,39,551,
0,35,112,226,39,545,
0,35,111,224,39,540,
0,35,110,223,39,534,
0,34,109,220,38,527,
0,34,108,219,38,522,
0,51,108,217,38,518,
0,51,107,216,37,512,
0,50,105,214,37,507,
0,49,105,212,36,502,
0,49,150,232,38,560,
0,49,147,231,38,551,
0,48,146,229,38,545,
0,48,145,227,38,540,
0,48,143,225,37,535,
0,47,142,224,37,528,
0,47,141,222,36,523,
0,51,140,220,36,517,
0,50,139,217,35,511,
0,49,138,216,35,508,
0,49,136,215,35,502,
0,48,135,231,36,541,
0,48,135,228,39,535,
0,48,135,227,39,529,
0,48,133,225,39,524,
0,47,132,223,39,518,
0,47,131,221,39,512,
0,46,130,220,39,508,
0,46,129,217,38,503,
0,46,128,216,38,497,
0,46,127,214,38,492,
0,45,159,218,37,537,
0,45,183,224,47,548,
0,44,185,222,46,542,
0,44,184,220,46,536,
0,44,182,217,45,531,
0,43,180,216,45,525,
0,43,179,215,44,519,
0,44,177,212,44,513,
0,43,176,211,44,510,
0,43,174,209,43,504,
0,43,173,207,43,499,
0,43,174,227,43,559,
0,42,172,225,43,553,
0,41,171,224,42,547,
0,41,170,222,41,540,
0,40,168,220,41,534,
0,39,167,217,41,527,
0,39,166,216,40,524,
0,39,164,215,39,518,
0,39,163,213,39,512,
0,39,163,211,39,507,
0,39,161,209,39,503,
0,39,161,231,39,558,
0,39,159,228,43,551,
0,38,159,226,43,543,
0,38,158,224,42,540,
0,37,156,223,41,534,
0,37,155,221,41,527,
0,36,154,219,41,521,
0,38,153,217,40,517,
0,37,152,216,39,511,
0,37,151,214,39,506,
0,36,152,212,39,554,
0,36,187,222,49,548,
0,35,184,220,49,542,
0,35,183,219,49,536,
0,35,182,216,48,529,
0,35,180,215,48,524,
0,35,179,213,48,519,
0,35,177,211,47,513,
0,35,176,209,47,508,
0,35,175,207,46,504,
0,35,173,207,46,498,
0,35,185,227,46,563,
0,34,184,239,52,555,
0,34,184,237,52,548,
0,33,183,236,51,543,
0,33,181,233,51,537,
0,33,179,231,51,531,
0,32,178,230,51,525,
0,33,177,227,50,520,
0,33,176,226,49,515,
0,33,174,224,49,510,
0,32,173,223,49,504,
0,31,174,225,48,559,
0,31,172,224,48,551,
0,31,171,222,48,545,
0,31,169,220,47,539,
0,31,167,217,47,534,
0,31,167,216,47,527,
0,30,166,215,46,522,
0,31,164,213,46,516,
0,31,163,211,46,512,
0,30,162,210,45,507,
0,30,161,208,45,519,
0,30,163,231,45,546,
0,29,161,229,45,541,
0,29,159,227,44,535,
0,29,159,225,44,528,
0,28,158,224,44,523,
0,28,156,222,44,519,
0,31,156,220,43,513,
0,35,154,218,43,507,
0,35,153,216,43,502,
0,34,152,215,42,496,
0,34,153,214,42,547,
0,33,153,229,44,540,
0,33,152,227,44,534,
0,33,151,225,44,527,
0,32,150,223,43,523,
0,32,149,222,43,517,
0,31,147,220,42,511,
0,39,147,217,42,505,
0,41,145,216,41,502,
0,41,144,215,41,496,
0,40,143,212,41,492,
0,39,153,238,40,572,
0,39,153,236,44,566,
0,39,152,234,43,560,
0,39,150,231,43,552,
0,39,150,230,42,546,
0,38,147,228,42,542,
0,38,147,227,41,536,
0,38,145,225,41,529,
0,38,145,223,41,524,
0,37,143,221,40,519,
0,36,143,220,39,514,
0,36,145,241,39,551,
0,36,144,239,40,543,
0,35,143,237,39,540,
0,35,142,236,39,534,
0,35,141,233,39,527,
0,35,140,231,39,521,
0,34,139,230,39,515,
0,35,138,228,39,511,
0,35,137,226,38,506,
0,35,135,224,38,500,
0,34,135,227,38,553,
0,34,163,228,42,548,
0,33,179,227,42,542,
0,33,177,225,41,536,
0,33,176,223,41,529,
0,33,175,222,40,524,
0,31,173,220,40,519,
0,32,172,218,39,513,
0,33,170,216,39,508,
0,32,169,215,39,504,
0,32,167,214,39,498,
0,31,166,238,41,559,
0,31,166,236,41,551,
0,31,163,233,41,547,
0,31,163,231,41,540,
0,31,161,230,40,534,
0,30,160,227,40,527,
0,30,159,226,39,524,
0,35,158,224,39,518,
0,35,156,223,39,512,
0,35,156,220,39,507,
0,34,154,219,39,503,
0,34,153,228,40,540,
0,33,152,226,42,532,
0,33,152,224,42,526,
0,32,150,222,41,520,
0,32,148,220,41,516,
0,31,147,219,41,510,
0,31,146,217,40,504,
0,31,145,216,39,499,
0,31,144,214,39,496,
0,31,143,212,39,491,
0,31,143,211,39,536,
0,31,142,233,42,529,
0,30,140,231,41,524,
0,30,140,229,41,518,
0,30,138,227,41,512,
0,29,137,225,40,507,
0,29,136,224,39,503,
0,30,135,222,39,497,
0,30,135,220,39,492,
0,30,134,218,39,487,
0,30,132,216,39,483,
0,29,131,231,39,543,
0,29,131,235,48,537,
0,29,130,231,48,531,
0,28,129,231,48,526,
0,28,127,229,47,519,
0,28,127,227,47,515,
0,28,127,225,47,509,
0,33,126,224,46,504,
0,33,124,222,46,499,
0,32,124,220,45,494,
0,31,123,218,44,488,
0,31,123,233,45,534,
0,31,121,231,47,529,
0,31,120,229,46,523,
0,31,120,227,46,518,
0,30,119,225,46,511,
0,30,119,224,45,507,
0,30,118,222,44,502,
0,35,116,220,44,496,
0,35,116,218,44,491,
0,35,115,216,44,487,
0,34,115,215,44,506,
0,34,114,235,57,540,
0,34,126,231,57,534,
0,33,125,231,56,528,
0,33,124,229,56,523,
0,33,123,227,56,516,
0,32,122,225,55,511,
0,32,120,223,55,507,
0,43,120,222,54,502,
0,43,119,220,54,496,
0,42,118,218,54,491,
0,41,117,241,53,543,
0,41,116,239,52,536,
0,41,116,237,52,529,
0,39,115,235,51,524,
0,39,115,233,51,518,
0,39,113,231,51,513,
0,39,112,230,50,508,
0,39,112,227,50,502,
0,39,111,225,49,497,
0,39,111,224,49,493,
0,38,110,223,49,487,
0,38,112,247,51,550,
0,38,131,244,51,543,
0,37,131,242,51,537,
0,37,129,240,50,531,
0,36,127,239,49,526,
0,36,127,236,49,519,
0,36,126,235,49,515,
0,37,125,233,48,510,
0,36,124,231,48,504,
0,36,124,229,48,499,
0,36,123,227,47,495,
0,35,122,251,48,536,
0,35,124,248,48,529,
0,35,123,246,47,523,
0,35,121,243,47,518,
0,35,120,242,47,512,
0,34,120,240,46,507,
0,33,119,239,46,502,
0,36,118,236,45,497,
0,35,118,235,45,492,
0,35,116,233,44,487,
0,35,115,231,44,508,
0,35,121,248,48,503,
0,34,143,246,49,498,
0,34,142,243,48,492,
0,33,140,241,48,487,
0,33,140,239,47,482,
0,33,139,237,47,479,
0,34,137,236,47,473,
0,38,135,233,46,469,
0,37,135,231,46,464,
0,36,135,230,46,461,
0,36,138,242,45,516,
0,36,140,240,46,510,
0,35,139,238,46,504,
0,35,138,236,45,499,
0,35,137,234,45,494,
0,35,135,231,44,488,
0,34,135,230,44,483,
0,38,134,228,44,480,
0,37,133,227,44,475,
0,36,131,225,43,470,
0,36,131,223,43,465,
0,35,151,244,43,513,
0,35,152,242,43,508,
0,35,150,240,42,502,
0,35,149,238,42,496,
0,35,147,236,41,492,
0,34,147,235,41,487,
0,34,145,232,41,481,
0,39,144,231,41,476,
0,39,143,228,39,472,
0,39,142,227,39,468,
0,39,141,225,39,519,
0,38,151,246,46,521,
0,38,158,243,45,515,
0,38,156,241,44,511,
0,37,155,240,44,505,
0,37,153,238,44,499,
0,36,152,236,43,494,
0,38,152,234,43,491,
0,38,150,231,43,485,
0,38,149,231,42,480,
0,38,147,228,42,476,
0,37,150,247,41,527,
0,37,182,244,44,519,
0,36,179,242,44,514,
0,35,177,240,44,508,
0,35,176,238,43,504,
0,35,175,236,43,499,
0,35,173,234,42,493,
0,36,172,231,42,487,
0,35,171,231,41,483,
0,35,169,229,41,479,
0,35,167,227,41,474,
0,35,167,238,40,515,
0,35,175,236,44,511,
0,34,173,234,44,504,
0,34,172,231,44,499,
0,33,171,230,44,494,
0,33,169,228,43,487,
0,33,167,227,43,484,
0,34,167,224,42,479,
0,33,165,223,41,474,
0,33,164,221,41,469,
0,33,163,220,41,475,
0,32,175,236,43,502,
0,32,179,233,45,496,
0,31,177,231,45,491,
0,31,176,229,44,487,
0,31,174,227,44,481,
0,31,172,226,44,476,
0,31,172,224,44,471,
0,40,170,222,43,467,
0,39,168,221,43,463,
0,39,167,219,42,459,
0,39,166,229,42,508,
0,39,165,230,43,503,
0,39,163,228,42,496,
0,38,163,226,41,491,
0,38,161,224,41,486,
0,38,160,222,41,481,
0,37,159,221,40,476,
0,39,158,219,40,472,
0,39,157,217,39,467,
0,39,156,216,39,463,
0,39,155,215,39,458,
0,39,153,241,41,510,
0,39,152,239,41,504,
0,38,152,236,40,499,
0,38,150,235,40,494,
0,38,149,232,39,488,
0,37,147,231,39,483,
0,36,147,229,39,478,
0,37,145,227,39,475,
0,36,144,225,39,470,
0,36,143,224,39,464,
0,35,143,222,39,494,
0,35,142,237,39,523,
0,35,140,236,40,516,
0,35,140,233,40,510,
0,35,139,231,39,504,
0,34,137,230,39,500,
0,34,136,227,39,495,
0,34,135,226,39,489,
0,34,135,224,39,484,
0,33,134,222,39,480,
0,33,133,221,38,476,
0,33,131,219,38,536,
0,32,131,235,43,529,
0,32,130,231,42,524,
0,31,129,231,41,519,
0,31,127,229,41,512,
0,31,127,227,41,507,
0,31,127,225,40,503,
0,31,126,224,39,497,
0,31,125,222,39,492,
0,31,124,220,39,487,
0,31,124,218,39,482,
0,31,122,233,39,540,
0,30,121,231,45,534,
0,30,120,230,44,527,
0,30,120,227,44,521,
0,29,119,226,44,518,
0,29,118,224,43,511,
0,29,118,223,43,505,
0,31,117,220,43,500,
0,31,115,219,43,496,
0,31,115,217,41,491,
0,30,114,216,41,486,
0,30,113,237,41,528,
0,30,113,235,41,524,
0,30,112,233,40,518,
0,29,111,231,39,512,
0,29,111,229,39,505,
0,29,110,227,39,502,
0,28,109,226,39,496,
0,36,108,224,39,491,
0,36,108,222,39,486,
0,35,107,220,39,483,
0,35,107,219,38,518,
0,35,105,240,41,533,
0,34,105,239,40,527,
0,34,103,236,39,520,
0,33,103,235,39,515,
0,33,103,233,39,510,
0,33,102,231,39,504,
0,34,102,229,39,499,
0,34,101,227,39,495,
0,34,100,225,38,490,
0,33,99,224,38,485,
0,33,99,223,38,536,
0,33,98,243,44,530,
0,33,97,240,43,526,
0,32,97,239,43,519,
0,31,97,237,43,513,
0,31,96,236,42,509,
0,31,95,233,41,504,
0,31,95,231,41,499,
0,33,94,230,41,494,
0,33,94,228,40,489,
0,32,93,227,39,485,
0,32,92,225,39,519,
0,31,92,249,39,513,
0,31,92,247,39,507,
0,31,91,244,39,503,
0,31,91,243,39,497,
0,31,89,241,39,492,
0,31,89,239,38,487,
0,31,88,238,38,483,
0,31,88,235,38,479,
0,31,88,234,38,473,
0,31,88,231,37,469,
0,31,87,231,37,466,
0,30,88,237,45,519,
0,30,102,235,45,514,
0,30,101,233,45,509,
0,30,99,231,44,504,
0,29,99,229,44,499,
0,29,98,227,44,494,
0,29,97,226,43,488,
0,33,97,224,43,484,
0,33,96,223,43,480,
0,32,96,221,42,476,
0,32,95,220,42,472,
0,31,94,236,42,502,
0,31,94,235,47,497,
0,31,93,231,46,492,
0,31,92,231,46,487,
0,31,92,229,45,482,
0,31,91,227,45,478,
0,30,91,225,44,473,
0,31,89,224,44,468,
0,31,89,222,44,464,
0,31,88,220,44,460,
0,31,88,219,43,457,
0,30,92,241,44,513,
0,30,115,239,53,508,
0,30,114,236,52,502,
0,30,113,235,51,497,
0,29,112,232,51,492,
0,29,111,231,51,487,
0,28,110,228,51,481,
0,29,109,227,50,477,
0,29,108,225,49,472,
0,28,108,224,49,467,
0,28,107,222,49,487,
0,28,107,243,54,526,
0,28,112,242,56,519,
0,28,111,240,56,513,
0,28,110,238,56,508,
0,27,110,236,55,504,
0,27,108,234,55,498,
0,27,108,231,54,492,
0,31,107,231,54,487,
0,31,106,228,53,483,
0,31,105,227,52,479,
0,31,107,225,52,519,
0,30,107,240,53,512,
0,30,113,238,52,508,
0,29,112,236,52,502,
0,29,111,234,51,496,
0,29,111,231,51,491,
0,28,110,230,51,486,
0,28,108,228,50,482,
0,29,108,227,49,477,
0,28,107,225,49,472,
0,28,106,223,49,467,
0,28,115,237,48,522,
0,28,133,235,50,515,
0,28,131,233,49,509,
0,27,131,231,49,504,
0,27,129,228,48,499,
0,27,127,227,48,494,
0,27,127,225,48,488,
0,29,126,224,47,483,
0,29,125,222,47,480,
0,29,124,220,46,475,
0,28,123,219,46,470,
0,28,152,236,48,524,
0,28,159,233,48,519,
0,28,157,231,48,514,
0,27,156,230,47,508,
0,27,155,228,47,502,
0,27,153,226,47,498,
0,27,152,224,46,492,
0,33,151,223,46,487,
0,33,150,221,45,483,
0,33,148,219,45,479,
0,33,147,217,44,497,
0,32,156,228,48,523,
0,32,156,227,48,517,
0,31,155,224,48,511,
0,31,153,223,48,507,
0,31,152,221,47,500,
0,31,151,219,47,496,
0,30,150,217,47,490,
0,32,148,216,46,486,
0,31,147,214,46,481,
0,31,146,212,45,476,
0,31,145,236,45,529,
0,31,143,233,57,524,
0,31,143,231,56,518,
0,31,142,230,56,512,
0,30,141,227,56,506,
0,30,140,226,55,502,
0,30,139,224,55,496,
0,30,137,223,54,491,
0,30,137,220,54,486,
0,29,135,219,53,482,
0,29,135,217,52,477,
0,29,147,238,52,536,
0,28,151,236,52,529,
0,28,150,233,51,524,
0,28,148,231,51,519,
0,28,147,230,51,513,
0,28,145,227,50,507,
0,27,144,226,50,503,
0,39,143,224,49,497,
0,38,142,223,49,492,
0,38,141,220,49,487,
0,37,140,219,48,521,
0,37,140,243,48,526,
0,36,148,240,48,519,
0,36,147,238,48,513,
0,35,145,236,48,508,
0,35,144,233,47,503,
0,35,143,231,47,497,
0,35,142,230,46,492,
0,36,141,228,46,487,
0,36,140,227,46,483,
0,35,139,225,45,478,
0,35,138,224,45,531,
0,35,137,241,48,524,
0,35,137,240,48,519,
0,34,135,238,47,513,
0,34,135,236,47,508,
0,34,135,233,46,503,
0,33,133,231,46,498,
0,33,132,231,45,493,
0,33,131,228,45,487,
0,33,130,227,45,483,
0,32,129,225,44,479,
0,32,134,251,44,535,
0,31,178,248,45,527,
0,31,176,246,45,521,
0,31,174,243,44,518,
0,31,172,241,44,511,
0,31,171,239,44,505,
0,31,169,237,44,500,
0,34,167,236,43,495,
0,33,167,233,43,491,
0,33,166,231,42,486,
0,33,164,230,42,492,
0,32,163,244,44,543,
0,32,162,242,44,537,
0,32,160,240,44,531,
0,31,159,238,43,525,
0,31,158,236,43,519,
0,31,156,235,42,515,
0,31,156,233,42,509,
0,31,155,231,41,504,
0,31,153,229,41,498,
0,31,152,227,41,494,
0,31,152,226,40,545,
0,31,150,241,55,543,
0,30,150,240,54,536,
0,30,147,238,54,531,
0,30,147,236,53,526,
0,30,145,233,52,519,
0,29,145,231,52,515,
0,41,143,230,51,510,
0,41,143,228,51,504,
0,41,142,227,51,499,
0,40,141,224,51,494,
0,39,140,250,50,564,
0,39,139,248,54,556,
0,39,137,246,53,550,
0,39,136,243,52,543,
0,39,135,241,52,537,
0,38,135,240,51,532,
0,38,134,238,51,527,
0,39,132,236,51,520,
0,38,131,233,51,515,
0,38,131,231,50,511,
0,37,130,231,49,505,
0,37,129,252,50,566,
0,36,127,249,50,559,
0,36,127,247,50,553,
0,35,127,245,49,547,
0,35,126,243,49,540,
0,35,124,241,48,535,
0,35,124,239,48,530,
0,35,123,238,48,524,
0,34,121,236,48,519,
0,34,121,233,47,513,
0,34,120,231,47,523,
0,33,120,252,47,562,
0,33,119,249,47,555,
0,33,118,248,46,548,
0,33,117,245,46,543,
0,32,116,243,46,537,
0,31,115,241,45,531,
0,31,115,239,44,526,
0,38,114,237,44,519,
0,37,113,236,44,516,
0,37,112,233,44,511,
0,36,112,245,43,556,
0,36,112,243,48,548,
0,36,112,240,48,543,
0,35,111,239,47,537,
0,35,111,237,47,531,
0,35,110,235,47,525,
0,35,109,233,46,520,
0,35,108,231,45,515,
0,35,107,230,45,509,
0,35,107,227,45,504,
0,34,105,226,44,500,
0,34,113,252,48,551,
0,33,113,248,49,544,
0,33,112,246,49,538,
0,33,111,244,48,534,
0,32,110,243,48,527,
0,32,109,240,48,521,
0,32,108,238,47,516,
0,35,108,236,47,511,
0,35,107,235,46,506,
0,35,105,233,46,500,
0,35,105,231,46,523,
0,34,110,240,48,537,
0,33,118,238,48,531,
0,33,116,236,47,524,
0,33,115,233,47,519,
0,33,115,231,46,513,
0,32,113,231,46,508,
0,32,112,228,46,504,
0,35,112,227,45,497,
0,35,111,225,45,492,
0,35,110,223,44,488,
0,34,119,222,44,550,
0,34,118,240,44,543,
0,33,117,239,43,536,
0,33,116,236,43,531,
0,33,115,235,43,526,
0,32,114,232,42,519,
0,32,113,231,41,514,
0,32,112,228,41,510,
0,32,111,227,41,504,
0,31,111,225,41,499,
0,31,110,224,40,493,
0,31,112,240,39,551,
0,31,121,239,41,545,
0,31,120,236,41,539,
0,30,120,235,40,532,
0,30,119,231,39,527,
0,30,118,231,39,521,
0,30,116,229,39,516,
0,30,116,227,39,510,
0,30,115,225,39,506,
0,29,114,224,39,501,
0,29,113,222,38,496,
0,28,120,248,39,521,
0,28,139,246,40,515,
0,28,137,243,39,511,
0,28,135,241,39,505,
0,28,135,240,39,499,
0,28,134,238,39,494,
0,27,132,236,39,490,
0,27,131,234,39,485,
0,27,130,231,39,480,
0,27,129,230,38,476,
0,27,128,238,38,520,
0,26,132,251,46,536,
0,26,133,248,46,530,
0,25,132,246,46,524,
0,25,131,243,45,519,
0,25,130,243,45,513,
0,25,129,240,44,508,
0,25,127,238,44,503,
0,26,127,236,44,499,
0,27,126,235,43,493,
0,27,125,232,43,487,
0,27,124,246,43,547,
0,27,124,243,44,543,
0,26,122,241,44,536,
0,26,121,239,44,530,
0,26,120,237,43,524,
0,25,120,235,43,519,
0,25,119,233,42,514,
0,30,118,231,42,508,
0,30,117,230,41,503,
0,29,116,228,41,497,
0,29,115,227,41,494,
0,28,137,250,43,545,
0,28,139,248,44,539,
0,28,139,246,44,532,
0,28,137,243,44,527,
0,27,135,241,43,521,
0,27,135,240,42,515,
0,27,134,238,42,510,
0,35,132,236,41,505,
0,35,131,234,41,500,
0,35,131,231,41,495,
0,35,129,231,40,544,
0,34,143,241,43,539,
0,33,149,239,42,532,
0,33,147,237,42,526,
0,33,146,236,41,519,
0,33,145,233,41,515,
0,32,143,231,41,510,
0,31,143,230,40,504,
0,34,142,227,39,499,
0,33,140,226,39,496,
0,33,140,224,39,490,
0,33,142,237,39,545,
0,33,147,241,46,538,
0,32,150,239,46,533,
0,31,148,238,46,527,
0,31,147,236,45,521,
0,31,146,233,45,515,
0,31,145,231,44,509,
0,31,143,230,44,505,
0,32,142,227,44,499,
0,31,141,226,43,495,
0,31,140,224,43,489,
0,31,175,241,43,547,
0,31,173,240,46,541,
0,31,172,237,46,535,
0,31,170,235,45,527,
0,30,168,233,45,524,
0,30,167,231,44,518,
0,30,166,230,44,512,
0,35,165,227,44,507,
0,35,163,225,44,503,
0,35,162,224,43,497,
0,34,161,223,43,518,
0,34,160,249,48,543,
0,34,159,247,48,537,
0,33,158,245,48,531,
0,33,156,243,47,525,
0,33,155,241,47,519,
0,32,154,239,47,515,
0,33,152,237,46,509,
0,36,152,236,46,504,
0,36,151,233,45,498,
0,36,150,231,45,495,
0,35,148,230,45,555,
0,35,147,248,49,547,
0,35,147,244,49,540,
0,35,145,243,48,535,
0,34,144,241,48,529,
0,34,143,239,47,524,
0,33,142,237,47,518,
0,39,141,235,46,512,
0,39,140,233,46,508,
0,38,139,231,46,503,
0,38,137,230,45,497,
0,38,137,248,45,540,
0,38,137,246,47,536,
0,36,135,243,47,529,
0,36,135,242,46,523,
0,36,134,240,46,518,
0,35,133,238,45,513,
0,35,132,236,45,507,
0,44,131,234,44,502,
0,44,131,231,44,496,
0,43,129,230,44,492,
0,43,127,228,44,487,
0,43,139,257,50,531,
0,41,138,255,50,525,
0,41,137,252,49,520,
0,41,135,251,49,515,
0,41,135,248,48,508,
0,39,134,247,48,504,
0,39,132,244,48,499,
0,44,131,243,48,494,
0,43,131,241,47,488,
0,43,129,239,47,483,
0,42,129,237,47,535,
0,41,143,240,51,529,
0,41,159,238,51,523,
0,41,158,236,51,516,
0,40,157,233,50,511,
0,39,156,231,50,507,
0,39,154,231,49,502,
0,39,153,228,49,496,
0,39,152,227,49,491,
0,39,151,224,48,487,
0,39,150,224,48,482,
0,39,148,247,48,537,
0,39,147,243,48,530,
0,38,146,241,48,526,
0,38,145,240,47,519,
0,37,143,238,47,513,
0,37,143,236,46,508,
0,36,142,233,46,504,
0,39,141,231,46,498,
0,39,140,231,45,492,
0,39,139,228,44,487,
0,38,137,227,44,484,
0,38,136,248,45,547,
0,38,135,246,45,540,
0,38,135,243,45,534,
0,36,134,241,44,527,
0,36,133,240,44,523,
0,36,131,238,44,517,
0,35,131,236,44,511,
0,38,130,234,44,505,
0,38,129,231,43,502,
0,37,127,231,43,496,
0,37,127,229,42,539,
0,36,135,241,48,536,
0,36,161,239,49,531,
0,35,159,237,48,526,
0,35,158,235,48,519,
0,35,157,233,48,513,
0,35,156,231,47,510,
0,44,155,230,47,504,
0,44,153,227,46,498,
0,44,152,226,46,493,
0,43,152,224,46,489,
0,43,150,227,45,551,
0,43,148,242,45,544,
0,42,147,240,44,538,
0,41,147,238,44,533,
0,41,145,236,44,527,
0,41,143,234,44,521,
0,39,143,231,43,515,
0,39,142,230,43,511,
0,39,141,228,43,505,
0,39,140,227,42,500,
0,39,139,225,41,495,
0,39,137,230,41,536,
0,39,136,227,41,531,
0,38,135,226,41,526,
0,38,135,224,41,519,
0,38,134,222,40,513,
0,37,133,220,39,510,
0,37,131,219,39,504,
0,38,131,217,39,498,
0,37,130,216,39,493,
0,37,129,214,39,489,
0,36,127,212,39,499,
0,36,131,236,43,545,
0,35,137,233,43,538,
0,35,135,231,42,534,
0,35,135,230,41,527,
0,35,134,228,41,521,
0,35,133,227,41,515,
0,35,131,224,40,511,
0,36,131,223,39,505,
0,36,130,221,39,500,
0,35,129,220,39,496,
0,35,127,237,39,547,
0,35,153,235,45,540,
0,35,158,233,45,534,
0,35,156,231,45,527,
0,34,155,228,44,523,
0,34,153,227,44,517,
0,34,152,225,44,511,
0,38,152,224,44,505,
0,39,150,222,43,500,
0,39,149,220,43,496,
0,39,147,219,42,492,
0,39,147,240,42,538,
0,38,171,238,43,531,
0,38,168,236,43,527,
0,38,167,235,42,521,
0,37,166,231,41,515,
0,36,164,230,41,510,
0,36,163,228,41,505,
0,38,161,227,40,499,
0,38,160,225,39,495,
0,37,159,223,39,489,
0,37,158,221,39,486,
0,36,157,235,44,529,
0,36,174,231,44,523,
0,35,173,231,44,516,
0,35,171,228,44,512,
0,35,169,227,44,507,
0,35,167,225,43,501,
0,35,167,223,43,496,
0,41,166,221,42,492,
0,41,164,220,41,487,
0,41,163,218,41,481,
0,40,161,216,41,535,
0,39,161,241,47,529,
0,39,159,240,47,523,
0,39,158,238,46,516,
0,39,157,236,46,511,
0,39,156,233,46,505,
0,39,155,231,45,501,
0,38,153,230,45,496,
0,39,152,228,44,490,
0,39,152,226,44,486,
0,39,150,224,44,481,
0,39,149,248,44,541,
0,38,147,245,47,534,
0,38,147,243,46,527,
0,38,145,240,46,524,
0,36,144,239,45,518,
0,36,143,237,45,511,
0,36,143,235,44,506,
0,37,142,233,44,502,
0,36,140,231,44,496,
0,36,140,230,44,491,
0,36,138,227,44,486,
0,35,137,241,44,540,
0,35,136,240,46,534,
0,35,135,238,46,527,
0,35,135,236,45,521,
0,34,134,233,45,516,
0,34,132,231,44,511,
0,33,131,230,44,505,
0,38,131,228,44,499,
0,38,129,227,44,496,
0,38,129,225,43,491,
0,37,127,223,43,530,
0,37,127,242,46,542,
0,36,126,240,45,536,
0,35,125,238,45,530,
0,35,124,236,44,524,
0,35,124,234,44,519,
0,35,123,231,44,512,
0,35,121,230,44,508,
0,35,121,228,43,503,
0,35,120,227,43,497,
0,35,120,225,42,492,
0,35,119,230,41,555,
0,34,131,228,51,547,
0,34,130,227,50,540,
0,33,128,224,49,534,
0,33,127,223,49,529,
0,33,127,221,49,524,
0,33,126,220,48,518,
0,33,124,217,48,512,
0,33,124,216,48,508,
0,33,123,215,47,503,
0,32,121,212,47,497,
0,32,121,231,47,550,
0,31,120,229,46,543,
0,31,120,227,46,537,
0,31,119,226,46,531,
0,31,118,224,45,526,
0,31,116,222,45,521,
0,31,116,220,44,515,
0,34,115,219,44,510,
0,34,115,216,44,504,
0,33,113,216,44,499,
0,33,113,214,43,496,
0,33,114,233,44,551,
0,32,115,231,44,545,
0,32,114,229,43,539,
0,31,113,227,43,534,
0,31,112,225,42,527,
0,31,111,224,42,522,
0,31,111,222,42,516,
0,31,110,220,41,512,
0,31,109,219,41,507,
0,31,108,217,40,501,
0,31,108,229,39,499,
0,31,115,236,46,494,
0,30,116,233,46,489,
0,30,115,231,45,483,
0,30,115,230,45,480,
0,30,114,227,44,476,
0,29,113,227,44,471,
0,31,112,224,44,466,
0,32,112,223,44,462,
0,31,111,220,43,458,
0,31,110,220,43,454,
0,31,112,233,42,514,
0,31,159,231,43,508,
0,31,156,228,43,502,
0,31,155,227,42,497,
0,30,153,225,41,492,
0,30,152,224,41,487,
0,30,151,222,41,481,
0,33,150,220,40,478,
0,33,148,218,39,472,
0,33,147,216,39,467,
0,32,146,215,39,489,
0,31,145,240,39,517,
0,31,147,238,40,511,
0,31,146,236,39,505,
0,31,145,234,39,499,
0,31,143,231,39,496,
0,30,143,231,39,489,
0,30,142,228,39,484,
0,39,140,227,39,480,
0,39,140,225,38,476,
0,39,139,224,38,471,
0,38,137,222,38,536,
0,38,142,243,47,528,
0,38,156,240,48,524,
0,37,154,239,47,518,
0,37,153,237,47,512,
0,36,152,235,47,506,
0,36,151,233,46,502,
0,35,149,231,46,496,
0,35,148,230,45,492,
0,35,147,227,45,486,
0,35,145,226,44,481,
0,35,145,247,44,527,
0,34,164,245,46,521,
0,33,163,243,45,515,
0,33,161,240,44,509,
0,33,159,238,44,504,
0,33,159,236,44,499,
0,32,158,235,44,494,
0,33,156,232,43,488,
0,33,155,231,43,484,
0,32,154,230,43,480,
0,32,152,227,41,475,
0,31,152,241,42,514,
0,31,183,239,42,510,
0,31,180,238,41,504,
0,31,179,236,41,498,
0,31,177,233,41,492,
0,31,176,231,40,488,
0,30,175,230,39,483,
0,34,173,228,39,478,
0,34,172,227,39,473,
0,33,171,224,39,470,
0,33,169,223,39,499,
0,33,167,238,44,511,
0,32,167,236,44,505,
0,32,166,233,43,500,
0,31,164,231,43,495,
0,31,163,230,43,489,
0,31,162,228,42,484,
0,31,161,227,41,480,
0,31,159,225,41,476,
0,31,159,223,41,471,
0,30,157,222,40,465,
0,30,156,244,40,515,
0,30,167,241,59,510,
0,30,166,240,58,504,
0,29,164,238,57,497,
0,29,163,236,57,492,
0,28,161,233,56,487,
0,28,159,231,56,483,
0,31,159,230,56,478,
0,31,158,228,55,473,
0,31,156,227,55,469,
0,31,156,225,55,464,
0,31,155,238,54,515,
0,31,157,236,54,508,
0,30,156,233,54,504,
0,30,154,231,53,499,
0,30,153,231,52,493,
0,30,152,228,52,487,
0,29,151,227,51,483,
0,36,150,225,51,479,
0,35,148,223,51,473,
0,35,147,222,51,468,
0,35,147,220,50,465,
0,35,147,236,50,496,
0,34,173,233,49,489,
0,34,172,231,49,484,
0,33,171,230,48,479,
0,33,169,227,48,476,
0,33,167,225,48,470,
0,32,166,224,48,465,
0,44,165,222,47,460,
0,44,163,220,47,457,
0,44,162,219,47,452,
0,43,161,228,46,469,
0,43,165,248,48,463,
0,42,163,244,48,460,
0,41,162,243,48,455,
0,41,160,241,47,450,
0,41,159,239,47,446,
0,40,158,237,46,443,
0,40,157,236,46,439,
0,39,156,233,46,434,
0,39,155,231,45,431,
0,39,153,230,44,428,
0,39,152,245,45,486,
0,39,152,243,48,480,
0,39,151,240,48,475,
0,38,150,238,48,471,
0,38,148,236,47,465,
0,38,147,235,47,460,
0,37,146,232,46,455,
0,39,145,231,46,452,
0,38,143,230,46,448,
0,38,143,227,45,444,
0,38,142,225,45,451,
0,37,141,241,47,498,
0,37,140,240,47,494,
0,36,139,238,47,487,
0,36,137,236,46,483,
0,35,137,233,46,478,
0,35,135,231,46,473,
0,35,135,230,45,468,
0,39,134,227,45,463,
0,39,133,226,44,460,
0,38,132,224,44,455,
0,38,131,223,44,519,
0,38,130,228,46,526,
0,37,129,226,46,519,
0,36,128,224,45,515,
0,36,127,222,45,509,
0,36,127,221,44,504,
0,35,126,219,44,497,
0,46,125,217,44,494,
0,46,124,216,44,487,
0,46,123,214,43,483,
0,46,123,212,43,479,
0,45,121,233,43,524,
0,44,121,231,44,518,
0,44,120,230,44,511,
0,44,120,227,44,505,
0,43,119,225,43,502,
0,43,118,224,43,496,
0,43,117,222,42,491,
0,44,116,220,42,486,
0,44,115,218,41,480,
0,43,115,216,41,476,
0,43,114,216,41,472,
0,42,113,236,41,524,
0,42,113,233,41,518,
0,41,112,231,41,513,
0,41,112,230,40,508,
0,41,111,228,39,502,
0,40,110,226,39,496,
0,39,109,224,39,492,
0,40,108,223,39,487,
0,39,108,221,39,482,
0,39,107,220,39,477,
0,39,106,217,39,491,
0,39,108,227,43,535,
0,39,125,224,43,527,
0,38,124,223,43,521,
0,38,123,220,42,517,
0,38,122,219,41,511,
0,38,120,217,41,505,
0,37,120,216,41,500,
0,41,119,214,41,496,
0,41,118,212,40,491,
0,41,117,211,39,486,
0,40,135,227,39,551,
0,39,140,225,47,546,
0,39,139,223,46,540,
0,39,138,221,46,534,
0,39,137,220,45,527,
0,39,135,217,45,521,
0,39,135,216,44,516,
0,41,134,215,44,511,
0,44,132,212,44,505,
0,43,131,211,44,500,
0,43,130,209,43,496,
0,42,130,236,51,554,
0,41,134,233,54,547,
0,41,133,231,54,540,
0,41,131,230,54,536,
0,40,131,228,52,530,
0,39,129,227,52,524,
0,39,129,224,51,518,
0,40,127,223,51,514,
0,39,127,221,51,508,
0,39,126,220,51,504,
0,39,125,217,50,543,
0,39,140,241,51,562,
0,39,143,240,51,556,
0,39,141,238,51,548,
0,38,140,236,51,542,
0,38,140,233,50,537,
0,38,138,231,49,531,
0,37,136,230,49,526,
0,41,135,228,49,519,
0,39,135,226,48,515,
0,39,134,225,48,510,
0,39,133,223,48,563,
0,39,132,247,48,556,
0,39,131,244,48,548,
0,38,130,243,48,543,
0,38,129,240,48,537,
0,38,127,238,47,531,
0,38,127,236,47,526,
0,37,127,234,46,521,
0,36,126,232,46,515,
0,36,124,231,46,510,
0,36,124,229,46,504,
0,35,146,241,45,537,
0,35,159,240,46,531,
0,35,158,237,45,524,
0,35,156,235,45,519,
0,34,156,233,44,514,
0,34,154,231,44,508,
0,34,152,230,44,504,
0,41,152,227,44,497,
0,41,151,226,43,494,
0,40,149,224,43,488,
0,40,148,223,43,484,
0,39,147,238,43,536,
0,39,145,236,46,531,
0,39,144,235,46,526,
0,39,143,232,45,519,
0,39,143,231,45,514,
0,39,142,229,44,508,
0,38,140,227,44,504,
0,39,139,225,44,499,
0,39,138,224,44,493,
0,39,137,222,43,487,
0,39,135,229,43,533,
0,39,135,231,44,555,
0,39,135,229,44,547,
0,38,134,227,44,541,
0,38,132,225,44,536,
0,37,131,224,43,531,
0,37,131,222,43,524,
0,47,129,220,43,519,
0,46,129,218,42,515,
0,46,127,217,41,509,
0,45,127,216,41,504,
0,45,127,235,41,566,
0,44,126,231,45,560,
0,44,125,231,44,553,
0,44,124,229,44,547,
0,43,124,227,44,540,
0,43,123,225,44,536,
0,43,121,224,43,529,
0,42,120,222,43,524,
0,41,120,220,42,518,
0,41,119,217,42,514,
0,41,118,216,41,508,
0,40,140,231,43,563,
0,39,140,230,43,556,
0,39,138,228,43,550,
0,39,136,227,42,544,
0,39,135,225,41,539,
0,39,135,223,41,532,
0,39,134,221,41,527,
0,39,132,219,40,522,
0,39,131,217,39,516,
0,39,131,216,39,511,
0,39,129,214,39,564,
0,39,129,228,43,559,
0,38,128,227,43,551,
0,38,127,224,42,545,
0,37,127,223,41,539,
0,36,126,220,41,535,
0,36,124,219,41,528,
0,36,124,217,40,523,
0,36,123,216,40,517,
0,35,121,214,39,512,
0,35,121,212,39,507,
0,35,128,223,39,557,
0,35,127,226,49,550,
0,34,127,224,48,545,
0,34,125,222,48,539,
0,33,124,220,47,532,
0,33,124,219,47,527,
0,33,123,216,47,522,
0,33,121,216,46,516,
0,33,120,214,46,511,
0,33,120,211,46,505,
0,32,119,210,45,500,
0,32,125,223,45,560,
0,32,124,221,46,552,
0,31,123,219,45,546,
0,31,122,217,45,540,
0,31,120,215,44,536,
0,31,120,214,44,529,
0,31,119,211,44,524,
0,46,118,210,44,518,
0,45,117,209,43,513,
0,45,116,207,43,508,
0,44,115,206,43,521,
0,44,123,227,43,560,
0,44,122,224,46,555,
0,43,120,223,46,547,
0,43,120,221,45,542,
0,42,119,219,45,536,
0,41,118,217,45,531,
0,42,117,216,44,525,
0,46,116,214,44,519,
0,45,115,212,44,513,
0,45,115,211,43,510,
0,44,120,209,43,567,
0,44,121,238,49,559,
0,44,120,236,49,551,
0,43,120,233,48,547,
0,43,119,231,48,540,
0,43,118,230,47,535,
0,42,117,227,47,528,
0,44,115,226,47,523,
0,43,115,224,46,519,
0,43,114,223,46,512,
0,43,113,221,46,507,
0,41,121,241,46,567,
0,41,120,239,53,561,
0,41,120,237,53,555,
0,41,118,235,52,548,
0,40,118,233,51,542,
0,39,116,231,51,537,
0,39,115,230,51,531,
0,44,115,227,51,525,
0,44,114,225,50,519,
0,43,113,224,49,515,
0,43,112,223,49,510,
0,43,126,232,49,536,
0,42,125,231,49,528,
0,41,124,228,48,524,
0,41,123,227,48,518,
0,40,121,225,48,512,
0,39,121,224,47,507,
0,39,120,222,47,503,
0,39,119,220,46,497,
0,39,118,218,46,492,
0,39,117,216,46,487,
0,39,116,215,46,510,
0,39,129,230,47,543,
0,39,127,227,46,536,
0,38,127,225,46,530,
0,38,126,223,45,524,
0,38,125,222,45,519,
0,38,124,220,44,513,
0,38,123,218,44,508,
0,39,122,216,44,503,
0,38,121,214,44,499,
0,38,120,213,43,494,
0,38,142,227,43,551,
0,37,140,225,48,545,
0,37,139,223,47,540,
0,36,137,221,47,534,
0,36,135,220,46,527,
0,35,135,217,46,522,
0,35,134,216,46,518,
0,38,133,215,45,512,
0,38,132,212,45,507,
0,37,131,211,44,501,
0,37,130,209,44,497,
0,36,135,219,44,550,
0,36,135,217,48,543,
0,35,134,215,48,536,
0,35,132,214,47,531,
0,35,131,211,47,526,
0,35,130,210,46,519,
0,35,129,208,46,515,
0,38,128,207,46,508,
0,38,127,205,45,504,
0,37,126,204,45,499,
0,37,125,203,44,529,
0,36,135,221,44,536,
0,36,135,220,44,530,
0,35,134,217,44,524,
0,35,132,216,44,518,
0,35,131,214,43,512,
0,35,130,212,43,508,
0,35,129,211,43,503,
0,36,127,209,41,497,
0,36,127,207,41,492,
0,36,126,206,41,487,
0,35,128,207,41,550,
0,35,127,225,42,542,
0,35,126,224,41,536,
0,35,126,222,41,531,
0,34,124,220,41,525,
0,34,124,219,40,519,
0,34,123,216,39,513,
0,39,121,215,39,509,
0,39,120,214,39,504,
0,39,120,211,39,498,
0,39,119,209,39,493,
0,39,126,231,39,556,
0,38,125,230,41,548,
0,38,124,228,41,542,
0,38,123,226,40,536,
0,37,121,224,39,530,
0,37,121,223,39,526,
0,36,120,221,39,519,
0,39,119,219,39,514,
0,39,118,217,39,508,
0,39,117,216,39,504,
0,39,116,214,38,500,
0,39,127,239,39,552,
0,39,126,236,40,545,
0,38,124,234,40,540,
0,38,124,232,39,535,
0,38,122,231,39,527,
0,37,121,228,39,523,
0,36,120,227,39,518,
0,38,120,225,39,512,
0,37,119,224,39,507,
0,37,118,222,38,502,
0,36,120,220,38,551,
0,36,135,220,44,555,
0,35,134,219,44,548,
0,35,133,216,44,542,
0,35,131,215,44,537,
0,35,131,214,43,531,
0,35,129,211,42,525,
0,46,129,210,42,519,
0,46,127,208,41,515,
0,45,127,207,41,510,
0,44,126,206,41,504,
0,44,135,227,40,500,
0,44,135,225,41,495,
0,43,134,223,41,491,
0,43,132,221,41,486,
0,43,131,219,40,481,
0,42,130,217,39,476,
0,41,129,216,39,473,
0,46,127,214,39,468,
0,46,127,212,39,463,
0,45,126,211,39,459,
0,44,125,209,38,455,
0,44,127,225,42,515,
0,44,126,223,43,510,
0,43,125,220,42,504,
0,43,124,219,41,499,
0,43,123,217,41,494,
0,42,121,216,41,488,
0,41,121,214,40,483,
0,47,120,212,39,480,
0,46,119,211,39,475,
0,46,118,209,39,470,
0,46,118,207,39,540,
0,45,132,223,50,534,
0,45,131,221,49,527,
0,44,131,220,49,521,
0,44,129,217,49,515,
0,44,128,216,48,511,
0,43,127,215,48,505,
0,44,126,212,47,500,
0,51,125,211,47,495,
0,50,124,209,47,489,
0,50,124,207,46,486,
0,49,123,223,46,515,
0,49,121,221,49,508,
0,48,121,219,48,503,
0,48,120,216,48,499,
0,48,119,216,48,493,
0,47,119,214,47,487,
0,47,118,211,47,483,
0,50,116,210,47,479,
0,50,115,209,46,473,
0,49,115,207,46,469,
0,49,114,206,45,464,
0,48,132,232,46,523,
0,48,155,231,46,516,
0,48,153,229,45,510,
0,47,152,227,45,504,
0,47,151,225,44,500,
0,47,150,224,44,495,
0,46,147,222,44,489,
0,46,147,220,44,484,
0,45,145,217,43,480,
0,45,144,216,43,476,
0,45,143,215,43,516,
0,44,143,235,44,526,
0,44,145,232,44,521,
0,44,143,231,44,515,
0,43,142,229,43,510,
0,43,142,227,43,504,
0,43,140,225,42,499,
0,43,139,224,42,495,
0,43,138,222,41,489,
0,43,136,220,41,484,
0,43,135,218,40,480,
0,41,136,227,40,545,
0,41,139,225,51,538,
0,41,137,224,49,531,
0,40,137,222,49,526,
0,39,135,220,49,521,
0,39,135,218,48,515,
0,39,134,216,48,509,
0,39,132,215,48,504,
0,39,131,213,47,499,
0,39,131,211,47,494,
0,39,129,210,47,489,
0,39,129,224,46,547,
0,39,127,222,46,542,
0,38,127,220,46,536,
0,38,126,219,46,529,
0,38,125,216,45,524,
0,37,124,215,45,519,
0,37,124,214,45,513,
0,36,123,211,44,508,
0,36,122,209,44,503,
0,36,120,207,43,498,
0,35,120,207,43,493,
0,35,134,224,44,556,
0,35,132,221,44,548,
0,35,131,220,44,543,
0,35,130,217,44,537,
0,34,129,216,43,531,
0,33,127,214,43,526,
0,33,127,212,42,519,
0,35,126,211,42,515,
0,35,125,209,41,510,
0,35,124,207,41,504,
0,35,127,207,41,531,
0,34,142,225,52,526,
0,34,141,224,51,519,
0,33,140,222,51,513,
0,33,139,220,51,508,
0,33,137,218,50,504,
0,32,135,216,50,498,
0,35,135,215,49,493,
0,34,135,213,49,487,
0,34,134,211,48,483,
0,33,132,210,48,479,
0,33,135,230,48,540,
0,33,135,227,48,534,
0,33,134,225,48,529,
0,32,132,224,47,523,
0,31,131,222,47,516,
0,31,130,220,46,511,
0,31,129,218,46,507,
0,32,127,216,46,502,
0,31,127,215,45,496,
0,31,126,213,45,491,
0,31,125,211,44,499,
0,31,177,233,46,548,
0,31,176,231,46,541,
0,31,174,229,45,535,
0,30,172,227,44,529,
0,30,171,225,44,524,
0,30,169,224,44,518,
0,30,167,222,44,512,
0,39,167,220,43,507,
0,39,166,218,43,503,
0,39,164,216,43,497,
0,39,163,215,42,558,
0,38,162,230,46,555,
0,38,161,227,46,550,
0,37,159,226,46,543,
0,37,158,224,45,536,
0,36,157,222,45,531,
0,36,156,220,44,526,
0,39,155,219,44,520,
0,39,153,216,44,515,
0,39,152,215,44,509,
0,39,152,214,43,505,
0,39,151,220,43,512,
0,38,149,220,42,507,
0,38,148,218,41,501,
0,38,147,216,41,497,
0,37,146,215,41,492,
0,36,145,212,40,487,
0,36,143,211,39,481,
0,36,143,209,40,476,
0,35,142,208,39,473,
0,35,140,207,39,468,
0,35,140,205,39,463,
0,35,139,226,39,524,
0,35,138,224,44,519,
0,34,137,222,44,513,
0,34,135,220,44,507,
0,33,135,219,44,502,
0,33,134,216,43,497,
0,33,132,215,43,492,
0,36,131,214,42,487,
0,36,131,211,41,482,
0,35,130,210,41,478,
0,35,129,208,41,499,
0,35,137,235,45,536,
0,35,136,231,44,529,
0,34,135,230,44,525,
0,34,134,228,44,519,
0,33,133,227,44,513,
0,33,132,225,44,508,
0,33,131,223,43,504,
0,33,130,221,43,498,
0,33,129,220,42,492,
0,32,128,217,41,487,
0,31,129,240,41,545,
0,31,132,239,44,537,
0,31,131,237,44,531,
0,31,131,235,43,525,
0,31,129,233,43,519,
0,31,127,231,43,515,
0,31,127,230,41,509,
0,30,127,227,41,504,
0,30,126,225,41,498,
0,30,124,224,41,494,
0,30,124,223,40,488,
0,30,132,231,41,541,
0,29,131,228,41,535,
0,29,131,227,41,529,
0,28,130,225,41,524,
0,28,129,223,39,518,
0,28,127,221,39,512,
0,28,127,219,39,508,
0,33,126,217,39,503,
0,32,124,216,39,497,
0,31,124,215,39,492,
0,31,123,212,39,487,
0,31,127,239,41,540,
0,31,127,236,41,534,
0,31,126,233,41,527,
0,31,125,231,40,523,
0,30,124,231,39,516,
0,30,123,228,39,511,
0,29,122,227,39,505,
0,36,121,225,39,500,
0,36,120,223,39,496,
0,35,120,222,39,491,
0,35,128,220,39,547,
0,35,127,230,41,540,
0,35,126,228,40,535,
0,34,125,227,39,529,
0,34,124,224,39,523,
0,33,123,223,39,516,
0,33,122,221,39,512,
0,35,121,220,39,507,
0,35,120,217,39,502,
0,35,120,216,38,496,
0,35,119,214,38,492,
0,34,126,238,39,555,
0,34,124,235,44,547,
0,33,124,231,44,542,
0,33,123,231,44,536,
0,33,121,228,43,531,
0,32,120,227,43,524,
0,32,120,225,43,519,
0,48,119,223,43,515,
0,47,118,222,41,508,
0,47,117,220,41,504,
0,46,116,218,41,499,
0,46,118,230,41,558,
0,45,120,228,41,551,
0,45,120,227,41,543,
0,45,119,224,41,537,
0,44,118,223,41,531,
0,44,116,221,39,527,
0,44,115,220,39,521,
0,44,115,217,39,515,
0,43,115,216,39,510,
0,43,113,214,39,506,
0,42,117,212,39,508,
0,42,126,227,41,511,
0,41,125,225,41,505,
0,41,124,224,40,501,
0,41,123,222,40,496,
0,40,121,220,39,491,
0,39,121,218,39,486,
0,39,120,216,39,482,
0,39,119,215,39,478,
0,39,118,213,39,472,
0,39,117,211,38,467,
0,39,135,233,38,529,
0,39,134,231,39,523,
0,39,132,230,39,516,
0,38,131,227,39,511,
0,38,131,225,39,507,
0,38,129,224,38,500,
0,37,128,222,38,496,
0,49,127,220,38,490,
0,49,127,217,38,486,
0,48,126,216,36,481,
0,48,124,215,36,476,
0,48,127,231,37,529,
0,47,126,230,38,523,
0,47,124,227,38,519,
0,46,124,225,38,512,
0,46,123,224,37,507,
0,45,121,222,37,500,
0,45,120,220,36,497,
0,45,120,219,36,492,
0,45,119,216,36,487,
0,44,118,215,35,481,
0,44,117,213,35,496,
0,44,123,222,43,548,
0,44,122,220,43,542,
0,43,121,218,43,536,
0,43,120,216,42,531,
0,42,120,215,41,524,
0,42,119,213,41,519,
0,41,118,211,41,513,
0,41,116,209,40,509,
0,41,115,208,39,504,
0,41,115,207,39,498,
0,41,115,223,39,551,
0,40,125,222,41,544,
0,39,124,220,40,538,
0,39,123,218,39,531,
0,39,122,216,39,526,
0,39,121,215,39,521,
0,39,120,213,39,515,
0,39,119,211,39,510,
0,39,118,209,38,504,
0,39,118,207,38,499,
0,39,116,207,38,495,
0,39,118,223,40,545,
0,38,116,220,47,539,
0,38,115,219,47,532,
0,38,115,216,46,527,
0,37,113,215,46,522,
0,36,113,213,45,516,
0,36,112,211,45,511,
0,39,111,209,44,506,
0,39,110,208,44,500,
0,39,110,207,44,496,
0,38,109,205,44,511,
0,38,118,222,44,537,
0,38,116,220,44,531,
0,37,115,217,43,525,
0,36,115,216,43,519,
0,36,113,214,42,514,
0,36,112,212,41,508,
0,35,112,211,41,504,
0,35,111,209,41,497,
0,35,110,207,40,494,
0,35,109,206,40,488,
0,35,124,204,39,547,
0,35,124,215,51,540,
0,34,124,212,51,536,
0,34,123,211,50,529,
0,33,121,209,49,523,
0,33,120,207,49,518,
0,33,120,206,48,512,
0,33,119,204,48,508,
0,33,118,203,48,502,
0,32,116,201,48,496,
0,32,115,199,47,492,
0,31,122,236,47,496,
0,31,121,233,47,491,
0,31,120,231,47,486,
0,31,119,230,46,480,
0,31,118,227,46,477,
0,30,117,226,45,472,
0,30,116,224,45,467,
0,35,115,223,44,463,
0,34,114,220,44,460,
0,33,113,220,44,455,
0,33,112,217,43,451,
0,33,135,219,43,510,
0,33,134,216,44,505,
0,32,132,216,43,499,
0,32,131,214,43,494,
0,31,131,211,43,488,
0,31,129,210,42,484,
0,31,127,208,41,480,
0,38,127,207,41,475,
0,37,126,206,41,470,
0,37,125,204,40,466,
0,36,124,203,39,496,
0,36,124,224,39,516,
0,36,123,221,39,510,
0,35,122,219,39,504,
0,35,121,217,39,500,
0,35,120,216,39,495,
0,34,120,214,39,489,
0,35,119,212,38,484,
0,35,118,210,38,480,
0,35,116,209,38,475,
0,34,115,207,38,471,
0,33,115,220,38,521,
0,33,114,217,38,516,
0,33,113,216,38,510,
0,32,112,215,37,504,
0,32,112,212,36,499,
0,32,111,211,36,495,
0,31,110,209,36,489,
0,39,110,207,35,484,
0,39,109,206,35,479,
0,39,108,204,35,475,
0,38,107,203,35,471,
0,38,111,217,35,535,
0,38,110,215,35,527,
0,37,108,214,35,524,
0,37,108,211,35,518,
0,36,107,209,35,512,
0,36,106,207,35,505,
0,36,105,206,35,500,
0,36,104,205,34,496,
0,35,103,204,34,491,
0,35,103,202,33,486,
0,35,103,199,33,536,
0,35,131,208,34,532,
0,34,129,207,33,526,
0,34,128,204,33,519,
0,33,127,203,33,513,
0,33,127,201,33,510,
0,33,125,199,32,504,
0,32,124,199,32,499,
0,33,124,197,31,493,
0,33,123,195,31,489,
0,32,121,195,31,484,
0,31,135,206,31,549,
0,31,134,208,35,542,
0,31,132,207,35,536,
0,31,131,206,35,531,
0,31,130,204,34,524,
0,31,129,202,34,519,
0,31,127,199,33,514,
0,33,127,199,33,508,
0,33,126,197,33,503,
0,33,125,195,33,497,
0,32,124,194,32,494,
0,31,139,223,31,517,
0,31,137,220,36,511,
0,31,136,217,36,504,
0,31,135,216,35,499,
0,31,134,215,35,495,
0,31,133,212,35,489,
0,30,131,211,35,484,
0,33,131,209,35,480,
0,32,130,207,34,476,
0,31,128,206,34,472,
0,31,127,204,34,486,
0,31,127,222,38,532,
0,31,126,220,39,527,
0,31,125,218,38,521,
0,31,124,216,38,515,
0,30,123,215,38,509,
0,30,122,212,37,505,
0,32,121,211,37,499,
0,39,120,209,36,494,
0,39,120,207,36,489,
0,38,119,206,35,486,
0,38,118,204,35,559,
0,38,116,216,39,553,
0,37,115,214,38,546,
0,36,115,212,38,542,
0,36,114,211,37,536,
0,35,113,209,36,529,
0,35,112,207,36,523,
0,36,112,206,36,519,
0,37,111,204,35,513,
0,36,110,203,35,508,
0,36,109,201,35,503,
0,35,108,217,35,561,
0,35,108,216,43,556,
0,35,107,214,43,549,
0,35,105,212,43,543,
0,35,105,210,41,536,
0,34,104,208,41,532,
0,34,103,207,41,526,
0,34,103,206,40,520,
0,34,102,204,40,515,
0,34,102,202,39,511,
0,33,101,201,39,505,
0,33,100,221,39,555,
0,33,99,219,41,550,
0,32,99,217,41,543,
0,31,98,216,40,536,
0,31,97,214,39,532,
0,31,97,212,39,526,
0,31,96,211,39,521,
0,35,96,209,39,516,
0,35,95,207,39,511,
0,35,94,206,39,507,
0,35,94,204,39,501,
0,35,93,218,39,554,
0,34,92,216,45,547,
0,34,92,215,44,542,
0,33,92,213,44,536,
0,33,91,211,44,529,
0,33,90,210,44,525,
0,33,89,208,43,519,
0,35,89,207,43,515,
0,35,88,205,42,510,
0,35,88,204,42,504,
0,34,88,203,41,500,
0,34,88,226,41,550,
0,33,89,226,44,544,
0,33,88,224,43,537,
0,33,88,222,43,531,
0,33,88,220,43,527,
0,32,87,219,42,521,
0,32,87,217,41,516,
0,33,86,216,41,511,
0,44,85,214,41,507,
0,43,84,212,40,502,
0,43,84,211,40,496,
0,42,124,227,39,553,
0,41,165,231,40,550,
0,41,163,230,40,543,
0,41,162,227,39,536,
0,39,160,225,39,531,
0,39,159,224,39,526,
0,39,158,222,39,519,
0,41,156,220,39,514,
0,41,155,218,39,508,
0,41,153,216,38,504,
0,40,152,216,38,499,
0,39,155,231,38,557,
0,39,153,230,44,551,
0,39,152,228,44,545,
0,39,151,226,43,539,
0,39,150,224,43,532,
0,39,148,222,43,527,
0,38,147,220,42,522,
0,44,146,219,41,516,
0,43,145,217,41,511,
0,43,144,216,41,505,
0,42,143,214,41,502,
0,41,156,225,48,571,
0,41,155,224,49,563,
0,41,154,222,49,556,
0,40,153,220,49,551,
0,39,152,218,48,545,
0,39,150,216,48,539,
0,39,149,215,48,533,
0,39,147,212,47,528,
0,39,147,211,47,523,
0,39,145,209,47,517,
0,38,144,207,47,588,
0,38,144,232,49,580,
0,38,145,231,48,574,
0,38,144,229,48,567,
0,37,143,227,48,560,
0,36,142,225,48,553,
0,36,141,224,47,548,
0,36,140,222,47,543,
0,35,139,220,46,536,
0,35,137,218,46,531,
0,35,137,216,46,527,
0,35,148,231,45,575,
0,35,147,231,48,568,
0,34,146,228,47,561,
0,34,145,227,47,556,
0,34,143,225,46,550,
0,33,143,224,46,543,
0,33,142,221,46,537,
0,33,140,220,45,532,
0,33,139,218,44,527,
0,32,138,216,44,521,
0,32,137,215,44,515,
0,31,148,231,47,560,
0,31,147,229,47,552,
0,31,145,227,46,546,
0,31,144,225,46,540,
0,31,143,223,46,536,
0,31,142,222,45,529,
0,31,140,220,45,524,
0,36,140,218,44,518,
0,36,139,216,44,513,
0,35,137,215,44,508,
0,35,137,213,43,521,
0,35,135,225,43,531,
0,35,135,224,43,524,
0,35,135,222,43,519,
0,35,134,220,42,514,
0,34,132,219,41,508,
0,34,131,216,41,503,
0,35,130,215,41,499,
0,36,129,213,40,494,
0,35,128,211,39,488,
0,35,127,210,39,483,
0,35,128,233,39,552,
0,35,127,231,45,545,
0,35,127,230,45,539,
0,34,126,227,44,532,
0,33,124,225,44,527,
0,33,124,224,44,521,
0,33,123,222,43,516,
0,44,122,220,43,510,
0,44,121,219,43,506,
0,44,120,217,42,500,
0,43,120,216,41,496,
0,43,140,225,44,547,
0,43,137,223,51,542,
0,42,136,222,50,536,
0,41,135,220,49,529,
0,41,135,217,49,523,
0,41,134,216,49,519,
0,40,132,215,48,513,
0,39,131,212,48,507,
0,39,130,211,48,502,
0,39,129,209,47,496,
0,39,127,207,47,493,
0,39,153,234,47,547,
0,39,152,231,47,541,
0,38,152,230,46,535,
0,38,150,227,46,530,
0,37,148,226,46,524,
0,37,147,224,45,518,
0,36,147,222,45,512,
0,38,145,220,44,508,
0,38,143,219,44,503,
0,38,143,217,44,497,
0,37,143,225,43,555,
0,37,148,227,45,549,
0,36,147,225,44,543,
0,36,145,224,44,536,
0,35,145,222,44,530,
0,35,143,220,43,526,
0,35,143,218,43,519,
0,43,142,216,43,513,
0,44,140,215,42,508,
0,43,139,212,41,504,
0,43,138,211,41,499,
0,42,137,227,41,560,
0,41,135,225,43,551,
0,41,135,223,43,547,
0,41,135,221,42,540,
0,40,133,219,41,535,
0,39,132,217,41,528,
0,39,131,216,41,523,
0,42,130,214,41,519,
0,41,129,212,40,513,
0,41,127,211,39,507,
0,40,127,209,39,525,
0,39,127,225,44,558,
0,39,127,223,45,551,
0,39,126,221,44,543,
0,39,125,219,44,537,
0,39,124,217,44,533,
0,39,123,216,43,527,
0,38,122,214,43,521,
0,42,121,212,43,515,
0,41,120,211,42,511,
0,41,120,209,41,505,
0,41,124,207,41,560,
0,40,123,228,43,553,
0,39,121,226,43,548,
0,39,121,225,42,542,
0,39,120,223,41,536,
0,39,120,221,41,529,
0,39,119,220,41,525,
0,47,118,217,40,519,
0,47,116,216,39,513,
0,47,115,214,39,508,
0,46,115,212,39,504,
0,46,114,237,40,578,
0,45,114,235,44,570,
0,44,113,231,44,563,
0,44,112,231,44,557,
0,44,112,229,44,551,
0,44,111,227,43,545,
0,43,110,225,43,540,
0,49,109,223,43,534,
0,49,108,221,42,529,
0,48,108,220,41,524,
0,48,107,218,41,518,
0,48,107,233,44,556,
0,47,106,231,44,551,
0,47,105,230,44,543,
0,46,103,227,44,537,
0,46,103,225,44,531,
0,46,103,223,43,527,
0,45,102,222,43,521,
0,45,102,220,42,515,
0,44,100,217,42,511,
0,44,100,216,41,506,
0,44,99,216,41,526,
0,44,99,223,41,551,
0,43,99,221,41,546,
0,43,98,219,40,540,
0,42,97,217,39,536,
0,42,97,216,39,529,
0,41,96,214,39,523,
0,41,96,212,39,519,
0,42,95,211,39,513,
0,41,95,209,39,508,
0,41,94,207,39,504,
0,40,93,206,38,499,
0,39,107,225,39,543,
0,39,106,224,39,536,
0,39,105,222,39,529,
0,39,103,220,39,524,
0,39,103,218,38,519,
0,39,103,216,38,513,
0,38,102,215,38,508,
0,44,101,212,38,503,
0,43,100,211,37,498,
0,43,99,209,36,493,
0,42,100,207,36,542,
0,41,137,224,43,540,
0,41,135,223,43,534,
0,41,135,220,43,527,
0,40,134,219,42,521,
0,39,132,217,41,517,
0,39,131,216,41,511,
0,39,130,214,41,505,
0,39,129,211,40,499,
0,39,127,210,39,496,
0,39,127,209,39,491,
0,38,143,215,39,551,
0,38,142,222,44,543,
0,38,140,220,44,537,
0,37,139,219,43,533,
0,37,138,216,43,527,
0,36,136,215,43,521,
0,36,135,212,42,515,
0,35,135,211,41,511,
0,35,134,209,41,505,
0,35,132,207,41,499,
0,35,131,206,40,495,
0,35,176,239,41,568,
0,34,174,238,46,561,
0,34,172,235,46,554,
0,34,171,233,46,547,
0,33,169,231,45,543,
0,33,167,230,45,536,
0,33,167,227,44,531,
0,43,166,225,44,524,
0,41,164,224,44,519,
0,41,163,223,43,515,
0,41,161,220,43,523,
0,40,161,228,47,559,
0,39,159,226,48,553,
0,39,159,224,48,547,
0,39,157,223,48,540,
0,39,156,220,47,534,
0,39,155,219,47,529,
0,40,154,217,46,524,
0,45,152,216,46,518,
0,44,152,214,46,512,
0,44,151,212,45,507,
0,44,150,211,44,563,
0,44,148,231,46,556,
0,43,147,230,46,550,
0,43,146,227,45,543,
0,41,145,225,45,538,
0,41,143,224,44,532,
0,41,143,223,44,526,
0,48,142,220,44,519,
0,48,141,219,43,515,
0,48,140,217,43,511,
0,47,139,216,43,505,
0,47,139,231,42,559,
0,47,137,228,44,553,
0,46,135,227,44,547,
0,45,135,225,44,540,
0,45,135,224,43,534,
0,44,134,222,43,529,
0,44,132,220,43,524,
0,46,131,218,42,518,
0,45,131,216,41,512,
0,45,129,215,41,508,
0,44,129,214,41,504,
0,44,127,230,46,536,
0,44,127,227,46,529,
0,43,126,225,45,526,
0,43,125,224,44,519,
0,43,124,222,44,513,
0,42,124,220,44,508,
0,41,123,218,44,502,
0,47,121,217,43,498,
0,47,121,215,43,493,
0,46,120,213,43,487,
0,46,120,213,42,540,
0,45,119,225,44,535,
0,44,118,224,44,527,
0,44,117,222,43,521,
0,44,116,220,43,515,
0,44,115,218,42,511,
0,43,115,216,42,505,
0,44,113,215,41,500,
0,45,113,213,41,495,
0,45,112,211,40,491,
0,44,111,210,40,486,
0,44,111,220,40,546,
0,44,110,217,47,540,
0,44,109,216,47,535,
0,43,108,214,46,528,
0,43,108,212,46,522,
0,42,107,211,46,516,
0,41,106,209,45,512,
0,49,105,207,44,507,
0,48,104,206,44,501,
0,48,103,204,44,496,
0,47,103,203,44,491,
0,47,105,230,44,526,
0,47,104,227,44,519,
0,46,103,225,43,513,
0,46,103,224,43,508,
0,45,103,222,42,504,
0,45,102,220,41,498,
0,45,101,218,41,493,
0,50,100,216,41,487,
0,49,99,215,40,484,
0,49,99,214,39,480,
0,48,99,211,39,476,
0,48,98,221,42,536,
0,48,97,219,43,530,
0,47,97,217,41,525,
0,47,96,216,41,519,
0,46,96,214,41,515,
0,46,95,212,41,509,
0,46,94,211,40,504,
0,45,94,209,39,499,
0,45,93,207,39,494,
0,44,92,206,39,490,
0,44,92,204,39,485,
0,44,93,223,39,551,
0,43,93,222,44,543,
0,43,92,219,44,537,
0,43,92,217,43,532,
0,43,91,216,43,526,
0,41,91,214,42,521,
0,41,89,213,42,515,
0,44,89,211,41,510,
0,44,88,209,41,505,
0,44,88,207,41,500,
0,43,88,207,40,496,
0,43,91,227,39,541,
0,42,91,225,41,536,
0,41,89,224,40,529,
0,41,89,222,40,524,
0,41,88,220,39,519,
0,40,88,218,39,513,
0,40,87,216,39,508,
0,42,86,215,39,504,
0,44,86,213,39,498,
0,43,86,211,39,494,
0,43,84,210,39,488,
0,42,86,227,38,543,
0,42,88,224,39,536,
0,41,88,222,39,529,
0,41,88,221,39,524,
0,40,87,219,39,519,
0,40,86,217,39,514,
0,39,85,216,38,508,
0,39,84,214,38,504,
0,42,84,212,38,499,
0,42,83,211,37,494,
0,41,83,209,37,489,
0,41,89,207,36,546,
0,41,93,211,38,551,
0,40,92,209,37,543,
0,39,91,207,36,537,
0,39,91,206,36,534,
0,39,89,204,36,527,
0,39,88,203,35,523,
0,39,88,201,35,516,
0,40,88,199,35,512,
0,39,87,199,35,507,
0,39,86,198,35,502,
0,39,86,196,35,497,
0,39,86,219,42,540,
0,39,85,216,43,536,
0,38,83,216,42,529,
0,38,83,214,41,523,
0,38,83,212,41,519,
0,38,83,210,41,512,
0,37,82,208,40,508,
0,41,81,207,39,504,
0,41,81,206,39,497,
0,41,80,204,39,494,
0,40,79,203,39,488,
0,39,84,221,39,540,
0,39,83,220,39,534,
0,39,83,217,39,529,
0,39,82,216,39,523,
0,39,81,215,38,516,
0,39,81,213,38,512,
0,38,80,211,38,507,
0,39,79,209,38,503,
0,39,79,207,37,497,
0,39,79,206,36,492,
0,39,78,205,36,487,
0,39,79,223,36,534,
0,38,79,220,39,528,
0,38,78,219,38,522,
0,38,78,216,38,516,
0,37,77,216,38,512,
0,37,76,214,37,506,
0,36,76,211,37,502,
0,36,76,211,36,496,
0,43,75,208,36,492,
0,42,75,207,36,487,
0,41,75,206,35,483,
0,41,76,204,35,528,
0,41,81,222,35,521,
0,41,95,220,35,516,
0,39,94,219,35,511,
0,39,93,216,35,504,
0,39,92,216,35,500,
0,39,92,214,34,495,
0,39,91,211,34,491,
0,46,90,210,33,486,
0,46,89,208,33,481,
0,45,89,207,33,477,
0,44,88,206,33,516,
0,44,95,214,39,527,
0,44,94,212,39,520,
0,44,94,211,39,516,
0,43,92,210,39,510,
0,43,92,207,39,504,
0,42,92,206,39,500,
0,42,91,205,38,495,
0,46,90,203,38,491,
0,46,89,202,38,486,
0,45,88,199,38,481,
0,45,88,199,37,477,
0,44,88,225,36,536,
0,44,88,223,39,532,
0,44,87,221,39,526,
0,43,86,219,38,519,
0,43,86,217,38,515,
0,43,84,216,38,510,
0,43,83,214,37,505,
0,48,83,212,36,499,
0,48,83,211,36,496,
0,48,83,209,36,491,
0,47,81,207,36,485,
0,47,83,226,35,540,
0,47,83,224,37,534,
0,46,83,222,36,528,
0,46,82,220,35,523,
0,45,81,218,35,516,
0,45,80,216,35,512,
0,45,79,215,35,507,
0,46,79,213,35,502,
0,46,79,211,35,497,
0,45,78,210,34,492,
0,45,78,208,34,487,
0,44,85,212,34,547,
0,44,84,211,35,542,
0,44,84,209,35,535,
0,44,84,207,35,530,
0,43,83,206,35,524,
0,43,83,204,35,519,
0,43,82,203,34,514,
0,42,81,201,33,508,
0,45,81,199,33,504,
0,44,80,199,33,499,
0,44,79,197,33,493,
0,44,81,196,33,529,
0,43,83,206,35,526,
0,43,83,204,35,521,
0,42,82,203,35,515,
0,41,82,201,34,510,
0,41,81,199,34,505,
0,41,80,198,33,499,
0,41,79,197,33,496,
0,41,79,195,33,491,
0,40,79,194,32,487,
0,39,78,192,32,482,
0,39,205,192,32,510,
0,39,227,215,31,516,
0,39,224,212,31,512,
0,39,222,211,31,506,
0,39,220,209,31,500,
0,38,218,207,31,495,
0,38,216,206,31,491,
0,71,214,204,30,486,
0,71,212,203,30,480,
0,71,211,201,30,476,
0,70,209,199,30,472,
0,69,231,201,30,522,
0,68,229,216,29,515,
0,68,227,214,29,510,
0,67,225,211,29,505,
0,67,224,210,28,499,
0,66,222,207,28,494,
0,65,220,207,28,488,
0,67,218,204,28,485,
0,67,216,204,28,480,
0,67,215,201,28,475,
0,65,213,199,27,470,
0,65,233,230,27,508,
0,64,231,227,36,503,
0,64,229,226,36,497,
0,63,227,224,35,492,
0,63,225,222,35,486,
0,63,224,220,35,482,
0,62,221,219,35,477,
0,63,220,216,34,472,
0,62,217,215,34,467,
0,62,216,213,33,463,
0,62,240,211,33,467,
0,61,271,231,35,532,
0,60,268,229,35,526,
0,60,265,227,35,521,
0,60,263,225,34,515,
0,59,261,224,33,510,
0,59,259,222,33,504,
0,58,257,220,33,500,
0,59,255,219,33,495,
0,59,252,216,32,489,
0,59,251,215,32,484,
0,57,263,230,31,540,
0,57,262,233,33,549,
0,57,259,231,33,543,
0,56,257,229,31,536,
0,56,255,227,31,531,
0,56,253,226,31,526,
0,55,251,224,31,519,
0,67,248,222,31,514,
0,65,247,220,31,508,
0,65,244,219,31,504,
0,64,243,216,31,499,
0,63,243,235,30,556,
0,63,241,232,31,548,
0,63,239,231,30,543,
0,62,238,229,30,537,
0,62,236,227,30,531,
0,61,234,225,30,525,
0,60,231,224,29,521,
0,75,231,222,29,515,
0,75,228,220,29,509,
0,73,227,218,29,504,
0,72,225,216,28,499,
0,71,236,221,28,557,
0,71,233,219,28,550,
0,71,231,217,28,543,
0,70,230,216,28,539,
0,70,228,214,27,532,
0,70,226,212,27,526,
0,68,225,211,27,520,
0,79,223,209,27,516,
0,78,222,207,27,511,
0,78,220,206,26,505,
0,77,219,204,26,568,
0,76,216,220,27,560,
0,75,216,219,27,553,
0,75,214,216,27,547,
0,74,212,215,27,541,
0,73,211,213,26,535,
0,73,209,211,25,531,
0,72,207,210,25,524,
0,73,206,207,25,518,
0,72,205,206,25,513,
0,71,204,204,25,508,
0,71,207,219,25,555,
0,71,206,216,25,547,
0,70,204,215,25,540,
0,70,203,212,24,536,
0,69,201,211,24,529,
0,69,199,209,24,524,
0,68,199,207,24,518,
0,69,198,206,24,513,
0,68,195,204,24,508,
0,67,194,203,24,503,
0,67,193,201,24,497,
0,67,192,224,25,558,
0,66,191,222,27,551,
0,65,190,220,26,543,
0,65,189,218,25,538,
0,64,188,216,26,534,
0,63,185,215,25,527,
0,63,184,213,25,521,
0,68,184,211,25,515,
0,67,182,209,24,511,
0,67,181,207,24,506,
0,67,179,207,24,513,
0,67,179,215,27,540,
0,65,177,212,30,534,
0,65,176,211,29,529,
0,65,175,209,29,524,
0,63,174,207,28,518,
0,63,173,206,28,512,
0,75,172,204,28,508,
0,76,171,203,28,502,
0,75,169,201,28,496,
0,74,167,199,28,492,
0,73,167,230,28,555,
0,73,166,228,28,547,
0,71,165,225,27,540,
0,71,164,224,27,534,
0,71,163,222,27,529,
0,71,161,220,27,524,
0,70,160,219,26,518,
0,70,159,216,26,512,
0,70,159,215,25,508,
0,69,158,214,25,503,
0,68,156,211,25,497,
0,68,156,233,25,545,
0,67,155,231,25,540,
0,67,153,230,25,534,
0,66,153,227,25,527,
0,66,152,226,24,521,
0,65,151,224,24,518,
0,65,150,223,24,511,
0,67,148,220,24,505,
0,67,148,219,24,500,
0,67,147,217,24,496,
0,66,146,216,24,492,
0,66,145,234,24,541,
0,65,144,231,25,534,
0,64,143,230,25,527,
0,63,142,227,25,524,
0,63,141,227,24,518,
0,63,140,224,24,512,
0,62,140,223,24,506,
0,65,139,220,24,502,
0,64,138,220,24,496,
0,64,137,217,24,492,
0,63,184,220,24,555,
0,63,185,227,33,549,
0,63,184,225,33,542,
0,62,182,224,33,536,
0,62,180,222,32,529,
0,61,179,220,31,525,
0,60,177,218,31,519,
0,66,176,216,31,513,
0,65,175,215,31,508,
0,64,173,213,31,504,
0,63,172,211,31,499,
0,63,243,236,30,551,
0,63,241,233,33,544,
0,62,239,231,32,540,
0,62,236,230,32,534,
0,62,234,227,31,527,
0,61,232,225,31,521,
0,61,231,224,31,515,
0,63,228,222,31,511,
0,63,227,220,31,506,
0,62,224,219,31,501,
0,62,224,217,30,499,
0,61,263,231,30,545,
0,60,260,231,30,539,
0,60,258,228,30,532,
0,60,255,227,30,527,
0,59,254,224,29,522,
0,59,252,223,29,516,
0,58,249,221,29,511,
0,59,248,219,28,505,
0,58,246,217,28,501,
0,57,243,216,28,496,
0,57,303,215,28,541,
0,56,305,238,31,539,
0,56,302,236,38,534,
0,56,299,233,37,527,
0,56,295,231,37,521,
0,55,294,230,36,515,
0,55,291,227,36,511,
0,66,288,227,35,505,
0,66,286,224,35,499,
0,65,284,223,35,495,
0,64,281,221,35,489,
0,63,344,224,35,551,
0,63,339,226,35,543,
0,63,335,224,35,536,
0,62,332,222,35,531,
0,62,329,220,35,526,
0,61,327,219,35,519,
0,61,323,216,34,515,
0,62,321,215,34,508,
0,62,318,214,34,504,
0,61,316,212,33,499,
0,60,312,210,33,494,
0,60,329,231,34,552,
0,60,326,228,35,547,
0,59,323,227,35,541,
0,59,319,224,34,535,
0,58,318,223,34,529,
0,57,315,221,33,524,
0,57,312,220,33,519,
0,63,309,217,33,512,
0,63,307,216,33,507,
0,62,304,214,33,504,
0,62,302,212,32,518,
0,61,300,231,39,569,
0,60,297,228,39,563,
0,60,295,227,39,558,
0,60,293,225,38,551,
0,59,291,224,38,544,
0,59,289,221,38,538,
0,60,287,220,38,532,
0,65,284,218,37,527,
0,64,282,216,37,522,
0,63,280,215,36,516,
0,63,299,227,36,568,
0,63,303,225,41,561,
0,62,300,224,39,555,
0,62,296,222,39,547,
0,61,295,220,39,542,
0,60,291,218,39,536,
0,60,289,216,39,531,
0,62,287,215,39,525,
0,62,285,213,38,519,
0,61,283,211,38,515,
0,60,280,210,38,510,
0,60,291,231,38,568,
0,60,287,228,38,560,
0,59,286,226,38,556,
0,59,283,224,37,548,
0,58,280,223,37,543,
0,57,279,220,36,536,
0,57,276,219,36,531,
0,63,274,217,36,526,
0,62,271,216,35,519,
0,61,271,214,35,515,
0,60,268,211,35,510,
0,60,295,243,36,567,
0,60,291,240,37,560,
0,60,289,238,36,553,
0,59,287,236,36,547,
0,58,284,235,36,542,
0,57,281,231,35,536,
0,57,280,231,35,529,
0,66,278,228,35,524,
0,65,275,227,35,519,
0,65,272,225,34,514,
0,63,307,225,34,562,
0,63,304,245,35,555,
0,63,300,243,35,550,
0,63,298,241,35,543,
0,62,295,239,34,536,
0,61,293,237,33,531,
0,61,291,235,33,526,
0,65,287,233,33,519,
0,65,286,231,33,515,
0,64,284,230,33,509,
0,63,281,227,32,505,
0,63,312,245,31,555,
0,63,308,243,32,547,
0,62,305,240,31,541,
0,62,303,238,31,536,
0,61,300,237,31,530,
0,61,297,235,31,524,
0,60,295,232,31,519,
0,66,293,231,31,514,
0,65,291,230,31,508,
0,64,287,227,30,504,
0,63,286,225,30,502,
0,63,322,246,30,559,
0,63,319,243,31,553,
0,63,316,241,31,547,
0,62,312,239,31,540,
0,62,311,237,30,535,
0,61,307,235,30,529,
0,60,305,233,30,524,
0,75,302,231,30,518,
0,74,300,230,30,512,
0,73,297,227,29,508,
0,73,344,227,29,540,
0,71,363,251,29,537,
0,71,359,248,29,531,
0,71,355,247,29,526,
0,71,352,245,28,519,
0,70,349,243,28,514,
0,70,347,241,28,508,
0,70,344,239,28,504,
0,69,340,237,28,499,
0,69,337,236,27,494,
0,68,335,233,27,488,
0,67,387,240,27,543,
0,67,380,239,28,537,
0,67,376,236,28,531,
0,66,374,235,28,524,
0,65,369,231,28,519,
0,65,366,231,27,514,
0,64,363,229,27,508,
0,78,359,227,27,503,
0,76,356,225,27,497,
0,76,353,224,27,494,
0,75,351,222,26,488,
0,75,399,241,27,486,
0,73,396,239,34,480,
0,73,391,236,34,476,
0,72,387,235,34,472,
0,71,384,232,33,467,
0,71,380,231,33,463,
0,71,376,229,33,460,
0,71,373,227,32,455,
0,71,369,225,31,451,
0,71,367,224,31,447,
0,70,368,222,31,458,
0,70,418,241,32,515,
0,69,413,240,32,508,
0,68,409,237,31,502,
0,67,406,236,31,497,
0,67,401,233,31,492,
0,67,398,231,31,487,
0,66,395,230,31,482,
0,75,391,228,31,478,
0,74,387,227,30,473,
0,73,384,224,30,468,
0,73,384,235,31,540,
0,72,388,233,32,535,
0,71,384,231,31,527,
0,71,381,231,31,521,
0,71,379,228,31,516,
0,70,375,226,31,510,
0,70,371,225,31,506,
0,78,368,224,31,500,
0,77,364,221,30,495,
0,76,362,220,30,490,
0,76,359,217,30,486,
0,75,376,240,31,535,
0,74,371,238,35,528,
0,73,369,236,35,522,
0,73,366,233,34,518,
0,71,361,231,34,512,
0,71,359,230,33,506,
0,71,356,228,33,500,
0,71,353,226,33,496,
0,71,350,225,33,491,
0,70,347,223,33,486,
0,70,344,221,32,497,
0,68,342,248,36,523,
0,68,339,247,40,516,
0,67,336,244,39,511,
0,67,334,242,39,504,
0,67,332,240,39,500,
0,66,328,239,39,496,
0,65,326,236,39,489,
0,71,324,235,38,484,
0,71,321,232,38,481,
0,70,319,231,38,476,
0,70,319,230,37,542,
0,69,318,240,40,534,
0,68,315,239,40,527,
0,67,312,237,39,523,
0,67,310,235,39,517,
0,67,307,233,39,511,
0,66,306,231,39,505,
0,66,304,229,39,502,
0,66,301,227,39,496,
0,65,299,225,38,491,
0,65,297,224,38,486,
0,64,296,243,37,523,
0,63,294,242,39,515,
0,63,291,240,38,510,
0,63,290,238,38,504,
0,62,287,236,37,500,
0,62,286,233,37,495,
0,62,284,231,36,489,
0,63,281,230,36,484,
0,63,280,228,36,480,
0,62,278,227,35,475,
0,62,275,225,35,471,
0,61,283,240,36,510,
0,60,280,238,39,505,
0,60,278,236,39,499,
0,60,275,234,39,494,
0,59,273,231,39,487,
0,59,271,230,39,484,
0,58,270,228,38,480,
0,61,268,227,38,475,
0,61,266,224,37,470,
0,60,263,223,37,464,
0,60,263,222,36,487,
0,60,271,244,36,504,
0,59,270,243,36,498,
0,59,268,240,35,492,
0,57,265,238,35,487,
0,57,263,236,35,483,
0,57,261,235,35,478,
0,60,259,232,35,472,
0,60,257,231,34,468,
0,60,255,230,34,463,
0,60,254,227,33,460,
0,59,269,243,33,527,
0,59,266,240,34,522,
0,58,263,238,34,515,
0,57,262,236,34,510,
0,57,259,235,33,504,
0,56,257,231,33,500,
0,56,255,231,33,495,
0,57,253,229,32,489,
0,56,252,227,32,484,
0,56,249,225,31,480,
0,56,248,224,31,476,
0,56,254,251,31,532,
0,55,252,248,33,526,
0,55,249,247,33,519,
0,54,248,244,33,515,
0,54,246,243,33,510,
0,53,243,240,32,504,
0,53,242,239,31,499,
0,59,240,236,31,495,
0,59,239,235,31,489,
0,58,237,233,31,484,
0,57,236,231,31,545,
0,57,248,243,33,548,
0,56,247,241,33,542,
0,56,244,239,32,536,
0,56,243,237,32,529,
0,55,240,235,31,524,
0,55,238,233,31,519,
0,54,236,231,31,513,
0,56,235,230,31,508,
0,55,233,227,31,504,
0,54,231,226,31,498,
0,54,235,238,30,561,
0,54,232,248,31,554,
0,52,231,246,31,548,
0,52,228,243,31,543,
0,52,227,241,31,536,
0,51,226,240,31,530,
0,51,224,238,31,526,
0,65,223,236,31,519,
0,65,222,234,30,515,
0,64,220,231,30,508,
0,63,219,231,30,504,
0,63,225,249,46,568,
0,63,223,246,48,560,
0,62,220,243,48,553,
0,62,220,241,47,547,
0,61,217,240,47,542,
0,60,216,238,46,536,
0,60,215,236,46,529,
0,61,214,234,46,524,
0,61,211,231,45,519,
0,60,211,231,44,513,
0,60,209,229,44,531,
0,60,208,259,44,574,
0,59,207,256,44,568,
0,58,206,255,44,561,
0,58,204,252,43,555,
0,57,203,251,44,548,
0,57,201,248,43,543,
0,57,199,247,42,537,
0,63,199,245,42,531,
0,63,198,243,41,526,
0,63,196,241,41,521,
0,62,209,239,41,572,
0,62,217,250,40,564,
0,61,216,248,40,558,
0,60,214,246,39,552,
0,60,211,244,39,546,
0,60,209,242,39,540,
0,59,208,240,39,534,
0,60,207,238,39,527,
0,59,205,236,39,524,
0,59,203,235,38,518,
0,58,201,232,38,512,
0,57,231,246,38,569,
0,57,229,243,39,563,
0,56,227,242,38,557,
0,56,224,240,38,551,
0,56,223,238,38,543,
0,56,221,236,38,540,
0,55,220,235,37,534,
0,56,217,231,36,527,
0,55,216,231,36,521,
0,54,215,228,36,518,
0,54,212,227,35,512,
0,54,262,243,41,558,
0,53,259,241,42,551,
0,52,257,240,41,545,
0,52,255,238,41,540,
0,51,252,236,40,533,
0,51,251,233,40,527,
0,51,248,231,39,523,
0,51,247,231,39,517,
0,50,244,228,39,511,
0,50,243,227,39,505,
0,49,247,225,39,515,
0,49,273,231,39,565,
0,49,271,230,39,558,
0,49,268,228,39,551,
0,48,266,226,38,545,
0,48,263,225,38,540,
0,47,262,223,37,534,
0,47,259,222,37,527,
0,49,258,220,36,522,
0,48,255,217,36,518,
0,48,253,216,36,513,
0,48,280,231,36,601,
0,47,278,231,36,592,
0,47,275,229,35,587,
0,46,272,227,35,579,
0,46,270,225,35,573,
0,46,268,224,35,567,
0,45,265,222,35,561,
0,44,263,220,35,555,
0,44,261,218,34,549,
0,44,259,216,34,543,
0,44,257,215,33,539,
0,44,289,226,33,584,
0,43,286,224,33,577,
0,43,284,222,33,571,
0,43,281,220,33,566,
0,41,279,219,33,559,
0,41,276,216,32,552,
0,41,274,215,31,546,
0,56,271,212,31,542,
0,55,270,211,31,536,
0,55,268,210,31,530,
0,54,265,208,31,543,
0,54,286,227,31,563,
0,53,283,225,31,558,
0,53,280,224,31,551,
0,52,278,221,30,543,
0,51,275,220,30,538,
0,51,273,217,30,534,
0,51,271,216,30,527,
0,51,268,215,29,522,
0,51,267,212,29,516,
0,50,264,211,29,512,
0,49,268,210,29,555,
0,49,265,230,30,547,
0,49,263,227,30,541,
0,48,262,225,30,536,
0,48,259,224,29,530,
0,48,257,222,29,524,
0,47,255,220,29,519,
0,51,254,218,28,514,
0,50,251,216,28,508,
0,50,249,215,28,504,
0,49,248,213,28,498,
0,49,246,243,28,551,
0,49,243,241,30,543,
0,48,241,239,29,537,
0,48,240,237,29,531,
0,48,239,235,28,526,
0,47,236,233,28,519,
0,47,235,231,28,515,
0,47,233,230,28,509,
0,47,231,227,28,504,
0,46,230,226,28,499,
0,46,228,224,28,496,
0,45,227,252,31,546,
0,45,225,249,33,540,
0,44,224,247,32,535,
0,44,222,246,31,528,
0,44,220,243,31,523,
0,44,219,241,31,516,
0,44,217,239,31,512,
0,61,216,237,31,507,
0,60,214,236,31,502,
0,60,213,233,30,496,
0,59,211,247,30,551,
0,59,209,249,30,549,
0,59,208,248,30,543,
0,57,207,244,30,536,
0,57,206,243,30,531,
0,57,204,241,30,526,
0,56,203,239,29,519,
0,63,201,237,29,513,
0,63,199,236,28,510,
0,62,199,233,28,504,
0,62,197,231,28,499,
0,62,196,244,28,556,
0,61,195,242,35,550,
0,60,193,240,35,543,
0,60,192,238,35,537,
0,60,192,236,34,531,
0,59,190,234,34,525,
0,58,188,232,34,520,
0,66,188,231,33,515,
0,65,186,229,33,509,
0,65,185,227,32,504,
0,64,184,225,32,499,
0,63,183,252,33,551,
0,63,182,249,35,543,
0,62,180,248,35,537,
0,62,179,245,34,533,
0,62,178,243,33,527,
0,61,177,241,33,521,
0,61,176,240,33,515,
0,61,175,238,33,511,
0,60,174,236,32,505,
0,60,173,234,32,500,
0,59,172,231,31,547,
0,59,171,243,38,541,
0,58,170,241,37,535,
0,57,169,240,36,527,
0,57,167,238,36,522,
0,57,167,236,35,518,
0,56,166,233,35,512,
0,56,164,231,35,506,
0,56,164,231,35,500,
0,56,163,228,35,496,
0,56,162,227,34,492,
0,55,161,232,34,560,
0,54,159,236,35,552,
0,54,159,235,34,546,
0,54,158,232,34,541,
0,53,158,231,33,536,
0,52,156,230,33,529,
0,52,156,227,33,523,
0,54,155,225,33,519,
0,54,153,224,32,513,
0,53,152,222,31,508,
0,52,152,220,31,502,
0,52,151,233,31,557,
0,51,150,231,34,550,
0,51,150,230,34,543,
0,51,148,227,33,537,
0,50,147,225,33,532,
0,50,147,224,33,527,
0,50,145,222,33,521,
0,56,145,220,32,515,
0,56,143,218,31,511,
0,55,143,217,31,505,
0,55,143,216,31,514,
0,54,142,224,33,560,
0,54,141,221,34,555,
0,53,140,220,33,548,
0,52,140,218,33,542,
0,52,139,216,33,536,
0,52,137,215,32,529,
0,54,136,214,31,525,
0,57,135,211,31,519,
0,57,135,209,31,513,
0,56,135,207,31,508,
0,56,134,236,31,519,
0,56,132,233,39,512,
0,55,131,231,39,507,
0,55,131,230,38,501,
0,54,131,227,38,497,
0,54,129,226,38,492,
0,53,128,224,37,487,
0,54,127,223,36,482,
0,54,127,220,36,479,
0,53,127,219,36,473,
0,52,126,217,35,470,
0,52,129,219,35,528,
0,51,128,217,35,523,
0,51,127,216,35,518,
0,51,127,214,35,511,
0,50,126,212,34,505,
0,50,125,211,34,502,
0,49,124,209,33,496,
0,51,124,207,33,491,
0,51,123,206,33,486,
0,51,121,204,33,481,
0,51,121,204,32,477,
0,50,127,231,32,540,
0,50,126,230,32,532,
0,49,125,227,31,527,
0,49,124,226,31,522,
0,49,123,224,31,516,
0,48,122,222,31,511,
0,48,121,220,31,504,
0,48,120,219,31,500,
0,48,120,217,31,496,
0,47,119,216,30,490,
0,47,156,215,30,550,
0,47,171,224,30,543,
0,46,169,223,30,537,
0,46,167,221,29,531,
0,46,166,219,29,525,
0,45,165,217,29,520,
0,45,163,216,28,515,
0,44,162,214,28,509,
0,44,161,212,28,504,
0,44,159,211,28,499,
0,43,158,209,28,495,
0,43,211,227,28,541,
0,43,209,225,28,535,
0,42,207,224,28,529,
0,42,205,222,28,524,
0,41,203,220,28,518,
0,41,202,218,27,512,
0,41,199,216,27,508,
0,43,199,215,27,502,
0,41,197,213,26,496,
0,41,195,211,27,492,
0,41,194,209,25,492,
0,41,254,225,28,549,
0,40,252,223,30,543,
0,39,248,221,29,536,
0,39,247,219,28,529,
0,39,244,217,28,526,
0,39,243,216,28,519,
0,39,240,214,28,513,
0,46,239,211,28,508,
0,45,236,210,28,504,
0,44,235,209,27,499,
0,44,263,207,27,544,
0,44,274,225,36,551,
0,43,271,224,35,545,
0,43,268,222,35,539,
0,42,265,220,35,532,
0,42,263,219,35,527,
0,41,262,216,34,522,
0,51,259,216,34,516,
0,50,257,213,33,511,
0,50,255,211,33,505,
0,49,253,210,33,502,
0,49,295,211,32,555,
0,48,290,225,32,547,
0,48,287,224,32,540,
0,48,285,222,31,536,
0,47,283,220,31,529,
0,47,280,218,31,524,
0,47,278,216,31,518,
0,46,275,215,31,512,
0,46,273,214,31,508,
0,46,271,211,30,503,
0,45,268,209,30,497,
0,45,300,230,30,536,
0,44,295,227,31,531,
0,44,293,225,31,524,
0,44,290,224,31,519,
0,43,287,222,31,512,
0,43,286,220,30,508,
0,42,283,218,30,504,
0,56,280,216,30,497,
0,56,279,215,30,492,
0,55,276,212,30,488,
0,54,290,211,30,492,
0,54,317,230,31,550,
0,53,315,227,31,543,
0,52,312,226,31,538,
0,52,308,224,31,531,
0,52,305,223,30,526,
0,51,303,220,30,519,
0,51,300,219,30,515,
0,51,297,217,30,510,
0,50,295,216,29,504,
0,50,294,214,29,499,
0,50,304,228,30,551,
0,49,312,231,32,553,
0,49,308,230,31,547,
0,48,306,227,31,540,
0,48,304,226,31,534,
0,48,300,224,31,529,
0,47,297,223,31,524,
0,49,295,220,31,518,
0,49,293,219,30,512,
0,48,291,216,30,508,
0,48,288,216,30,503,
0,48,310,241,31,566,
0,48,307,239,33,559,
0,47,304,236,32,553,
0,46,301,235,32,547,
0,46,298,233,31,540,
0,46,295,231,31,534,
0,46,294,229,31,529,
0,53,291,227,31,524,
0,52,287,225,31,518,
0,52,287,224,30,512,
0,51,284,222,30,508,
0,51,284,244,33,560,
0,51,282,242,35,552,
0,50,280,240,34,546,
0,49,278,238,33,541,
0,49,275,236,33,536,
0,49,273,234,33,529,
0,48,271,231,33,524,
0,50,270,230,32,518,
0,49,267,228,31,513,
0,49,265,227,31,508,
0,48,263,225,31,503,
0,48,276,244,34,497,
0,48,274,242,35,494,
0,48,271,240,35,487,
0,47,269,238,34,483,
0,47,268,236,34,478,
0,46,265,233,34,475,
0,54,263,233,33,470,
0,54,260,231,33,465,
0,53,259,229,33,461,
0,52,257,227,32,457,
0,52,262,244,32,524,
0,51,259,243,33,517,
0,51,257,240,33,511,
0,51,255,239,33,507,
0,50,252,237,32,501,
0,50,251,235,32,496,
0,49,249,233,31,490,
0,68,248,231,31,486,
0,67,246,230,31,481,
0,67,243,227,31,476,
0,66,242,225,31,472,
0,65,240,253,31,503,
0,65,239,251,35,497,
0,64,237,249,35,492,
0,63,236,247,35,486,
0,63,234,244,35,480,
0,63,231,243,34,477,
0,63,230,241,34,472,
0,62,229,239,34,467,
0,62,227,236,33,463,
0,62,225,235,33,459,
0,61,224,233,33,507,
0,60,224,259,39,521,
0,60,224,257,39,515,
0,59,222,255,39,511,
0,59,220,253,38,505,
0,59,219,251,38,499,
0,57,217,249,38,494,
0,57,216,247,37,490,
0,57,214,245,36,485,
0,57,212,243,36,480,
0,56,211,241,36,475,
0,56,210,248,35,520,
0,56,208,247,40,514,
0,56,207,244,39,508,
0,55,206,242,39,502,
0,54,204,240,39,498,
0,54,203,239,39,492,
0,54,201,236,39,487,
0,62,199,235,39,482,
0,61,199,232,38,478,
0,60,198,231,38,473,
0,60,196,230,38,468,
0,60,195,242,37,531,
0,59,193,240,39,524,
0,59,192,238,39,519,
0,58,191,236,39,513,
0,57,190,234,39,508,
0,57,188,231,39,502,
0,56,188,231,38,498,
0,62,186,229,38,492,
0,62,185,227,38,487,
0,61,184,225,37,483,
0,60,183,224,37,480,
0,60,184,244,51,552,
0,60,183,241,51,545,
0,59,182,240,51,540,
0,58,180,238,50,535,
0,58,179,236,49,528,
0,57,177,234,49,523,
0,57,177,231,49,516,
0,60,176,231,48,512,
0,59,175,228,48,507,
0,59,173,227,48,502,
0,58,184,229,47,568,
0,57,213,233,48,561,
0,57,211,231,47,555,
0,56,208,229,47,548,
0,56,207,227,47,542,
0,56,206,225,46,537,
0,56,204,224,46,531,
0,66,202,222,45,526,
0,64,200,220,46,519,
0,63,199,219,44,514,
0,63,198,217,44,510,
0,63,252,243,44,529,
0,63,248,240,44,523,
0,62,247,238,44,516,
0,61,243,236,43,512,
0,61,241,234,43,507,
0,60,240,231,42,502,
0,60,238,231,42,496,
0,60,236,228,41,492,
0,59,233,227,41,487,
0,59,231,225,41,482,
0,58,231,224,40,483,
0,57,275,244,40,543,
0,57,272,243,41,536,
0,56,270,240,40,529,
0,56,268,238,40,523,
0,56,265,236,39,519,
0,56,263,235,39,513,
0,55,261,233,39,507,
0,64,259,231,39,502,
0,63,257,229,39,497,
0,63,255,227,39,492,
0,63,260,225,38,543,
0,62,280,238,38,545,
0,62,276,236,38,540,
0,61,274,234,38,534,
0,60,271,231,36,527,
0,60,270,230,36,522,
0,60,267,228,36,516,
0,65,265,227,36,512,
0,64,263,225,35,507,
0,63,260,223,35,500,
0,63,259,222,35,496,
0,63,284,240,35,551,
0,63,280,239,36,543,
0,62,278,236,36,537,
0,61,276,234,36,531,
0,61,273,231,36,526,
0,60,271,231,35,519,
0,60,268,229,35,515,
0,60,267,227,35,508,
0,59,264,225,35,504,
0,59,263,224,34,499,
0,58,260,222,34,494,
0,57,277,247,35,557,
0,57,274,244,37,551,
0,56,271,243,36,545,
0,56,269,240,36,539,
0,56,268,239,36,532,
0,55,265,236,35,527,
0,55,263,235,35,522,
0,57,260,233,35,516,
0,56,259,231,35,511,
0,56,256,229,35,505,
0,56,260,228,34,521,
0,55,302,244,39,558,
0,55,300,241,39,551,
0,54,295,240,39,545,
0,54,294,238,39,540,
0,54,291,236,38,534,
0,52,288,233,38,527,
0,52,287,231,38,522,
0,56,284,230,38,518,
0,56,281,229,37,512,
0,55,280,227,36,507,
0,54,291,249,36,561,
0,54,297,246,39,556,
0,53,295,244,39,550,
0,53,291,242,39,543,
0,52,289,240,39,536,
0,52,287,238,39,531,
0,51,284,236,39,526,
0,60,281,235,38,519,
0,60,280,231,38,514,
0,59,278,231,38,510,
0,58,275,229,37,505,
0,57,304,236,38,556,
0,57,302,233,39,550,
0,57,299,231,39,543,
0,56,295,230,39,538,
0,56,294,228,38,531,
0,56,291,226,38,526,
0,55,289,224,37,521,
0,56,287,224,36,515,
0,56,284,221,36,510,
0,55,282,220,36,504,
0,55,280,218,36,537,
0,54,318,242,39,551,
0,54,315,240,38,544,
0,53,312,237,38,538,
0,52,310,235,38,532,
0,52,307,233,37,527,
0,51,304,231,36,521,
0,51,301,230,36,515,
0,51,299,227,36,510,
0,51,295,226,36,505,
0,50,294,224,35,500,
0,50,332,223,35,540,
0,49,327,242,44,534,
0,49,324,240,44,528,
0,48,321,239,43,523,
0,48,319,236,43,516,
0,48,316,234,43,511,
0,47,313,231,42,507,
0,51,311,231,41,501,
0,51,307,229,41,496,
0,50,305,227,41,491,
0,49,303,225,40,487,
0,49,312,246,39,556,
0,49,308,242,39,548,
0,48,307,240,39,542,
0,48,304,238,39,537,
0,48,301,236,39,531,
0,47,299,235,39,524,
0,47,296,232,39,519,
0,56,294,231,38,513,
0,56,291,230,38,509,
0,56,289,227,38,504,
0,55,287,225,38,499,
0,54,289,238,38,561,
0,54,287,236,38,556,
0,53,284,235,38,550,
0,53,281,231,38,543,
0,52,280,231,37,536,
0,51,278,228,36,532,
0,51,275,227,36,526,
0,55,273,225,35,519,
0,55,271,223,35,515,
0,54,270,221,35,511,
0,53,268,220,35,556,
0,53,265,246,39,573,
0,52,263,243,39,566,
0,51,262,240,39,561,
0,51,259,239,39,555,
0,51,257,237,38,548,
0,51,255,235,38,542,
0,56,254,233,37,537,
0,56,252,231,37,531,
0,55,250,230,36,526,
0,54,248,228,36,519,
0,54,247,243,36,575,
0,53,245,241,37,571,
0,52,243,240,37,563,
0,52,241,238,36,556,
0,52,240,236,36,551,
0,51,238,233,36,545,
0,51,236,231,35,539,
0,52,235,230,35,533,
0,52,233,227,35,527,
0,51,231,226,35,523,
0,51,230,225,35,518,
0,51,228,239,47,590,
0,50,227,237,47,583,
0,49,225,235,46,577,
0,49,224,233,46,571,
0,49,222,231,45,563,
0,48,220,230,44,557,
0,48,219,227,45,551,
0,56,217,226,44,547,
0,56,216,224,44,540,
0,55,215,222,44,535,
0,55,214,220,43,534,
0,54,211,241,43,591,
0,54,210,240,43,583,
0,53,209,238,42,576,
0,53,207,235,41,572,
0,52,206,233,41,565,
0,51,205,231,41,559,
0,51,204,230,41,551,
0,51,202,227,40,546,
0,51,200,226,39,542,
0,51,199,224,39,536,
0,51,199,238,39,581,
0,50,197,240,44,574,
0,50,195,239,43,568,
0,49,194,237,43,561,
0,49,193,235,42,555,
0,48,192,232,42,548,
0,48,191,231,41,543,
0,56,190,230,41,537,
0,55,188,227,41,531,
0,54,187,225,39,526,
0,54,186,224,39,522,
0,53,186,240,39,579,
0,53,184,238,39,572,
0,52,184,236,39,566,
0,51,182,234,39,560,
0,51,181,232,39,553,
0,51,179,231,39,547,
0,51,179,228,38,542,
0,63,177,227,38,536,
0,62,176,225,37,531,
0,61,176,224,37,525,
0,61,174,222,37,538,
0,60,193,241,38,571,
0,60,192,240,37,564,
0,59,190,238,36,558,
0,59,188,236,36,551,
0,58,187,233,35,544,
0,57,185,231,35,540,
0,57,184,230,35,534,
0,56,182,228,35,527,
0,56,181,227,35,522,
0,56,179,224,35,518,
0,56,178,223,35,568,
0,55,177,224,48,561,
0,55,176,222,47,554,
0,54,174,220,46,549,
0,54,173,218,46,543,
0,53,172,216,45,536,
0,52,171,215,45,531,
0,52,169,213,45,526,
0,51,168,211,44,520,
0,51,167,210,44,515,
0,51,167,208,44,510,
0,51,166,219,43,547,
0,50,164,216,44,540,
0,49,163,215,44,534,
0,49,163,213,43,527,
0,49,161,211,43,524,
0,48,160,210,43,518,
0,48,159,208,42,512,
0,60,159,207,41,507,
0,59,158,205,41,503,
0,58,156,204,41,497,
0,57,156,203,40,492,
0,57,155,219,45,487,
0,57,153,216,48,483,
0,56,152,216,48,479,
0,56,152,214,47,474,
0,56,151,211,47,470,
0,55,150,210,46,465,
0,55,149,207,46,462,
0,54,148,207,46,457,
0,54,147,205,45,452,
0,54,147,204,45,448,
0,53,145,203,44,483,
0,52,144,223,48,515,
0,52,143,220,48,508,
0,51,143,219,47,503,
0,51,142,216,47,499,
0,51,141,216,46,493,
0,50,140,213,46,487,
0,50,140,211,46,483,
0,50,139,209,45,479,
0,49,137,208,44,473,
0,49,136,207,44,469,
0,48,135,217,44,532,
0,48,135,216,47,527,
0,48,134,213,47,521,
0,48,134,211,46,515,
0,47,133,209,46,509,
0,47,131,207,45,504,
0,46,131,207,45,499,
0,46,130,205,44,494,
0,46,129,204,44,488,
0,45,128,201,44,483,
0,45,127,200,44,480,
0,44,127,216,44,540,
0,44,126,215,44,534,
0,44,126,212,44,527,
0,44,125,211,44,523,
0,43,124,209,44,517,
0,43,123,207,43,511,
0,43,123,206,43,505,
0,49,122,204,42,502,
0,48,121,203,41,496,
0,48,120,201,41,491,
0,48,120,199,41,537,
0,47,119,219,48,545,
0,47,118,217,48,539,
0,47,118,216,47,532,
0,46,117,214,47,526,
0,46,116,211,47,521,
0,45,115,210,46,515,
0,45,115,208,46,510,
0,45,115,207,46,504,
0,44,113,205,45,500,
0,44,113,204,44,496,
0,44,112,205,44,545,
0,44,112,212,44,538,
0,43,111,210,44,534,
0,43,110,209,44,527,
0,43,110,207,44,521,
0,41,109,206,43,515,
0,41,108,204,43,510,
0,41,108,203,43,505,
0,41,107,200,42,499,
0,41,107,199,41,495,
0,40,106,198,41,489,
0,40,106,223,41,542,
0,39,105,221,41,536,
0,39,103,220,41,529,
0,39,103,217,41,523,
0,39,103,216,41,519,
0,39,103,214,40,512,
0,39,102,212,39,507,
0,39,102,211,39,502,
0,39,101,208,39,497,
0,38,100,207,39,492,
0,38,99,206,39,487,
0,38,99,222,39,535,
0,38,99,220,39,527,
0,37,98,218,39,522,
0,36,98,216,39,518,
0,36,97,215,39,512,
0,36,97,214,39,507,
0,35,96,211,38,502,
0,36,96,210,38,497,
0,35,95,208,38,492,
0,35,95,207,38,487,
0,35,94,206,37,483,
0,35,94,227,37,539,
0,35,93,225,37,534,
0,35,92,224,36,527,
0,34,92,222,36,521,
0,34,92,220,36,517,
0,33,91,219,35,511,
0,33,91,217,35,507,
0,36,90,216,35,502,
0,36,89,214,35,496,
0,35,89,212,35,492,
0,35,88,211,34,487,
0,35,88,217,34,551,
0,35,88,224,36,543,
0,35,88,222,35,539,
0,35,87,220,35,532,
0,34,87,219,35,527,
0,33,86,217,35,522,
0,33,86,216,35,516,
0,35,85,214,34,512,
0,35,84,212,33,506,
0,35,84,211,33,501,
0,35,83,209,33,497,
0,35,83,207,33,551,
0,34,83,223,41,545,
0,34,82,221,41,539,
0,33,81,219,40,535,
0,33,81,217,39,527,
0,33,81,216,39,523,
0,33,80,215,39,518,
0,32,79,212,39,512,
0,35,79,211,39,508,
0,35,79,209,39,503,
0,35,79,207,38,497,
0,34,78,207,38,499,
0,34,78,213,41,541,
0,33,77,211,41,536,
0,33,77,209,41,529,
0,33,77,207,41,524,
0,33,76,207,41,519,
0,32,76,204,40,513,
0,31,75,203,39,509,
0,34,75,201,39,504,
0,35,75,199,39,499,
0,34,74,199,39,494,
0,33,73,198,39,489,
0,33,73,215,39,536,
0,33,73,212,39,530,
0,33,72,211,39,525,
0,32,71,209,39,519,
0,31,71,207,38,513,
0,31,71,206,38,509,
0,31,71,204,38,504,
0,51,71,203,37,499,
0,51,70,201,36,494,
0,51,70,199,36,489,
0,51,70,199,36,486,
0,50,70,218,36,547,
0,49,69,216,35,542,
0,49,68,215,35,535,
0,48,68,212,35,531,
0,48,67,211,35,524,
0,48,67,209,35,518,
0,47,67,207,35,514,
0,47,67,206,34,508,
0,47,66,204,33,504,
0,46,66,204,33,499,
0,46,66,201,33,494,
0,46,66,203,33,551,
0,46,65,209,39,543,
0,45,67,207,39,540,
0,44,67,206,39,532,
0,44,66,204,38,527,
0,44,66,203,38,522,
0,44,65,201,37,516,
0,44,65,199,37,512,
0,43,64,198,36,507,
0,43,64,196,36,503,
0,43,63,195,35,497,
0,42,63,194,35,559,
0,41,63,208,37,552,
0,41,65,207,36,546,
0,41,65,204,36,541,
0,40,64,203,36,535,
0,40,64,201,35,528,
0,39,63,199,35,524,
0,39,63,199,35,518,
0,39,63,197,35,514,
0,39,62,195,35,508,
0,39,62,194,35,503,
0,39,62,193,34,500,
0,39,62,224,35,553,
0,39,63,221,36,548,
0,38,63,220,35,542,
0,38,63,217,35,536,
0,38,63,216,35,531,
0,37,62,215,35,524,
0,37,62,213,35,519,
0,39,61,211,34,515,
0,39,61,209,34,510,
0,39,60,207,33,505,
0,38,60,207,33,499,
0,38,62,224,34,547,
0,38,68,222,35,541,
0,37,67,220,34,536,
0,37,67,219,33,530,
0,37,66,216,33,524,
0,36,65,216,33,519,
0,36,65,214,33,514,
0,38,65,212,32,510,
0,38,63,211,31,504,
0,37,63,209,31,500,
0,36,63,207,31,495,
0,36,70,227,31,568,
0,36,69,225,47,563,
0,35,70,224,46,556,
0,35,70,222,46,551,
0,35,69,220,46,544,
0,35,68,218,45,539,
0,34,67,216,45,534,
0,35,67,215,44,527,
0,35,67,213,44,524,
0,34,66,211,44,518,
0,34,65,210,44,512,
0,33,86,209,43,544,
0,33,84,227,45,537,
0,33,83,225,45,533,
0,33,83,223,44,527,
0,32,82,221,44,522,
0,31,81,219,44,516,
0,31,81,217,44,511,
0,33,79,216,43,507,
0,32,79,214,43,501,
0,32,79,212,43,497,
0,31,78,211,42,492,
0,31,78,209,41,545,
0,31,90,223,47,540,
0,31,95,221,47,534,
0,31,94,219,46,528,
0,31,93,217,46,523,
0,31,92,216,45,516,
0,30,92,215,45,512,
0,30,91,212,45,506,
0,31,90,211,44,503,
0,31,89,209,44,497,
0,31,89,207,44,493,
0,31,88,206,43,487,
0,31,112,216,43,540,
0,30,111,215,43,534,
0,30,110,212,43,529,
0,30,109,211,43,524,
0,30,108,209,42,518,
0,29,108,207,42,512,
0,29,106,206,41,507,
0,33,105,205,41,502,
0,33,104,203,40,496,
0,33,103,201,40,492,
0,32,119,214,39,531,
0,31,126,222,40,539,
0,31,125,220,39,531,
0,31,124,217,39,526,
0,31,123,216,39,521,
0,31,121,215,39,515,
0,31,120,212,39,509,
0,33,120,211,39,504,
0,33,119,209,38,499,
0,33,118,207,38,495,
0,33,117,206,38,489,
0,32,137,231,38,540,
0,32,135,229,57,534,
0,31,134,227,56,528,
0,31,132,225,56,522,
0,31,131,224,56,516,
0,31,130,222,55,511,
0,31,129,220,55,507,
0,38,127,218,54,501,
0,38,127,216,54,496,
0,37,126,215,53,491,
0,36,126,212,53,487,
0,36,139,224,52,526,
0,35,137,222,52,519,
0,35,135,220,51,513,
0,35,135,217,51,510,
0,35,134,216,51,504,
0,35,133,215,51,498,
0,34,131,212,50,493,
0,36,131,211,49,489,
0,36,129,210,49,483,
0,35,128,208,49,479,
0,35,127,207,48,535,
0,35,129,220,49,528,
0,35,129,217,48,522,
0,34,127,216,48,516,
0,34,127,214,48,511,
0,33,126,212,47,505,
0,33,125,211,47,500,
0,33,124,209,46,495,
0,35,123,207,46,489,
0,35,122,206,46,484,
0,34,121,204,45,481,
0,34,127,220,45,536,
0,33,127,219,46,530,
0,33,127,216,46,524,
0,33,126,215,46,519,
0,32,124,213,45,513,
0,32,124,211,44,508,
0,32,123,209,44,502,
0,38,121,207,44,497,
0,38,121,207,44,492,
0,38,120,204,44,487,
0,37,119,204,43,483,
0,36,120,238,52,548,
0,36,140,236,53,541,
0,35,137,233,52,535,
0,35,136,231,52,528,
0,35,135,230,51,524,
0,35,135,228,51,518,
0,35,133,226,51,512,
0,47,132,224,50,507,
0,47,131,222,50,503,
0,46,130,221,49,497,
0,46,129,220,49,530,
0,45,127,240,50,547,
0,45,131,238,49,542,
0,44,129,236,49,536,
0,44,127,233,48,529,
0,43,127,231,48,523,
0,43,127,230,48,518,
0,43,126,228,48,513,
0,43,124,227,47,507,
0,42,123,224,47,502,
0,41,123,223,47,496,
0,41,121,228,46,542,
0,41,120,227,46,535,
0,40,120,225,46,527,
0,40,119,223,46,521,
0,39,118,221,45,518,
0,39,117,220,44,512,
0,39,116,217,44,505,
0,39,115,216,44,500,
0,39,115,214,44,496,
0,39,113,213,43,491,
0,39,113,211,43,486,
0,39,112,222,43,541,
0,39,112,220,43,536,
0,38,111,217,42,529,
0,38,110,216,42,524,
0,38,109,214,41,518,
0,38,108,212,41,513,
0,37,108,211,41,508,
0,38,107,209,40,502,
0,38,105,207,39,496,
0,37,105,206,39,492,
0,36,103,205,39,487,
0,36,103,215,39,542,
0,35,103,212,39,536,
0,35,103,210,39,529,
0,35,102,209,39,524,
0,35,100,207,38,519,
0,35,99,206,38,512,
0,34,99,204,38,508,
0,38,99,203,37,503,
0,38,98,201,37,499,
0,38,97,199,36,494,
0,37,97,199,36,513,
0,36,99,211,37,546,
0,36,99,209,37,540,
0,36,99,207,36,535,
0,36,97,206,36,527,
0,35,97,204,36,524,
0,35,96,203,36,518,
0,35,96,201,35,512,
0,46,95,199,35,508,
0,45,94,199,35,503,
0,44,94,197,35,498,
0,44,93,195,34,493,
0,44,92,213,35,546,
0,43,92,211,43,540,
0,43,92,209,43,534,
0,43,91,207,42,529,
0,43,90,206,41,524,
0,42,89,204,41,518,
0,41,89,203,41,513,
0,48,88,201,40,508,
0,47,88,199,40,504,
0,47,88,199,39,498,
0,46,87,197,39,493,
0,46,87,224,39,548,
0,45,88,222,46,542,
0,45,87,220,46,536,
0,44,86,219,46,530,
0,44,86,216,45,526,
0,44,84,215,44,519,
0,43,83,212,44,514,
0,43,83,211,44,510,
0,43,83,210,44,504,
0,42,83,208,43,500,
0,42,81,207,43,495,
0,41,82,230,43,549,
0,41,86,231,44,543,
0,41,93,230,43,537,
0,40,92,227,43,532,
0,40,92,226,43,526,
0,39,91,224,42,521,
0,39,90,223,41,515,
0,39,89,221,41,510,
0,50,89,220,41,505,
0,49,88,217,40,500,
0,49,88,216,39,496,
0,49,87,215,39,527,
0,48,86,230,42,526,
0,48,98,227,43,521,
0,48,97,225,42,515,
0,47,96,224,41,511,
0,47,96,223,41,505,
0,46,95,220,41,499,
0,46,95,219,40,496,
0,48,94,217,40,490,
0,47,93,216,39,487,
0,47,92,214,39,481,
0,46,92,212,39,478,
0,46,92,231,42,520,
0,46,94,228,41,514,
0,45,94,227,41,510,
0,45,92,224,41,504,
0,44,92,223,40,499,
0,44,91,221,39,495,
0,44,91,220,39,489,
0,44,89,218,39,485,
0,43,89,216,39,480,
0,43,88,215,39,476,
0,42,88,214,39,472,
0,42,88,221,39,526,
0,41,88,220,39,520,
0,41,87,218,39,515,
0,41,87,216,39,510,
0,40,86,215,39,504,
0,40,85,212,39,500,
0,39,84,211,38,495,
0,41,83,209,38,489,
0,41,83,208,38,486,
0,40,83,207,37,480,
0,39,82,205,37,476,
0,39,81,212,36,542,
0,39,81,216,37,536,
0,39,80,215,36,530,
0,39,79,212,36,524,
0,39,79,211,36,519,
0,38,79,209,35,513,
0,38,79,207,35,508,
0,45,78,206,35,504,
0,45,78,204,35,498,
0,44,76,203,35,494,
0,44,76,201,34,489,
0,44,76,205,34,519,
0,43,77,219,35,539,
0,43,76,216,35,532,
0,43,76,216,34,527,
0,42,76,214,34,521,
0,41,75,211,33,517,
0,41,75,210,33,511,
0,41,74,208,33,505,
0,43,73,207,33,502,
0,43,72,205,33,496,
