=~=~=~=~=~=~=~=~=~=~=~= PuTTY log 2021.04.22 11:56:06 =~=~=~=~=~=~=~=~=~=~=~=
534,625,205,59,329,
0,34,619,204,58,326,
0,33,211,53,339,
0,3,,369,
0,54,598,225,69,364,
0,54,590,223,68,361,
0,52,583,222,67,359,
0,52,575,220,67,355,5,611,201,70,312,
0,55,604,227,69,369,
0,54,598,225,69,364,
0,54,590,223,68,361,
0,52,583,222,67,359,
0,52,575,220,67,355,
0,51,569,217,67,352,
0,51,612,216,70,348,
0,51,604,214,70,346,
0,51,596,213,69,343,
0,63,588,211,68,339,
0,63,583,20bbj
0,62,575,209,67,350,
0,62,568,208,67,347,
0,60StartUp!
123,115,617,205,51,371,
0,114,611,224,51,368,
0,113,606,222,51,367,
0,112,601,220,51,364,
0,112,596,220,51,361,
0,111,591,219,50,359,
0,110,585,217,50,355,
0,110,579,216,50,354,
0,110,633,215,50,352,
0,109,664,213,50,349,
0,108,654,211,49,345,
0,107,646,209,49,343,
0,108,637,207,49,339,
0,107,628,214,48,339,
0,107,620,213,48,336,
0,105,612,211,48,334,
0,105,604,209,47,331,
0,103,597,207,47,327,
0,103,590,206,48,325,
0,103,669,204,48,321,
0,102,662,203,48,319,
0,101,652,201,47,316,
0,105,643,199,47,313,
0,103,635,235,46,323,
0,103,627,233,46,319,
0,102,618,231,46,317,
0,101,611,230,45,314,
0,100,603,227,45,312,
0,99,595,225,48,309,
0,99,683,224,59,306,
0,99,671,222,58,304,
0,97,662,220,57,302,
0,111,655,220,57,301,
0,129,647,217,57,303,
0,127,638,230,56,348,
0,127,630,227,56,344,
0,126,622,225,56,341,
0,125,614,224,56,337,
0,124,608,222,55,335,
0,123,600,220,76,332,
0,121,659,217,75,327,
0,120,649,216,74,326,
0,124,639,215,73,323,
0,143,632,212,72,320,
0,141,624,245,71,359,
0,140,615,243,71,356,
1,139,608,241,71,353,
1,138,600,239,71,350,
1,136,592,237,70,346,
2,135,585,235,82,344,
3,135,664,233,81,339,
3,134,654,231,79,337,
3,132,647,229,79,334,
3,167,639,227,79,331,
3,166,631,262,78,369,
4,164,622,258,77,365,
4,163,614,255,77,363,
4,161,606,254,76,359,
5,159,599,252,76,355,
5,159,591,249,79,352,
5,158,681,248,83,349,
5,156,671,246,83,345,
5,155,662,243,82,343,
6,176,652,241,81,339,
6,174,644,240,80,376,
6,172,635,263,79,371,
6,171,627,262,79,368,
6,169,621,259,79,364,
6,167,612,257,78,360,
6,167,605,255,77,358,
6,166,675,252,83,354,
6,163,664,251,83,352,
5,163,655,248,82,348,
5,164,646,246,81,345,
6,163,637,244,81,344,
6,162,628,255,79,380,
5,161,620,252,79,376,
6,159,612,250,79,372,
5,158,605,248,78,369,
5,157,598,246,78,366,
5,156,676,244,82,361,
5,155,680,242,81,359,
5,153,671,240,80,355,
4,152,662,238,79,352,
5,152,652,236,79,348,
4,150,643,246,79,368,
5,149,635,243,78,364,
4,147,626,241,77,360,
4,147,619,240,76,358,
4,146,611,238,76,353,
4,145,603,236,81,351,
4,143,685,233,79,348,
4,143,675,231,79,344,
4,142,665,230,79,341,
4,141,656,228,78,338,
4,140,649,231,78,351,
4,139,641,230,76,348,
3,137,632,228,76,344,
3,136,624,226,76,341,
4,135,616,224,75,339,
3,135,608,223,78,335,
3,134,696,221,86,332,
3,133,686,220,85,329,
3,132,675,218,84,327,
3,131,667,216,83,324,
3,130,657,215,83,321,
3,129,648,236,82,319,
3,128,639,234,81,316,
3,127,632,231,80,313,
3,127,625,230,79,311,
3,126,617,228,79,308,
3,125,702,226,86,305,
3,124,691,224,84,303,
3,123,679,223,84,301,
3,122,671,220,83,299,
3,121,662,219,83,297,
3,120,653,230,82,344,
3,120,644,227,81,340,
3,119,636,225,81,337,
3,119,627,224,79,334,
3,118,620,222,79,331,
3,116,699,220,83,327,
3,116,687,219,82,324,
2,115,676,216,81,321,
3,114,670,215,81,319,
3,113,660,213,80,318,
2,113,652,248,79,382,
2,112,643,246,79,377,
2,111,635,243,78,375,
2,110,626,241,78,371,
2,110,618,240,77,368,
2,109,620,238,78,364,
2,108,708,236,76,359,
2,107,698,233,76,357,
2,107,688,231,76,354,
2,107,679,230,75,351,
1,107,670,236,74,396,
2,105,660,233,73,391,
1,105,654,231,73,387,
2,103,645,230,72,384,
1,103,636,227,71,380,
1,103,628,226,73,376,
1,102,647,224,76,374,
1,102,639,222,75,370,
1,100,631,221,74,367,
1,101,623,220,73,364,
1,100,615,217,73,361,
1,99,607,216,72,358,
1,99,601,215,71,354,
1,98,594,213,71,352,
1,97,587,212,71,349,
1,97,580,211,71,345,
1,96,617,209,74,343,
1,96,658,207,73,340,
1,95,648,206,73,337,
1,94,639,204,71,335,
1,107,632,203,71,332,
1,105,624,229,71,329,
1,104,615,227,71,327,
1,103,609,224,70,324,
1,103,601,223,70,321,
0,102,594,220,69,319,
1,102,587,219,70,316,
0,100,682,217,70,313,
0,99,671,216,69,312,
0,99,663,214,68,308,
0,155,654,212,68,306,
0,152,645,243,67,355,
0,151,638,240,67,352,
0,150,630,238,67,348,
0,148,622,236,66,344,
0,147,614,233,65,341,
1,145,606,231,67,339,
0,144,684,230,84,335,
0,143,673,227,83,332,
0,142,664,226,83,329,
0,142,655,224,81,327,
0,142,646,222,81,371,
0,141,638,240,80,366,
0,140,629,237,79,361,
0,139,621,235,79,359,
0,138,614,233,78,355,
0,137,608,231,78,352,
0,135,668,230,79,348,
0,135,681,227,78,345,
0,134,671,225,77,342,
0,134,662,224,77,339,
0,135,652,222,76,336,
0,135,644,220,76,368,
0,134,636,219,75,364,
0,132,627,217,74,360,
0,131,620,216,73,358,
0,131,611,214,73,354,
0,129,647,212,76,351,
0,128,689,211,75,348,
0,127,679,208,75,344,
0,127,671,207,74,341,
0,126,663,206,73,338,
0,125,654,228,73,351,
0,124,644,227,71,348,
0,123,636,224,71,345,
0,123,628,222,71,342,
0,121,620,220,71,339,
0,120,612,219,71,335,
0,120,737,217,71,332,
0,119,726,216,70,329,
0,118,716,214,69,327,
0,119,705,211,69,323,
0,118,696,236,68,368,
0,116,686,233,67,364,
0,116,676,231,67,359,
0,115,670,230,67,356,
0,115,660,227,67,353,
0,113,652,225,66,350,
0,112,705,224,71,347,
0,112,695,222,71,344,
0,111,684,220,71,341,
0,162,675,219,70,337,
0,161,665,217,70,376,
0,159,656,227,68,371,
0,158,647,225,68,367,
0,156,639,224,67,364,
0,155,632,222,67,359,
0,153,624,220,67,357,
0,152,696,218,67,353,
0,151,688,216,67,350,
0,150,679,214,66,347,
0,159,669,212,66,344,
0,166,659,211,65,341,
0,163,651,222,65,339,
0,162,643,220,64,335,
0,161,634,218,63,332,
0,159,626,216,63,329,
0,159,617,215,63,327,
0,158,652,213,64,323,
0,156,664,211,64,321,
0,155,654,209,63,319,
0,154,646,207,63,316,
0,161,636,206,63,313,
0,159,631,228,62,356,
0,158,622,225,62,353,
0,157,614,224,61,350,
0,156,606,222,61,346,
0,155,600,220,60,344,
0,153,591,218,67,341,
0,152,671,216,65,337,
0,151,662,215,65,335,
0,150,653,213,64,332,
0,149,643,211,63,327,
0,148,636,223,63,364,
0,147,627,223,63,359,
0,145,619,221,63,357,
0,144,611,219,62,353,
0,143,605,217,62,351,
0,142,598,216,61,348,
0,141,673,214,63,344,
0,140,664,211,63,340,
0,139,654,210,63,338,
0,138,646,208,62,335,
0,137,636,217,62,332,
0,135,628,224,61,329,
0,135,620,222,60,327,
0,135,611,220,60,323,
0,134,604,219,60,321,
0,132,596,216,59,318,
0,131,670,215,65,315,
0,131,659,213,64,312,
0,129,652,211,64,310,
0,128,643,209,63,307,
0,127,635,207,63,357,
0,127,627,240,63,376,
0,126,618,238,62,372,
0,125,610,236,62,368,
0,124,603,234,61,365,
0,123,595,232,60,361,
0,122,653,231,71,359,
0,121,671,229,70,355,
0,120,661,227,70,352,
0,120,652,225,68,348,
0,126,643,223,68,345,
0,125,635,223,67,342,
0,124,627,221,67,339,
0,123,620,219,67,335,
0,122,612,217,66,333,
0,121,604,216,65,329,
0,120,597,214,71,327,
0,119,671,212,70,325,
0,119,663,210,69,322,
0,118,653,209,68,319,
0,143,644,207,68,317,
0,141,636,227,67,353,
0,140,627,224,67,350,
0,139,620,222,66,346,
0,137,611,220,65,343,
0,135,604,217,65,339,
0,135,596,216,65,336,
0,134,670,214,70,334,
0,133,659,212,69,330,
0,131,651,211,69,327,
0,151,642,209,68,324,
0,149,633,233,67,339,
0,147,624,230,67,335,
0,147,616,228,66,333,
0,145,608,227,66,329,
0,144,601,225,65,327,
0,143,593,223,65,323,
0,142,672,221,67,320,
0,141,663,219,66,318,
0,140,653,217,65,316,
0,155,644,216,65,312,
0,156,638,214,64,311,
0,155,630,224,63,308,
0,153,621,221,63,305,
0,152,613,219,63,303,
0,151,605,217,63,301,
0,150,598,216,62,299,
0,148,614,214,63,295,
0,147,604,212,63,294,
0,147,596,211,63,291,
0,145,590,208,62,289,
0,145,582,207,62,287,
0,143,575,240,61,329,
0,143,568,238,60,326,
0,142,563,236,60,323,
0,140,558,233,60,319,
0,140,551,231,59,317,
0,138,545,230,63,314,
0,137,635,227,63,312,
0,135,625,226,62,309,
0,135,617,224,61,307,
0,135,609,222,61,304,
0,134,601,243,60,351,
0,132,593,240,60,348,
0,131,585,238,60,344,
0,131,579,236,59,340,
0,130,572,233,59,337,
0,129,566,231,63,335,
0,127,660,230,62,332,
0,127,653,228,62,327,
0,126,644,226,61,326,
0,129,635,224,60,323,
0,127,627,242,60,384,
0,127,619,240,60,381,
0,126,611,237,59,377,
0,125,603,235,59,374,
0,124,595,233,58,370,
0,123,588,231,57,366,
0,123,655,230,57,363,
0,121,647,227,57,359,
0,120,638,226,57,356,
0,120,629,224,56,353,
0,119,620,222,56,391,
0,118,612,254,56,385,
0,117,607,252,56,382,
0,116,599,249,55,378,
0,115,591,247,55,375,
0,115,583,244,55,371,
0,114,641,243,56,368,
0,113,646,240,56,364,
0,112,636,239,56,361,
0,112,627,238,55,358,
0,119,620,236,55,355,
0,118,611,233,54,352,
0,116,603,231,54,348,
0,115,595,230,53,345,
0,115,588,228,52,342,
0,113,581,227,52,339,
0,113,575,224,56,336,
0,112,572,223,55,333,
0,111,566,221,55,331,
0,110,560,220,54,327,
0,109,553,217,54,326,
0,109,547,246,53,371,
0,108,540,243,53,368,
0,108,535,241,52,364,
0,107,529,239,52,361,
0,105,524,237,51,358,
0,105,518,235,56,354,
0,103,523,233,56,351,
0,103,516,231,56,348,
0,103,511,230,55,344,
0,103,508,227,55,342,
0,102,502,255,54,380,
0,100,496,253,54,376,
0,100,492,251,54,372,
0,99,487,248,53,369,
0,99,482,247,52,366,
0,98,478,244,52,363,
0,97,557,243,54,359,
0,96,548,240,54,356,
0,96,542,239,53,353,
0,96,535,237,53,350,
0,95,529,236,52,352,
0,94,524,286,52,392,
0,94,517,284,51,388,
0,94,511,281,51,384,
0,92,507,279,51,380,
0,92,502,275,51,377,
0,91,496,274,51,375,
0,91,588,271,51,371,
0,90,582,269,50,368,
0,89,575,267,50,364,
0,89,568,265,49,361,
0,88,560,263,49,377,
0,88,555,262,49,374,
0,88,548,259,48,371,
0,87,542,258,48,367,
0,86,536,255,48,364,
0,86,531,254,48,359,
0,85,524,252,48,356,
0,84,586,250,48,355,
0,84,578,248,48,352,
0,83,571,246,47,348,
0,83,566,244,47,345,
0,83,559,243,47,359,
0,82,551,241,46,355,
0,81,545,239,46,352,
0,81,540,237,45,349,
0,80,534,236,45,347,
0,79,527,234,44,344,
0,79,572,231,49,340,
0,79,566,231,49,337,
0,78,559,229,48,335,
0,78,551,227,48,332,
0,79,545,226,48,329,
0,78,540,251,47,380,
0,77,534,248,47,377,
0,76,527,247,46,374,
0,76,521,244,46,370,
0,76,517,243,46,366,
0,75,511,240,46,364,
0,75,624,239,53,359,
0,74,615,237,52,356,
0,74,609,235,52,353,
0,76,601,233,51,352,
0,76,593,231,51,348,
0,76,585,240,51,364,
0,76,580,238,51,361,
0,75,573,236,50,358,
0,75,566,235,49,355,
0,74,560,233,49,352,
0,73,577StartUp!
124,300,658,299,135,489,
0,297,652,295,135,486,
0,295,646,295,135,482,
0,294,639,293,134,478,
0,292,657,291,133,475,
0,290,694,289,132,471,
0,287,686,287,131,467,
0,286,679,286,131,463,
0,284,671,284,129,460,
0,283,664,281,129,457,
0,286,655,280,177,524,
0,359,647,280,175,516,
0,354,638,276,174,510,
0,351,630,274,172,504,
0,348,622,271,171,498,
0,344,615,270,169,493,
0,341,659,268,167,487,
0,338,647,265,167,483,
0,335,639,263,165,478,
0,332,632,262,163,473,
0,355,623,281,183,531,
0,382,615,279,180,524,
0,376,607,275,179,519,
0,372,600,273,177,511,
0,369,591,271,176,505,
0,366,585,268,175,500,
0,363,622,265,173,496,
0,359,611,263,172,490,
0,355,604,262,170,486,
0,353,595,259,176,480,
0,376,591,300,184,547,
0,374,583,297,183,540,
0,368,577,294,181,533,
0,366,571,291,179,527,
0,361,563,288,179,521,
0,359,614,286,177,515,
0,355,621,284,176,510,
0,352,611,281,174,504,
0,349,603,279,172,499,
0,347,595,277,202,531,
0,367,588,330,199,550,
1,363,579,327,197,543,
2,359,572,323,195,536,
3,355,566,319,194,529,
3,352,560,316,192,524,
4,349,639,313,191,518,
4,345,630,312,189,512,
6,343,620,308,188,507,
6,339,611,306,185,502,
6,337,604,304,195,565,
7,358,595,334,193,557,
7,354,588,331,192,551,
7,350,580,327,190,542,
7,347,574,323,188,536,
7,344,567,321,187,531,
8,340,625,318,185,524,
8,337,616,315,184,519,
8,335,606,312,183,513,
8,332,599,310,181,508,
8,329,591,332,194,575,
9,355,583,336,192,568,
9,352,575,333,191,561,
9,348,569,329,189,553,
9,345,563,326,188,547,
9,342,556,323,187,541,
9,339,647,319,185,536,
9,335,638,318,184,529,
9,333,627,315,182,524,
9,330,619,312,180,519,
9,334,611,310,188,572,
9,343,603,307,185,564,
9,339,595,305,184,558,
9,335,588,302,183,550,
9,332,580,299,182,543,
9,330,630,297,180,537,
9,327,761,294,179,531,
9,324,750,291,177,526,
9,321,735,290,176,520,
9,319,724,287,175,515,
8,322,714,290,175,579,
8,319,704,287,174,572,
8,316,694,285,172,566,
7,312,684,281,172,558,
7,310,675,280,170,551,
8,308,709,278,169,545,
8,305,715,275,167,539,
7,303,704,273,167,533,
7,301,691,271,165,527,
7,299,682,270,167,561,
7,299,673,333,166,579,
7,296,664,329,164,572,
7,294,655,327,163,566,
7,291,647,323,162,558,
7,289,639,319,161,551,
7,287,690,317,159,545,
7,285,679,314,159,539,
7,283,670,312,158,534,
7,281,659,309,156,527,
7,280,650,307,156,570,
7,277,641,344,166,563,
7,275,633,340,164,556,
7,272,624,337,163,550,
7,271,617,333,161,543,
7,269,610,330,160,536,
7,267,667,327,159,530,
7,265,657,324,158,524,
7,263,647,321,157,519,
6,261,637,319,156,514,
6,259,629,338,176,563,
6,274,620,334,201,556,
6,271,612,331,199,550,
6,268,604,327,198,543,
6,266,598,324,196,536,
6,263,590,321,195,530,
6,262,647,318,193,524,
6,259,639,316,192,519,
5,257,630,313,190,513,
5,255,620,311,188,508,
6,275,611,366,204,545,
6,332,604,361,201,539,
5,328,596,358,199,532,
5,325,588,354,198,527,
5,322,582,350,196,519,
5,319,575,347,195,514,
5,316,643,344,193,508,
5,313,633,340,192,504,
4,311,624,337,191,498,
4,308,615,335,189,494,
5,306,608,332,209,547,
4,303,600,329,207,540,
4,300,591,327,205,533,
4,297,583,323,204,527,
4,295,577,319,201,519,
4,293,620,318,199,515,
4,290,676,315,199,509,
4,288,668,312,197,504,
4,286,655,310,195,499,
3,284,647,307,195,526,
3,312,639,359,221,547,
3,310,630,355,219,540,
3,307,622,352,216,534,
3,304,614,348,215,527,
3,300,606,344,213,520,
3,298,668,342,211,515,
3,295,657,338,209,510,
3,293,649,335,207,504,
3,291,638,332,207,499,
3,287,630,329,205,551,
3,316,621,356,220,543,
3,315,613,352,218,537,
3,312,606,349,216,531,
3,308,598,345,215,525,
3,305,590,342,212,518,
3,303,647,339,211,512,
3,300,638,335,209,507,
2,297,629,333,207,501,
2,295,619,330,206,496,
2,293,611,359,220,547,
2,340,603,359,230,540,
2,337,595,356,227,534,
2,334,588,353,225,527,
2,329,580,349,224,521,
2,327,574,345,222,515,
2,323,638,343,220,508,
2,321,628,339,217,504,
2,318,620,336,216,498,
2,316,610,334,215,494,
1,323,602,331,214,551,
2,348,594,327,211,543,
1,344,587,325,210,537,
2,342,579,322,208,531,
1,337,572,319,207,525,
1,335,566,316,206,518,
1,332,646,314,204,512,
1,328,636,312,203,507,
1,326,628,308,201,502,
1,323,617,307,199,496,
1,352,609,335,209,560,
1,348,601,332,207,553,
1,345,593,327,206,547,
1,342,587,326,204,540,
1,338,579,322,202,535,
1,335,630,319,201,527,
1,332,673,316,199,521,
1,329,664,313,198,515,
1,327,654,311,196,511,
1,323,643,308,195,518,
1,387,635,353,227,578,
1,381,627,350,225,571,
1,377,619,347,223,564,
1,374,611,344,222,558,
1,369,603,339,220,551,
1,366,666,336,217,543,
1,362,655,334,216,537,
1,359,647,331,215,531,
1,355,638,327,212,527,
1,353,628,325,227,591,
1,409,620,322,225,607,
1,404,611,319,223,599,
1,400,604,317,221,591,
0,396,596,314,219,585,
1,391,589,311,217,578,
0,388,649,308,216,569,
1,385,639,305,214,563,
1,381,631,303,212,558,
1,377,623,301,211,551,
0,375,613,307,238,594,
0,409,604,350,235,586,
0,404,597,345,232,579,
0,400,590,343,231,572,
0,396,582,339,228,566,
0,391,575,335,227,560,
0,388,639,332,225,551,
0,384,632,329,224,545,
0,381,623,327,222,540,
0,377,615,324,220,535,
0,375,606,374,224,593,
0,371,597,371,222,585,
0,368,589,368,220,579,
0,365,582,364,218,572,
0,361,575,360,216,566,
0,358,568,356,215,557,
0,355,625,353,213,551,
0,352,616,350,211,545,
0,349,608,347,210,539,
0,347,600,344,208,534,
0,364,591,341,207,586,
0,359,583,338,205,579,
0,356,575,335,204,572,
0,353,568,332,202,565,
0,350,563,329,200,559,
0,347,580,327,199,551,
0,344,635,323,198,544,
0,340,625,321,196,539,
0,337,617,318,195,533,
0,335,609,316,193,533,
0,332,600,332,194,572,
0,329,591,327,192,566,
0,327,583,325,191,559,
0,324,577,322,190,552,
0,322,569,319,188,547,
0,319,638,316,187,539,
0,316,628,313,185,533,
0,314,620,311,184,527,
0,312,611,308,184,521,
0,310,604,306,233,585,
0,408,593,351,268,596,
0,403,587,348,264,590,
0,399,579,344,263,583,
0,396,572,340,260,575,
0,391,565,337,258,569,
0,387,559,334,255,561,
0,384,551,331,254,555,
0,380,546,327,252,548,
0,377,540,326,251,543,
0,398,536,338,360,614,
0,473,527,373,354,605,
0,467,521,369,350,598,
0,463,516,366,347,591,
0,458,511,362,344,583,
0,454,505,359,341,577,
0,448,502,355,338,569,
0,444,496,352,335,563,
0,440,492,348,332,556,
0,435,487,345,329,551,
0,448,483,385,354,623,
0,496,476,380,350,614,
0,489,472,376,346,607,
0,484,467,371,343,600,
0,480,463,368,340,592,
0,475,459,365,337,585,
0,468,491,360,334,577,
0,463,485,358,332,571,
0,460,480,355,328,564,
0,455,474,352,326,559,
0,481,470,380,329,621,
0,481,462,376,326,613,
0,476,457,372,323,606,
0,472,453,368,319,598,
0,466,449,365,318,591,
0,460,446,361,316,583,
0,455,441,358,312,575,
0,451,438,355,311,569,
0,447,434,352,307,563,
0,443,431,348,310,568,
0,498,427,409,335,638,
0,492,423,403,332,629,
0,486,419,399,328,622,
0,480,415,396,326,614,
0,476,412,391,323,607,
0,470,448,388,319,600,
0,465,442,384,318,591,
0,460,438,380,315,583,
0,455,432,377,312,577,
0,451,428,374,321,622,
0,487,423,380,323,635,
0,481,418,376,319,627,
0,476,414,372,318,619,
0,471,409,369,315,611,
0,465,406,366,312,604,
0,460,449,363,310,597,
0,455,444,359,307,588,
0,451,440,355,304,582,
0,447,435,353,303,575,
0,443,430,350,308,632,
0,448,425,384,305,624,
0,443,419,380,302,615,
0,439,415,376,300,608,
0,435,412,371,297,600,
0,431,408,368,295,594,
0,425,435,365,293,587,
0,422,430,361,291,579,
0,418,425,358,288,572,
0,415,420,355,287,567,
0,439,417,358,343,620,
0,486,412,354,339,611,
0,480,407,352,335,604,
0,475,403,348,332,596,
0,470,399,345,329,590,
0,465,396,343,326,583,
0,460,462,339,323,575,
0,455,455,335,321,568,
0,450,451,333,318,561,
0,446,446,331,316,556,
0,497,441,363,345,613,
0,500,435,359,342,606,
0,494,431,355,337,598,
0,489,425,352,335,591,
0,484,422,348,332,583,
0,479,465,345,329,577,
0,472,491,342,327,571,
0,468,484,338,323,563,
0,463,479,335,321,556,
0,460,474,333,387,554,
0,569,468,330,411,624,
0,560,462,327,407,615,
0,553,457,324,401,608,
0,547,452,321,398,600,
0,541,448,319,394,593,
0,536,465,317,391,587,
0,527,460,315,387,579,
0,523,455,312,384,572,
0,517,449,309,380,566,
0,512,445,323,436,620,
0,625,440,399,432,632,
0,615,434,395,428,624,
0,608,430,391,423,615,
0,601,425,387,419,609,
0,593,422,384,415,601,
0,587,455,380,411,595,
0,579,449,376,408,588,
0,572,444,372,403,579,
0,566,440,369,400,573,
0,572,435,366,463,654,
0,679,430,401,455,644,
0,668,423,397,451,636,
0,660,419,393,446,627,
0,652,415,390,441,620,
0,643,412,386,437,612,
0,636,408,382,432,606,
0,627,403,377,429,598,
0,620,399,375,425,590,
0,612,396,371,422,583,
0,641,393,399,460,649,
0,695,390,393,455,639,
0,686,385,390,450,632,
0,676,383,385,444,624,
0,668,380,382,440,616,
0,659,383,379,436,609,
0,651,452,375,432,602,
0,641,447,370,428,595,
0,634,442,368,423,587,
0,627,438,364,431,580,
0,688,433,443,468,646,
0,684,428,436,463,637,
0,675,422,432,459,629,
0,665,417,427,452,622,
0,657,414,423,448,614,
0,649,451,419,444,607,
0,641,455,415,440,600,
0,632,451,410,435,592,
0,624,446,406,432,583,
0,617,441,403,457,578,
0,769,436,422,460,647,
0,755,432,417,455,638,
0,745,425,413,451,630,
0,735,422,409,445,622,
0,724,417,406,440,615,
0,716,462,401,436,607,
0,705,455,398,432,600,
0,695,451,393,428,593,
0,686,446,390,425,584,
0,679,441,387,459,628,
0,771,436,425,461,647,
0,759,432,420,455,638,
0,748,426,415,451,630,
0,737,422,412,446,622,
0,728,417,408,441,615,
0,718,475,404,438,608,
0,708,468,400,433,600,
0,697,463,396,430,593,
0,688,458,391,425,584,
0,680,453,388,427,650,
0,736,448,430,422,639,
0,725,443,425,418,632,
0,716,438,422,414,624,
0,705,432,417,410,617,
0,696,428,414,407,609,
0,688,478,409,403,602,
0,679,472,406,399,595,
0,668,467,400,396,588,
0,661,462,397,393,580,
0,654,456,399,396,644,
0,697,451,396,391,636,
0,688,447,391,388,627,
0,679,440,388,384,620,
0,670,435,385,382,612,
0,662,432,382,379,605,
0,654,545,378,376,598,
0,646,538,376,372,591,
0,637,531,371,369,583,
0,630,526,368,367,576,
0,684,519,415,438,632,
0,698,513,411,433,624,
0,688,507,408,429,615,
0,679,500,403,423,608,
0,671,494,399,419,601,
0,663,520,396,415,595,
0,654,591,391,412,588,
0,646,583,387,408,580,
0,636,575,384,404,572,
0,630,568,380,401,568,
0,679,561,376,423,623,
0,670,555,374,419,615,
0,660,548,370,415,608,
0,652,540,367,409,600,
0,644,534,364,406,593,
0,636,636,360,402,586,
0,628,652,358,399,579,
0,621,643,355,395,572,
0,612,635,352,391,565,
0,607,627,348,391,604,
0,647,618,374,409,622,
0,638,610,370,406,613,
0,630,603,366,401,606,
0,622,593,363,397,599,
0,614,586,359,393,591,
0,607,633,356,390,584,
0,600,624,353,387,578,
0,593,615,350,384,572,
0,585,608,346,380,563,
0,579,600,344,408,617,
0,617,593,371,403,609,
0,609,585,368,399,601,
0,602,578,364,396,594,
0,595,569,361,391,587,
0,588,563,358,387,580,
0,582,596,355,384,574,
0,575,588,351,381,567,
0,569,581,348,377,560,
0,561,574,344,375,553,
0,556,568,363,414,622,
0,599,560,366,408,614,
0,591,553,362,404,606,
0,583,547,359,401,599,
0,577,540,355,396,591,
0,571,534,352,392,585,
0,563,583,348,390,578,
0,558,575,345,386,571,
0,551,568,343,383,565,
0,545,561,339,380,557,
0,550,555,374,406,630,
0,568,547,369,401,621,
0,561,540,366,397,614,
0,555,535,362,393,606,
0,548,527,359,389,599,
0,542,560,355,385,591,
0,536,604,352,382,584,
0,531,596,349,379,578,
0,525,588,345,376,572,
0,519,581,343,372,564,
0,585,575,441,417,628,
0,575,567,436,413,620,
0,569,560,432,409,612,
0,563,553,428,405,605,
0,556,545,423,400,598,
0,550,631,419,397,591,
0,543,621,415,393,583,
0,537,612,412,390,577,
0,531,604,408,386,571,
0,525,598,403,384,598,
0,568,590,399,387,630,
0,561,582,396,383,622,
0,555,575,391,380,614,
0,547,568,388,376,606,
0,542,560,385,372,599,
0,536,553,382,369,591,
0,529,547,379,366,585,
0,524,540,376,364,578,
0,517,535,371,360,572,
0,512,528,368,371,620,
0,522,523,415,368,610,
0,515,517,412,364,603,
0,510,511,408,361,595,
0,505,505,403,358,588,
0,500,499,399,355,582,
0,496,583,396,352,575,
0,492,575,391,349,568,
0,487,568,388,347,562,
0,481,561,385,344,556,
0,478,555,382,376,608,
0,524,547,379,371,600,
0,518,541,376,368,591,
0,512,535,371,365,585,
0,507,528,368,361,579,
0,501,521,366,358,572,
0,496,601,362,355,565,
0,491,593,359,352,559,
0,486,585,356,348,551,
0,480,577,353,345,547,
0,476,572,412,344,586,
0,471,563,408,340,579,
0,467,557,403,338,572,
0,463,550,399,335,566,
0,459,542,396,333,559,
0,455,616,391,330,552,
0,451,716,388,327,546,
0,448,704,385,325,540,
0,443,694,381,323,535,
0,439,684,377,320,529,
0,488,675,374,359,585,
0,482,666,370,355,578,
0,476,657,367,352,572,
0,472,649,364,349,564,
0,467,639,359,346,558,
0,462,631,358,343,551,
0,457,623,355,339,545,
0,452,615,352,337,540,
0,448,608,348,334,534,
0,443,600,345,332,528,
0,492,593,369,348,578,
0,486,585,366,344,571,
0,480,579,363,340,564,
0,476,572,359,338,558,
0,471,564,355,335,551,
0,465,594,352,332,545,
0,460,586,350,328,539,
0,455,579,347,326,533,
0,451,572,344,323,527,
0,446,564,340,331,524,
0,484,558,366,327,568,
0,479,551,362,325,561,
0,473,545,359,322,554,
0,468,540,355,319,547,
0,463,532,352,317,542,
0,459,615,349,315,536,
0,454,607,345,312,529,
0,449,599,343,310,524,
0,445,591,339,307,519,
0,443,583,359,393,576,
0,536,575,384,388,577,
0,528,569,380,384,571,
0,523,563,377,381,564,
0,516,556,374,377,558,
0,511,547,370,375,551,
0,505,542,366,370,545,
0,500,536,363,367,539,
0,495,530,359,364,533,
0,490,524,356,360,527,
0,534,519,379,425,611,
0,579,513,375,420,600,
0,572,508,371,415,592,
0,564,503,368,412,585,
0,558,498,364,408,579,
0,551,525,361,404,572,
0,545,595,358,399,566,
0,540,588,354,396,559,
0,534,580,352,392,552,
0,527,573,348,390,547,
0,574,567,384,398,621,
0,567,559,380,394,611,
0,560,551,376,391,603,
0,553,545,372,387,595,
0,547,539,369,384,589,
0,541,609,366,380,582,
0,535,613,362,376,575,
0,529,605,359,373,568,
0,524,598,355,370,562,
0,518,590,352,368,556,
0,605,583,386,413,627,
0,596,575,382,409,617,
0,588,568,379,404,609,
0,582,561,375,401,602,
0,575,555,371,398,595,
0,568,620,368,393,588,
0,561,611,364,390,581,
0,556,603,361,386,575,
0,550,595,358,383,568,
0,543,588,355,387,563,
0,630,580,389,400,616,
0,622,573,385,396,607,
0,614,566,381,393,600,
0,606,560,377,390,592,
0,599,553,374,386,585,
0,591,585,371,382,579,
0,585,577,367,379,572,
0,579,571,364,376,566,
0,572,563,359,372,560,
0,566,556,358,374,610,
0,635,550,364,369,633,
0,626,543,361,367,623,
0,618,537,358,364,615,
0,610,531,355,360,608,
0,603,525,352,358,600,
0,596,625,348,354,593,
0,589,616,345,352,587,
0,583,608,342,348,579,
0,575,600,339,346,574,
0,569,593,337,344,615,
0,639,585,358,341,608,
0,632,578,354,339,599,
0,624,571,351,335,591,
0,616,564,348,334,584,
0,609,558,344,331,577,
0,601,641,341,327,571,
0,595,632,338,326,564,
0,588,624,335,323,558,
0,582,615,332,320,552,
0,575,608,355,344,609,
0,654,600,350,340,600,
0,645,592,347,337,591,
0,636,585,344,334,584,
0,628,578,340,331,578,
0,621,572,337,327,572,
0,614,659,334,324,565,
0,607,649,332,322,559,
0,600,639,328,319,552,
0,593,632,326,317,547,
0,610,624,359,332,599,
0,646,615,354,329,589,
0,638,608,351,326,582,
0,630,600,348,323,575,
0,623,593,344,321,568,
0,615,633,341,318,562,
0,608,655,338,315,556,
0,600,647,335,312,550,
0,593,638,332,310,543,
0,587,630,329,308,538,
0,632,621,349,305,584,
0,621,613,344,304,575,
0,613,605,342,302,568,
0,606,598,338,300,562,
0,599,591,335,297,556,
0,591,664,332,295,550,
0,584,652,329,293,543,
0,578,643,327,291,537,
0,572,633,323,289,531,
0,566,625,321,310,560,
0,633,617,348,305,583,
0,622,609,344,303,575,
0,615,601,340,300,568,
0,607,594,337,298,561,
0,600,587,334,295,555,
0,592,657,332,293,548,
0,585,646,327,290,542,
0,579,637,326,287,536,
0,572,628,323,286,531,
0,567,620,319,284,569,
0,584,612,337,282,561,
0,575,604,333,280,553,
0,569,597,329,279,547,
0,563,590,327,276,540,
0,556,583,324,275,535,
0,551,674,321,272,528,
0,545,662,319,271,523,
0,539,652,316,269,518,
0,534,643,313,268,512,
0,528,636,322,284,579,
0,587,627,326,281,572,
0,579,619,322,280,563,
0,572,611,319,276,557,
0,566,604,316,274,551,
0,559,595,313,272,543,
0,553,643,311,270,538,
0,547,632,308,267,531,
0,541,623,306,265,526,
0,536,615,304,263,521,
0,529,608,320,263,573,
0,543,600,317,260,566,
0,536,591,313,259,558,
0,531,584,311,257,551,
0,525,577,307,255,543,
0,519,574,305,254,539,
0,515,608,303,252,532,
0,510,598,300,251,527,
0,504,590,298,248,521,
0,499,583,295,248,515,
0,495,575,334,246,510,
0,489,568,331,244,505,
0,484,561,327,243,499,
0,480,555,323,241,494,
0,476,549,321,240,489,
0,472,633,318,238,485,
0,467,634,315,236,480,
0,463,623,312,235,476,
0,459,615,310,233,472,
0,455,607,307,231,467,
0,451,599,304,231,463,
0,446,591,302,229,459,
0,441,583,299,227,454,
0,438,577,295,226,449,
0,434,571,294,225,446,
0,430,659,291,224,441,
0,427,649,289,222,438,
0,423,639,287,220,434,
0,419,630,286,220,431,
0,416,622,284,217,427,
0,413,614,281,216,423,
0,409,606,280,216,419,
0,406,599,276,214,415,
0,403,591,275,212,412,
0,399,583,273,211,408,
0,396,652,271,210,404,
0,393,641,269,209,401,
0,391,632,268,207,398,
0,387,624,265,206,396,
0,385,615,271,205,437,
0,382,608,274,204,432,
0,378,600,271,203,428,
0,376,592,269,201,422,
0,372,585,267,199,418,
0,369,578,263,199,414,
0,367,572,263,198,409,
0,364,563,260,196,406,
0,361,556,259,195,402,
0,409,551,257,363,530,
0,628,545,385,445,679,
0,740,538,379,440,669,
0,726,532,375,435,660,
0,716,527,370,431,649,
0,707,520,367,427,641,
0,697,515,363,423,633,
0,688,510,359,418,626,
0,679,504,356,415,619,
0,671,498,353,471,612,
0,803,494,351,659,824,
0,903,487,456,700,880,
0,911,483,451,689,864,
0,915,479,446,680,851,
0,915,473,440,671,834,
0,896,470,435,664,822,
0,878,465,432,655,809,
0,864,460,427,647,798,
0,851,455,423,639,786,
0,839,451,419,738,776,
0,902,447,415,896,891,
0,911,443,471,897,905,
0,915,439,465,880,903,
0,919,434,459,866,883,
0,920,431,454,853,865,
0,920,427,449,839,852,
0,908,443,445,828,839,
0,882,438,440,816,827,
0,868,432,436,805,815,
0,856,428,432,890,803,
0,905,423,430,908,899,
0,911,419,487,913,908,
0,916,415,481,916,911,
0,920,412,476,918,906,
0,921,408,471,910,880,
0,920,404,466,886,865,
0,907,492,461,871,852,
0,881,486,456,859,839,
0,867,479,452,846,827,
0,855,473,448,897,822,
0,905,468,561,909,903,
0,911,463,577,914,910,
0,916,457,569,918,913,
0,920,453,561,919,909,
0,921,448,555,913,882,
0,920,444,550,888,867,
0,899,523,543,874,854,
0,879,516,539,863,844,
0,867,510,533,851,831,
0,875,504,527,897,830,
0,908,499,573,909,903,
0,912,492,566,915,909,
0,916,487,559,917,909,
0,920,481,551,916,890,
0,921,476,544,904,870,
0,919,519,539,881,856,
0,894,536,533,868,844,
0,877,528,527,856,831,
0,864,520,522,840,819,
0,889,515,517,896,847,
0,908,508,556,909,903,
0,913,503,548,913,907,
0,917,497,542,915,892,
0,920,492,535,904,875,
0,921,486,529,883,858,
0,917,567,524,869,844,
0,888,558,518,856,831,
1,875,551,512,844,819,
1,861,543,508,829,808,
1,896,536,503,897,878,
1,909,529,550,909,903,
1,914,523,543,911,900,
1,918,518,537,903,881,
1,920,511,529,882,867,
2,920,505,524,868,850,
1,911,579,519,856,836,
1,884,572,513,843,824,
2,871,564,508,831,812,
2,857,556,503,817,801,
2,897,550,499,896,883,
2,909,543,519,897,892,
2,914,536,514,880,876,
3,918,529,508,866,861,
3,920,524,502,852,845,
2,920,518,496,840,831,
2,904,592,492,828,819,
3,880,584,487,816,807,
3,867,577,483,805,796,
3,854,568,478,792,785,
3,902,561,473,876,878,
3,910,554,476,861,863,
3,915,547,472,847,849,
3,918,541,467,835,835,
3,920,535,462,823,819,
3,918,529,458,811,807,
3,894,588,454,799,796,
3,877,579,450,788,783,
3,863,572,446,778,774,
3,851,563,441,767,764,
3,903,557,481,809,819,
3,911,550,476,797,806,
3,915,543,471,785,794,
3,919,537,465,775,782,
3,920,531,460,764,768,
3,913,563,455,755,758,
3,886,585,450,745,748,
3,871,578,446,736,738,
3,858,571,441,728,729,
3,846,562,438,716,719,
3,905,556,449,721,782,
3,911,548,444,711,770,
3,915,542,440,704,760,
3,919,536,435,696,748,
3,919,529,431,688,736,
3,905,583,428,679,726,
3,881,575,423,671,716,
3,867,568,419,664,707,
3,854,560,416,657,699,
3,843,551,414,672,691,
3,905,545,409,679,745,
3,912,539,406,671,735,
3,916,532,403,663,724,
3,919,527,399,654,714,
3,916,520,396,647,703,
3,891,590,392,639,694,
3,876,582,390,633,684,
3,862,574,387,627,676,
2,849,568,384,620,669,
3,876,559,380,613,729,
3,907,551,404,606,722,
3,913,545,400,600,711,
2,916,539,396,594,702,
2,918,532,392,588,692,
2,902,527,388,583,681,
2,880,556,384,577,672,
2,866,548,380,572,664,
2,853,542,377,566,656,
2,840,536,375,561,649,
2,894,528,383,718,775,
2,908,521,424,707,763,
2,913,515,420,697,752,
2,917,510,415,689,741,
2,918,504,412,679,731,
2,903,499,408,671,719,
2,880,566,403,663,708,
2,866,559,399,655,699,
2,853,551,395,647,690,
2,840,545,391,639,681,
1,893,537,435,736,783,
2,908,531,429,724,771,
1,914,524,424,715,760,
1,916,519,420,705,749,
1,906,513,415,696,739,
1,883,536,411,688,726,
1,868,564,408,679,716,
1,856,557,403,671,707,
1,843,550,399,664,697,
1,830,543,396,655,689,
1,895,536,429,696,776,
1,909,529,423,687,765,
1,913,523,419,678,753,
1,910,517,415,670,743,
1,883,511,412,661,733,
0,870,575,407,653,720,
0,856,567,403,645,711,
0,843,560,399,638,702,
0,830,552,395,632,692,
0,819,546,391,671,731,
1,903,537,435,764,809,
0,911,531,430,753,797,
0,915,525,425,743,785,
0,915,519,422,733,774,
0,892,513,417,723,763,
0,876,551,412,714,750,
0,862,545,408,704,739,
0,848,538,404,696,729,
0,836,531,400,688,719,
0,846,526,397,772,796,
0,905,518,429,800,807,
0,912,512,423,788,795,
0,916,505,420,777,783,
0,915,500,415,768,771,
0,891,496,412,756,761,
0,876,564,407,747,748,
0,862,557,403,736,737,
0,849,550,399,728,728,
0,835,543,396,718,718,
0,889,536,392,847,827,
0,908,529,435,829,813,
0,913,523,431,816,800,
0,917,516,427,804,788,
0,916,511,423,793,777,
0,889,504,418,783,767,
0,875,536,413,771,753,
0,862,529,409,761,743,
0,848,523,406,751,732,
0,835,517,401,742,723,
0,896,510,438,841,822,
0,909,504,432,824,808,
0,914,498,428,812,796,
0,916,492,423,799,784,
0,913,487,419,788,774,
0,885,499,415,777,763,
0,871,521,411,768,750,
0,856,515,407,757,739,
0,844,509,403,747,729,
0,831,504,399,738,723,
0,899,496,448,802,852,
0,910,490,443,787,838,
0,915,485,438,775,825,
0,915,480,433,765,812,
0,902,475,430,755,801,
0,878,534,425,744,789,
0,864,526,420,735,775,
0,850,519,415,726,764,
0,838,513,412,717,754,
0,825,508,408,743,743,
0,903,499,432,830,807,
0,911,494,428,814,796,
0,915,488,423,802,783,
0,916,483,419,791,772,
0,903,478,415,780,761,
0,877,539,410,769,750,
0,864,531,407,759,738,
0,850,525,403,748,728,
0,838,519,399,739,719,
0,826,513,396,771,776,
0,904,505,441,801,792,
0,911,499,437,787,781,
0,915,494,432,775,769,
0,911,489,428,765,759,
0,888,483,423,755,748,
0,870,558,419,744,737,
0,856,551,415,735,724,
0,844,543,411,726,716,
0,831,536,408,716,706,
0,864,531,403,799,790,
0,907,523,399,787,777,
0,913,516,396,772,766,
0,914,510,391,761,755,
0,904,504,388,752,743,
0,882,499,385,742,734,
0,865,558,381,732,723,
0,851,551,377,722,711,
0,839,543,375,712,702,
0,826,536,371,704,694,
0,888,531,401,782,787,
0,908,523,408,769,775,
0,913,516,404,756,764,
0,913,511,400,745,752,
0,894,505,396,736,743,
0,877,521,393,726,732,
0,860,583,388,716,722,
0,847,575,384,707,710,
0,833,568,381,698,700,
0,822,561,377,690,692,
0,896,555,428,776,771,
0,909,545,423,762,760,
0,913,540,419,752,748,
0,910,533,414,741,738,
0,887,527,410,732,728,
0,872,591,407,721,718,
0,856,587,401,711,708,
0,843,579,398,704,696,
0,830,572,393,695,688,
0,817,565,391,687,679,
0,900,559,431,747,756,
0,910,550,425,733,745,
0,913,543,422,723,735,
0,902,536,417,713,724,
0,881,531,413,704,715,
0,867,596,408,696,705,
0,851,588,404,687,696,
0,838,580,399,679,684,
0,825,573,396,671,676,
0,813,566,393,679,739,
0,902,559,435,719,768,
0,910,551,430,707,755,
0,909,543,425,698,745,
0,888,537,421,689,735,
0,873,531,417,679,724,
0,860,585,412,671,715,
0,843,577,408,664,703,
0,830,571,403,655,694,
0,818,563,399,648,685,
0,824,556,396,729,759,
0,904,550,433,718,746,
0,911,542,428,705,736,
0,905,536,423,696,724,
0,883,529,419,688,715,
0,870,523,415,679,705,
0,856,588,412,670,696,
0,839,580,407,662,684,
0,827,574,403,654,675,
0,815,566,399,647,668,
0,863,560,408,707,734,
0,906,552,415,696,723,
0,909,543,411,685,712,
0,893,537,407,676,703,
0,876,531,403,668,694,
0,863,527,399,659,684,
0,849,577,396,651,675,
0,833,569,391,643,664,
0,820,563,387,636,656,
0,809,556,384,630,649,
0,876,549,423,676,733,
0,903,542,419,667,722,
0,888,534,415,655,711,
0,873,527,411,647,702,
0,860,522,407,639,692,
0,846,580,403,632,684,
0,833,639,398,625,675,
0,817,630,393,618,664,
0,806,622,391,611,655,
0,795,614,387,606,647,
0,883,606,457,628,707,
0,879,598,452,620,696,
0,864,589,448,611,688,
0,851,582,443,604,678,
0,838,575,438,598,669,
0,825,649,433,591,660,
0,812,639,430,585,652,
0,798,632,423,579,643,
0,786,623,420,574,635,
0,776,615,416,568,650,
0,847,607,412,563,683,
0,831,600,408,557,673,
0,819,590,405,551,664,
0,807,583,401,545,655,
0,795,575,398,540,647,
0,783,632,394,536,639,
0,772,623,391,531,632,
0,760,615,386,526,622,
0,750,607,384,521,615,
0,740,600,380,524,665,
0,827,591,385,521,655,
0,814,583,382,516,647,
0,801,575,377,510,639,
0,789,568,375,505,631,
0,777,561,371,502,623,
0,768,619,368,497,615,
0,753,610,365,493,608,
0,743,602,361,488,600,
0,733,595,359,485,594,
0,724,587,364,483,653,
0,798,579,375,479,643,
0,785,572,371,475,635,
0,774,564,368,470,627,
0,762,558,364,465,620,
0,752,575,361,462,611,
0,742,686,358,458,604,
0,728,675,355,455,597,
0,719,666,352,451,588,
0,710,657,348,448,583,
0,702,648,345,444,623,
0,714,639,344,440,615,
0,704,632,340,437,607,
0,696,622,338,433,599,
0,687,614,335,430,591,
0,679,636,333,427,584,
0,671,627,331,423,578,
0,661,619,327,419,572,
0,654,611,324,416,564,
0,647,603,323,414,560,
0,732,596,366,449,637,
0,733,588,361,444,628,
0,723,579,358,440,620,
0,712,573,355,434,612,
0,703,567,352,430,605,
0,694,579,348,425,598,
0,684,571,345,422,591,
0,673,564,342,418,583,
0,664,558,338,415,575,
0,657,551,335,432,603,
0,797,545,398,497,649,
0,783,539,393,492,639,
0,771,533,390,487,632,
0,760,526,385,480,624,
0,750,519,382,476,616,
0,739,585,378,471,609,
0,729,577,375,465,601,
0,717,571,371,461,595,
0,708,563,367,456,586,
0,700,557,364,552,678,
0,854,550,406,568,668,
0,839,543,401,560,658,
0,825,536,397,555,649,
0,813,529,393,547,641,
0,801,523,390,541,633,
0,790,647,385,535,625,
0,779,636,382,529,617,
0,764,628,379,524,610,
0,754,620,375,519,601,
0,775,612,380,611,683,
0,876,604,403,600,671,
0,862,596,399,593,664,
0,847,587,395,587,654,
0,835,579,391,578,646,
0,822,573,387,572,638,
0,810,614,384,565,630,
0,798,606,380,560,622,
0,783,598,376,553,615,
0,774,591,372,547,606,
0,814,583,417,595,689,
0,864,575,412,588,679,
0,849,568,408,581,670,
0,836,560,403,575,662,
0,824,554,399,567,653,
0,811,593,396,560,644,
0,799,599,391,554,636,
0,787,591,388,548,628,
0,774,583,385,542,621,
0,763,575,381,537,612,
0,852,569,384,587,677,
0,852,561,380,579,668,
0,839,555,376,572,659,
0,825,547,372,566,650,
0,813,540,369,558,642,
0,801,603,366,551,634,
0,790,594,363,546,626,
0,779,587,359,540,619,
0,765,579,355,535,611,
0,755,572,353,529,617,
0,845,565,380,556,668,
0,830,558,376,551,659,
0,817,551,371,544,651,
0,806,543,368,539,642,
0,793,536,364,531,633,
0,782,588,361,526,627,
0,771,579,358,519,619,
0,760,572,355,515,611,
0,747,565,351,510,604,
0,737,558,348,521,665,
0,833,551,384,540,660,
0,819,544,380,534,652,
0,807,538,376,527,643,
0,796,530,373,521,635,
0,783,524,369,515,627,
0,772,581,366,510,620,
0,761,573,363,504,612,
0,751,566,359,499,605,
0,738,559,355,495,598,
0,729,551,353,543,667,
0,825,545,355,536,655,
0,813,539,352,529,647,
0,800,532,348,524,639,
0,788,525,345,518,632,
0,777,519,343,511,624,
0,766,561,340,505,615,
0,755,553,337,500,608,
0,745,547,334,496,601,
0,732,540,331,491,594,
0,735,534,386,526,657,
0,807,527,393,519,647,
0,795,521,390,513,639,
0,783,515,385,508,632,
0,771,508,382,501,623,
0,760,539,378,496,615,
0,750,547,375,491,608,
0,739,541,371,486,600,
0,729,534,368,481,593,
0,718,527,364,478,587,
0,792,523,423,534,675,
0,806,515,417,527,665,
0,793,510,413,521,656,
0,782,504,409,515,647,
0,771,497,405,508,639,
0,760,568,401,504,632,
0,749,559,397,498,624,
0,739,551,393,493,615,
0,728,545,390,487,609,
0,717,539,385,483,601,
0,782,532,387,503,651,
0,769,526,383,497,642,
0,758,519,380,492,634,
0,747,513,376,487,626,
0,736,506,372,480,618,
0,727,586,369,476,611,
0,716,577,366,472,603,
0,707,570,363,467,596,
0,698,563,359,463,589,
0,688,556,356,459,583,
0,746,550,354,458,631,
0,735,543,351,454,623,
0,724,536,348,449,615,
0,714,529,345,446,607,
0,704,523,342,441,600,
0,696,605,339,438,592,
0,686,596,336,433,585,
0,678,588,334,430,579,
0,670,580,331,427,572,
0,659,574,327,454,628,
0,731,567,359,448,619,
0,719,560,355,444,611,
0,710,553,352,439,603,
0,700,547,348,434,596,
0,691,539,345,430,588,
0,681,605,342,425,582,
0,672,596,339,422,575,
0,664,589,335,418,568,
0,655,582,333,415,562,
0,662,575,369,473,639,
0,746,568,364,467,632,
0,736,560,360,463,624,
0,725,553,357,457,615,
0,715,547,354,453,608,
0,705,569,351,448,600,
0,696,614,348,443,593,
0,687,606,344,439,586,
0,678,598,341,435,579,
0,669,590,338,431,573,
0,728,583,385,475,636,
0,752,575,380,469,627,
0,741,568,376,463,619,
0,731,561,373,460,611,
0,720,555,369,455,604,
0,711,623,366,449,596,
0,701,613,363,444,590,
0,691,604,359,440,582,
0,683,596,355,435,575,
0,674,590,353,432,569,
0,758,582,349,460,624,
0,744,575,345,455,615,
0,734,568,343,451,607,
0,724,561,339,447,600,
0,714,554,337,441,591,
0,704,630,334,436,585,
0,696,620,331,432,578,
0,686,612,327,428,572,
0,677,604,326,423,565,
0,668,596,323,423,560,
0,733,589,319,444,609,
0,722,582,317,440,601,
0,711,575,315,435,595,
0,702,568,312,431,588,
0,692,561,311,426,580,
0,684,622,308,421,573,
0,675,612,306,417,567,
0,666,605,304,414,560,
0,658,596,302,410,554,
0,647,590,300,453,595,
0,743,582,333,447,609,
0,732,575,329,441,601,
0,721,568,327,438,594,
0,711,561,323,433,587,
0,701,555,321,429,580,
0,692,652,318,423,573,
0,683,643,315,419,567,
0,674,635,312,415,560,
0,665,626,310,412,553,
0,655,619,307,448,614,
0,731,610,304,443,603,
0,720,603,301,439,595,
0,711,595,299,434,588,
0,700,588,296,430,581,
0,691,580,295,425,574,
0,681,650,292,420,568,
0,673,641,291,415,560,
0,664,632,288,412,555,
0,655,624,287,408,548,
0,717,616,319,472,611,
0,753,608,331,466,600,
0,742,600,327,461,593,
0,732,593,325,456,586,
0,721,585,321,451,579,
0,711,579,319,448,572,
0,702,638,316,441,565,
0,692,628,313,437,559,
0,684,620,311,433,551,
0,675,612,308,429,546,
0,771,605,395,463,623,
0,756,596,389,457,613,
0,745,590,385,452,605,
0,735,583,382,448,598,
0,724,575,377,444,590,
0,716,627,374,440,583,
0,705,633,371,433,575,
0,696,624,367,430,569,
0,687,615,364,425,563,
0,678,608,360,422,557,
0,779,600,357,463,625,
0,766,593,353,457,615,
0,755,585,350,452,608,
0,743,579,347,448,600,
0,734,572,344,444,593,
0,723,639,341,440,585,
0,713,632,338,433,579,
0,704,623,335,430,572,
0,696,614,332,425,566,
0,687,606,329,422,560,
0,726,599,374,417,600,
0,715,591,368,414,590,
0,705,583,364,410,583,
0,696,575,361,407,575,
0,686,569,358,403,569,
0,678,632,355,399,563,
0,668,623,352,396,556,
0,660,615,348,393,550,
0,652,607,345,391,543,
0,644,599,343,388,582,
0,636,591,339,385,573,
0,628,583,335,382,564,
0,622,575,332,380,558,
0,615,569,329,376,551,
0,608,563,327,374,545,
0,602,716,324,371,539,
0,595,705,321,368,534,
0,590,696,319,366,527,
0,583,686,316,363,524,
0,578,676,314,360,558,
0,583,667,312,358,551,
0,575,658,308,355,542,
0,569,649,306,353,536,
0,564,641,304,351,529,
0,559,633,302,348,524,
0,553,757,299,346,519,
0,547,745,296,344,513,
0,543,735,295,341,508,
0,537,723,292,339,504,
0,532,713,307,336,542,
0,537,704,304,335,535,
0,531,694,300,332,527,
0,526,684,297,329,521,
0,521,675,295,327,515,
0,516,676,292,326,510,
0,511,783,290,323,504,
0,507,770,287,321,499,
0,503,759,286,319,495,
0,498,748,284,317,491,
0,534,736,321,315,543,
0,525,726,318,312,536,
0,519,716,315,311,529,
0,513,706,312,308,523,
0,508,696,308,307,517,
0,503,770,306,305,511,
0,496,811,304,303,505,
0,492,798,300,301,499,
0,487,785,298,299,495,
0,483,774,295,297,502,
0,525,762,339,295,534,
0,516,751,335,294,527,
0,511,739,332,291,519,
0,505,729,327,289,514,
0,499,719,325,287,508,
0,494,841,323,287,503,
0,488,822,319,284,497,
0,483,808,316,282,492,
0,479,796,314,280,487,
0,475,783,312,280,551,
0,543,771,308,278,543,
0,535,760,305,275,536,
0,528,749,303,274,527,
0,523,739,300,272,522,
0,516,728,297,271,516,
0,511,838,295,269,510,
0,505,819,292,267,504,
0,500,806,291,265,499,
0,495,793,288,263,495,
0,489,783,343,263,551,
0,540,770,363,262,543,
0,531,759,359,259,537,
0,526,748,355,258,529,
0,519,737,352,257,524,
0,513,727,348,255,518,
0,508,834,345,254,512,
0,503,817,342,252,505,
0,497,803,339,250,500,
0,492,792,335,249,496,
0,505,780,349,252,545,
0,561,768,345,251,537,
0,552,756,342,248,531,
0,545,745,338,247,524,
0,540,735,335,246,518,
0,534,725,332,244,512,
0,527,835,329,243,507,
0,521,818,326,241,500,
0,515,805,323,240,496,
0,510,793,321,238,491,
0,561,780,350,261,545,
0,557,769,345,259,539,
0,548,758,342,255,531,
0,542,747,338,255,525,
0,536,736,335,252,519,
0,530,774,332,251,513,
0,524,809,329,248,508,
0,519,793,326,246,502,
0,513,781,323,243,497,
0,508,769,320,251,500,
0,556,758,367,252,547,
0,548,747,363,249,541,
0,540,736,359,248,534,
0,534,726,355,245,527,
0,527,716,352,243,521,
0,522,820,348,241,515,
0,515,807,345,240,510,
0,510,792,342,238,504,
0,504,779,339,236,499,
0,499,768,336,245,547,
0,556,755,341,242,539,
0,550,744,338,240,532,
0,542,734,334,239,525,
0,536,723,331,236,519,
0,529,713,327,235,513,
0,523,817,325,233,508,
0,518,803,323,231,502,
0,511,787,319,230,496,
0,505,775,317,229,491,
0,500,764,315,250,544,
0,543,752,325,248,537,
0,536,742,322,246,531,
0,528,731,318,243,523,
0,523,721,316,241,517,
0,516,711,313,240,511,
0,511,818,310,238,505,
0,505,805,307,236,500,
0,499,789,305,233,495,
0,495,777,303,231,489,
0,489,766,335,259,536,
0,539,753,331,255,528,
0,532,743,327,255,522,
0,525,732,324,252,515,
0,519,722,321,250,509,
0,513,711,318,248,504,
0,508,803,316,246,497,
0,502,790,312,243,492,
0,496,775,310,241,487,
0,491,764,307,240,483,
0,527,752,316,267,540,
0,537,740,312,264,533,
0,531,730,310,263,527,
0,524,719,306,260,519,
0,518,710,304,258,513,
0,512,746,301,255,508,
0,505,797,299,254,502,
0,500,784,295,252,496,
0,495,769,294,249,491,
0,490,758,291,259,487,
0,556,747,289,269,536,
0,547,736,287,266,530,
0,540,725,285,263,524,
0,534,715,283,262,516,
0,527,705,280,259,511,
0,521,787,279,257,505,
0,515,781,276,255,499,
0,510,769,274,253,494,
0,504,755,272,251,488,
0,499,743,271,288,536,
0,569,732,311,284,539,
0,561,722,307,281,531,
0,553,711,304,280,526,
0,547,702,301,277,518,
0,540,692,299,275,512,
0,535,803,295,272,507,
0,528,789,293,270,501,
0,523,776,291,268,496,
0,517,761,287,265,490,
0,511,752,287,287,539,
0,566,739,316,284,531,
0,559,728,313,281,525,
0,551,719,310,280,519,
0,543,708,307,277,512,
0,537,699,304,275,506,
0,531,813,301,272,500,
0,526,799,299,270,495,
0,519,787,295,268,489,
0,514,771,294,265,484,
0,509,761,326,293,546,
0,569,749,321,290,539,
0,563,738,318,287,532,
0,554,728,315,285,526,
0,547,717,312,283,519,
0,542,707,309,280,513,
0,536,797,306,278,508,
0,529,783,304,275,502,
0,524,771,300,273,496,
0,518,758,298,271,492,
0,551,747,318,295,550,
0,568,736,314,293,543,
0,561,724,312,291,536,
0,552,715,308,287,530,
0,546,705,305,286,523,
0,540,743,303,283,517,
0,534,813,300,280,511,
0,527,800,297,279,505,
0,521,784,295,276,499,
0,516,773,292,289,496,
0,580,761,322,301,558,
0,572,750,319,299,551,
0,565,739,316,295,544,
0,556,728,312,293,538,
0,550,718,310,291,530,
0,543,812,307,287,524,
0,537,813,304,286,519,
0,531,799,301,284,512,
0,526,783,299,281,508,
0,519,773,295,312,543,
0,582,761,331,307,550,
0,574,750,327,304,543,
0,567,739,324,302,537,
0,559,728,321,300,531,
0,551,718,318,296,524,
0,545,788,315,295,518,
0,540,775,312,291,512,
0,533,764,310,289,506,
0,527,749,307,287,500,
0,522,739,304,306,554,
0,575,728,331,303,547,
0,568,717,327,300,540,
0,560,707,324,297,534,
0,551,697,321,295,527,
0,545,688,318,292,519,
0,540,785,315,290,514,
0,533,772,312,287,508,
0,527,760,310,285,503,
0,521,746,307,283,497,
0,516,736,304,313,521,
0,572,724,302,310,515,
0,565,714,299,307,508,
0,558,704,295,304,504,
0,550,695,294,302,497,
0,543,686,291,300,491,
0,537,785,288,296,486,
0,531,773,286,295,480,
0,525,760,284,291,476,
0,519,747,282,289,472,
0,534,736,321,312,525,
0,551,725,317,308,519,
0,544,715,313,305,512,
0,537,705,312,303,507,
0,530,696,307,300,501,
0,524,716,305,297,494,
0,518,785,302,295,488,
0,513,773,300,292,483,
0,507,761,296,290,479,
0,502,747,295,294,473,
0,568,736,291,313,532,
0,560,726,289,311,526,
0,552,715,287,307,519,
0,546,705,284,305,513,
0,538,696,281,302,508,
0,532,776,280,300,501,
0,526,785,278,297,496,
0,520,773,275,295,490,
0,515,761,273,292,485,
0,509,748,271,290,511,
0,547,736,311,302,528,
0,540,726,308,299,523,
0,534,716,305,295,516,
0,527,705,303,294,511,
0,519,696,299,291,504,
0,514,789,295,289,497,
0,508,775,294,287,492,
0,503,764,291,284,487,
0,497,752,289,282,482,
0,492,739,286,280,478,
0,487,728,284,278,472,
0,483,717,281,275,467,
0,478,707,280,273,463,
0,473,697,276,271,460,
0,467,688,274,269,455,
0,463,751,271,267,450,
0,460,739,270,264,447,
0,455,728,268,263,443,
0,452,718,265,260,440,
0,448,704,263,258,435,
0,444,695,263,255,432,
0,440,685,260,255,428,
0,438,676,259,252,424,
0,433,668,257,251,422,
0,430,659,255,249,418,
0,426,742,253,248,414,
0,423,729,252,246,410,
0,419,719,249,243,408,
0,415,708,248,242,403,
0,412,696,247,240,401,
0,409,687,245,238,398,
0,406,677,243,236,395,
0,403,668,242,235,391,
0,399,659,240,233,388,
0,396,652,239,231,385,
0,393,729,237,230,382,
0,391,719,236,229,379,
0,387,707,233,227,376,
0,384,697,231,226,374,
0,382,686,231,224,371,
0,379,676,230,223,368,
0,376,667,228,222,365,
0,373,659,227,220,362,
0,371,649,225,219,359,
0,367,700,224,217,356,
0,364,696,222,216,353,
0,361,686,220,216,352,
0,359,675,220,215,348,
0,357,667,218,213,346,
0,354,655,217,211,344,
0,352,647,216,210,341,
0,349,639,215,209,339,
0,347,632,214,207,335,
0,344,624,212,207,334,
0,342,696,210,206,331,
0,339,686,209,204,327,
0,337,675,207,204,326,
0,335,667,207,202,323,
0,332,657,206,201,323,
0,329,647,220,199,320,
0,327,638,217,199,318,
0,326,630,216,198,316,
0,323,622,214,196,313,
0,321,614,212,195,312,
0,318,689,209,194,308,
0,316,679,208,193,307,
0,314,670,207,192,304,
0,312,660,205,191,302,
0,310,652,204,190,300,
0,307,639,203,188,299,
0,305,632,201,188,295,
0,304,624,199,187,295,
0,302,615,199,185,292,
0,300,608,198,184,290,
0,297,705,196,184,287,
0,295,695,195,183,286,
0,294,684,193,182,284,
0,291,675,192,181,283,
0,290,665,192,179,280,
0,287,655,191,179,279,
0,286,646,190,177,276,
0,284,638,188,176,275,
0,283,629,187,176,273,
0,280,622,185,175,271,
0,279,700,184,174,269,
0,276,690,184,173,268,
0,275,679,182,172,265,
0,273,671,182,171,263,
0,271,662,201,171,262,
0,270,651,199,169,260,
0,268,642,198,167,259,
0,267,633,196,167,257,
0,265,625,195,167,255,
0,263,668,193,166,254,
0,262,692,191,164,252,
0,259,683,190,163,250,
0,258,673,188,163,248,
0,257,664,187,162,270,
0,255,655,229,161,310,
0,254,643,227,160,307,
0,252,636,224,159,304,
0,251,627,223,159,301,
0,248,620,220,158,298,
0,247,697,219,157,295,
0,246,686,216,156,292,
0,244,676,215,156,290,
0,242,667,213,155,287,
0,241,657,211,153,335,
0,240,648,235,153,331,
0,238,638,232,152,327,
0,237,630,231,151,324,
0,235,622,229,150,321,
0,234,614,227,150,319,
0,231,696,225,148,316,
0,231,686,223,148,312,
0,230,676,221,147,309,
0,228,667,219,147,307,
0,227,657,231,146,349,
0,225,648,243,145,344,
0,224,638,241,143,342,
0,223,630,240,143,338,
0,222,622,237,143,335,
0,220,614,235,142,332,
0,219,709,233,141,327,
0,217,698,231,140,325,
0,216,688,229,140,322,
0,215,679,227,139,319,
0,214,669,259,138,359,
0,212,659,255,137,355,
0,211,649,253,136,352,
0,209,639,251,135,348,
0,209,632,248,135,345,
0,207,624,246,135,342,
0,206,708,243,134,339,
0,205,697,241,133,335,
0,204,688,240,132,332,
0,203,678,238,131,329,
0,201,669,252,131,377,
0,199,657,249,130,374,
0,199,648,247,129,370,
0,198,639,245,129,366,
0,197,632,243,127,363,
0,195,673,241,127,359,
0,194,719,239,127,355,
0,193,708,236,126,352,
0,192,698,235,126,348,
0,191,688,231,125,353,
0,190,679,249,124,391,
0,188,668,247,124,387,
0,188,659,244,123,384,
0,187,649,243,122,380,
0,185,641,240,121,376,
0,184,707,239,121,372,
0,184,696,236,120,368,
0,182,686,233,120,364,
0,181,675,231,119,360,
0,180,667,230,123,419,
0,259,657,271,125,419,
0,255,647,268,124,415,
0,253,638,265,123,412,
0,251,630,263,122,408,
0,248,622,262,121,403,
0,247,706,259,120,399,
0,243,696,257,120,396,
0,241,685,254,119,391,
0,240,675,252,118,387,
0,238,666,260,120,446,
0,285,657,284,118,440,
0,281,646,280,117,435,
0,280,638,278,116,431,
0,276,630,275,115,427,
0,274,622,273,115,423,
0,271,704,271,115,418,
0,269,694,268,114,414,
0,267,684,265,113,408,
0,263,674,263,112,404,
0,263,664,262,112,401,
0,260,655,259,112,397,
0,258,644,257,111,393,
0,255,636,255,110,390,
0,254,628,253,110,387,
0,252,620,251,109,384,
0,249,717,249,108,380,
0,247,706,247,108,376,
0,245,696,244,107,371,
0,243,686,243,107,368,
0,241,676,312,106,365,
0,240,668,307,105,362,
0,238,655,304,105,359,
0,236,647,302,104,356,
0,234,639,299,103,353,
0,231,670,295,103,350,
0,231,713,294,103,347,
0,228,703,291,102,344,
0,227,692,287,102,340,
0,225,683,286,101,337,
0,224,673,284,100,335,
0,222,664,281,100,332,
0,220,654,279,99,329,
0,219,647,276,99,327,
0,216,639,274,99,323,
0,216,653,271,98,321,
0,214,710,270,98,319,
0,212,699,268,97,317,
0,211,689,265,96,315,
0,209,679,263,96,312,
0,207,670,262,95,310,
0,207,660,259,95,307,
0,205,652,258,95,305,
0,204,643,255,94,302,
0,202,635,254,94,300,
0,201,627,252,93,297,
0,199,694,250,92,295,
0,198,686,248,92,293,
0,196,676,246,92,291,
0,195,667,244,91,289,
0,194,658,243,91,287,
0,192,648,240,90,285,
0,192,639,239,89,283,
0,190,632,238,89,281,
0,189,624,236,88,279,
0,188,615,234,88,277,
0,187,724,231,88,275,
0,185,713,231,88,273,
0,184,702,229,87,271,
0,184,692,227,87,269,
0,182,683,225,86,267,
0,181,675,224,86,265,
0,179,666,223,86,263,
0,179,657,221,85,262,
0,177,648,220,84,259,
0,176,639,217,84,258,
0,176,707,216,83,255,
0,175,696,215,83,255,
0,173,686,214,83,252,
0,173,675,212,82,251,
0,172,667,211,82,249,
0,171,657,209,81,248,
0,169,648,207,81,246,
0,168,639,206,80,244,
0,167,632,204,80,243,
0,167,624,203,79,241,
0,166,659,202,79,240,
0,165,689,199,79,238,
0,164,679,199,78,236,
0,163,670,198,78,235,
0,163,660,196,78,234,
0,161,652,195,77,231,
0,160,643,194,77,231,
0,159,635,193,76,230,
0,159,626,192,76,228,
0,158,619,190,76,227,
0,157,624,189,75,225,
0,156,691,188,75,224,
0,156,681,186,75,223,
0,155,671,185,74,221,
0,153,664,184,73,220,
0,153,655,183,73,219,
0,152,647,182,73,217,
0,152,638,180,72,216,
0,151,630,179,71,215,
0,150,622,178,71,214,
0,149,614,177,71,212,
0,148,700,176,71,211,
0,147,689,175,71,209,
0,147,679,174,70,208,
0,145,670,173,70,207,
0,145,660,172,70,206,
0,144,652,171,69,205,
0,143,643,170,68,204,
0,143,637,169,68,202,
0,142,628,167,68,201,
0,141,620,167,67,199,
0,140,679,166,67,199,
0,140,668,165,67,198,
0,139,659,164,67,196,
0,138,649,163,67,195,
0,137,639,162,66,194,
0,136,632,161,65,193,
0,135,624,160,65,192,
0,135,615,159,65,191,
0,135,608,159,64,190,
0,134,600,158,64,188,
0,133,678,156,63,188,
0,132,670,156,63,186,
0,131,660,155,63,185,
0,131,651,154,63,184,
0,130,642,153,63,184,
0,129,633,152,62,183,
0,128,625,152,62,181,
0,127,617,151,62,180,
0,127,609,150,62,179,
0,127,601,149,61,178,
0,126,612,148,61,177,
0,125,671,147,60,176,
0,125,662,147,60,175,
0,124,652,146,60,174,
0,124,643,145,60,173,
0,123,637,150,59,172,
0,121,628,148,59,171,
0,121,620,147,59,170,
0,120,612,147,58,169,
0,120,604,145,57,167,
0,120,596,144,57,167,
0,119,677,143,57,167,
0,118,667,143,56,166,
0,118,657,142,56,164,
0,117,648,141,56,163,
0,116,639,152,56,163,
0,115,632,163,56,162,
0,115,623,161,56,161,
0,115,615,159,55,159,
0,114,608,159,55,159,
0,113,601,157,55,159,
0,112,654,156,54,158,
0,112,644,155,54,157,
0,112,635,153,54,156,
0,111,627,152,54,156,
0,110,618,151,53,154,
0,110,610,150,52,153,
0,110,602,149,52,152,
0,108,595,148,52,152,
0,108,588,147,51,151,
0,107,581,145,51,150,
0,107,664,144,51,150,
0,106,654,143,51,148,
0,105,645,143,51,147,
0,105,639,142,50,147,
0,104,630,140,50,146,
0,103,621,182,50,145,
0,103,613,179,49,144,
0,103,605,178,49,143,
0,102,598,176,49,143,
0,102,590,175,48,142,
0,101,611,174,48,141,
0,101,655,172,48,140,
0,100,645,171,48,140,
0,99,636,169,48,139,
0,99,630,168,48,138,
0,99,622,180,47,137,
0,98,614,179,47,136,
0,97,606,177,47,135,
0,97,600,176,46,135,
0,96,591,174,46,135,
0,96,585,173,46,134,
0,96,664,172,46,134,
0,95,655,170,46,132,
0,95,647,169,45,131,
0,94,638,167,45,131,
0,94,629,167,45,131,
0,93,623,198,44,130,
0,93,615,195,44,129,
0,92,607,194,44,129,
0,92,600,192,44,127,
0,92,593,191,44,127,
0,91,586,190,44,127,
0,91,638,188,43,126,
0,90,628,187,43,125,
0,89,620,185,43,125,
0,89,614,184,43,124,
0,88,606,183,42,124,
0,88,598,182,42,123,
0,88,591,180,41,122,
0,88,584,179,41,121,
0,87,577,177,41,121,
0,86,571,176,41,120,
0,86,617,175,41,120,
0,86,657,174,40,119,
0,85,647,172,40,119,
0,84,639,172,39,118,
0,84,631,169,39,118,
0,83,624,168,39,116,
0,83,615,167,39,116,
0,83,608,167,39,115,
0,83,600,165,39,115,
0,82,595,164,39,115,
0,81,588,163,39,114,
0,81,667,162,39,113,
0,80,656,161,39,112,
0,80,649,159,38,112,
0,79,641,159,38,112,
0,79,632,158,38,111,
0,79,624,163,37,124,
0,79,617,161,37,124,
0,78,610,159,37,123,
0,78,601,159,36,121,
0,78,595,158,36,121,
0,77,587,157,36,120,
0,76,674,156,36,119,
0,76,664,154,36,119,
0,76,654,153,35,118,
0,76,646,152,35,116,
0,75,639,152,35,115,
0,75,631,177,35,115,
0,74,623,176,35,114,
0,74,615,175,35,113,
0,73,608,173,35,112,
0,73,600,172,35,112,
0,72,593,171,34,112,
0,72,654,169,34,111,
0,71,647,167,34,110,
0,71,638,167,33,110,
0,71,629,166,33,109,
0,71,621,164,33,111,
0,71,615,163,33,110,
0,70,607,163,33,109,
0,70,599,161,32,108,
0,70,591,160,32,108,
0,69,586,159,32,107,
0,69,642,158,31,107,
0,68,659,157,31,105,
0,68,649,156,31,105,
0,67,643,155,31,104,
0,67,634,153,31,103,
0,67,626,177,31,125,
0,67,617,175,31,124,
0,66,609,174,31,123,
0,66,604,172,31,122,
0,65,596,171,31,121,
0,65,588,170,31,120,
0,65,671,168,30,120,
0,64,664,167,30,118,
0,64,654,166,30,118,
0,63,645,165,30,116,
0,63,636,163,29,115,
0,63,630,190,29,115,
0,63,622,188,29,115,
0,63,614,187,29,113,
0,62,606,185,29,112,
0,62,600,184,29,112,
0,62,592,183,28,111,
0,61,668,182,28,110,
0,61,659,180,28,109,
0,60,652,179,28,109,
0,60,643,177,28,108,
0,60,635,176,28,121,
0,60,625,195,28,120,
0,59,620,193,28,119,
0,59,611,192,27,118,
0,59,604,191,28,116,
0,59,596,190,27,115,
0,58,598,188,27,115,
0,57,660,186,27,114,
0,57,652,185,27,113,
0,57,643,184,26,112,
0,57,633,182,26,112,
0,56,627,213,25,116,
0,56,619,211,25,115,
0,56,611,209,25,114,
0,56,604,207,25,113,
0,56,598,206,25,112,
0,55,590,204,25,112,
0,55,645,203,25,111,
0,55,636,200,24,110,
0,54,630,199,24,109,
0,55,620,198,24,108,
0,54,612,196,24,108,
0,54,604,195,24,119,
0,53,599,193,24,118,
0,53,591,192,24,117,
0,52,583,191,24,115,
0,52,577,189,24,115,
0,52,572,188,24,114,
0,51,659,186,24,113,
0,51,651,185,24,112,
0,51,641,184,23,112,
0,51,635,183,23,111,
0,51,626,182,23,110,
0,50,617,180,23,110,
0,50,609,179,23,109,
0,50,602,177,22,108,
0,49,596,176,23,108,
0,49,589,175,22,107,
0,49,617,174,22,105,
0,49,660,172,22,105,
0,48,653,172,22,104,
0,48,644,170,22,103,
0,48,636,169,22,103,
0,48,627,190,22,147,
0,48,620,189,21,146,
0,47,612,187,21,145,
0,47,604,186,21,143,
0,47,598,184,21,143,
0,47,591,183,20,142,
0,46,668,182,20,140,
0,46,657,180,20,140,
0,46,647,179,20,138,
0,46,641,177,20,137,
0,45,632,176,20,135,
0,45,624,175,20,185,
0,45,615,174,19,184,
0,44,610,172,19,182,
0,44,602,171,19,180,
0,44,595,170,19,179,
0,44,588,169,19,177,
0,44,663,167,19,176,
0,43,652,167,19,174,
0,43,643,166,19,174,
0,43,635,164,19,172,
0,43,626,163,19,171,
0,43,620,179,19,169,
0,42,611,178,19,167,
0,41,604,177,18,167,
0,41,596,176,18,166,
0,41,591,174,18,164,
0,41,583,172,18,163,
0,41,655,172,17,162,
0,41,647,171,17,161,
0,40,639,169,17,159,
0,39,632,167,17,159,
0,39,623,167,17,158,
0,39,615,166,17,157,
0,39,608,164,17,156,
0,39,600,163,17,155,
0,39,593,161,17,154,
0,39,585,160,17,152,
0,39,638,159,16,152,
0,39,707,158,16,151,
0,38,696,158,16,150,
0,38,686,156,17,148,
0,38,679,156,16,147,
0,38,670,172,16,184,
0,38,660,170,16,181,
0,37,652,168,15,179,
0,37,645,167,15,178,
0,36,636,166,15,177,
0,36,628,165,15,176,
0,36,699,163,15,174,
0,36,688,162,15,172,
0,35,679,161,15,172,
0,35,671,159,15,171,
0,35,662,159,15,169,
0,35,652,197,15,192,
0,35,646,195,15,190,
0,35,638,193,15,188,
0,35,630,192,15,187,
0,35,621,191,15,185,
0,35,615,189,15,184,
0,34,686,188,15,183,
0,34,675,186,14,181,
0,33,666,184,15,179,
0,33,659,184,14,178,
0,33,650,199,14,187,
0,33,641,224,14,187,
0,33,633,221,14,185,
0,32,627,219,14,184,
0,32,619,217,14,183,
0,32,611,216,13,182,
0,31,674,215,14,179,
0,31,673,212,13,178,
0,31,664,211,13,177,
0,31,655,209,13,176,
0,31,646,207,13,174,
0,31,639,251,13,195,
0,31,631,247,12,193,
0,31,622,245,12,192,
0,31,615,243,12,191,
0,30,607,240,12,189,
0,30,601,239,12,188,
0,30,688,236,12,186,
0,30,677,235,12,184,
0,30,667,233,12,184,
0,30,660,231,12,182,
0,30,652,230,12,181,
0,29,643,228,12,231,
0,29,634,226,12,227,
0,29,627,224,12,225,
0,29,620,223,12,224,
0,28,611,221,12,223,
0,28,604,220,12,220,
0,28,681,217,12,219,
0,28,671,216,11,217,
0,28,662,215,11,216,
0,28,652,213,11,214,
0,28,646,211,11,241,
0,27,637,210,11,239,
0,27,628,208,11,236,
0,27,620,207,11,235,
0,27,615,205,11,231,
0,27,607,204,11,231,
0,27,638,203,11,229,
0,27,688,201,10,227,
0,27,679,199,11,225,
0,26,670,199,11,224,
0,25,660,198,10,222,
0,26,652,212,10,240,
0,25,643,216,10,238,
0,25,636,215,10,236,
0,25,628,212,10,235,
0,25,620,211,9,231,
0,25,615,209,9,231,
0,25,681,207,9,229,
0,24,671,206,9,227,
0,24,664,204,9,225,
0,24,655,204,9,224,
0,24,647,201,9,223,
0,24,639,204,9,220,
0,24,632,204,9,219,
0,24,625,201,9,217,
0,24,617,200,9,216,
0,24,611,199,9,215,
0,24,604,198,9,213,
0,24,598,196,9,211,
0,24,680,195,8,210,
0,23,671,194,9,208,
0,23,664,192,8,207,
0,23,655,192,8,206,
0,23,647,190,8,225,
0,23,639,189,8,237,
0,22,631,188,8,235,
0,22,624,186,7,233,
0,22,617,185,7,231,
0,22,611,184,8,230,
0,22,604,183,7,228,
0,22,708,182,7,226,
0,22,697,180,7,225,
0,22,688,179,7,223,
0,21,679,178,7,222,
0,22,671,177,7,231,
0,21,664,196,7,254,
0,21,655,195,7,252,
0,21,646,193,7,249,
0,20,639,192,7,248,
0,20,632,190,7,246,
0,20,625,188,7,244,
0,20,687,188,7,243,
0,20,676,186,7,240,
0,20,669,184,7,239,
0,20,660,184,7,237,
0,19,654,182,7,236,
0,19,644,220,7,295,
0,19,638,217,7,291,
0,19,630,216,7,289,
0,19,622,214,7,287,
0,19,615,212,7,285,
0,19,608,211,7,283,
0,19,691,209,7,280,
0,19,681,207,7,278,
0,19,671,206,7,275,
0,19,664,204,7,274,
0,19,655,204,7,271,
0,18,648,201,7,270,
0,18,639,200,7,268,
0,18,632,199,6,265,
0,18,625,198,6,263,
0,18,617,196,6,262,
0,18,611,195,6,260,
0,17,668,193,6,258,
0,17,670,192,6,255,
0,17,660,191,6,255,
0,17,651,190,6,252,
0,17,644,188,6,251,
0,17,636,188,6,286,
0,17,630,191,6,283,
0,17,621,190,6,280,
0,17,613,188,6,279,
0,17,607,187,6,276,
0,16,600,185,6,274,
0,16,594,184,6,272,
0,16,675,183,6,270,
0,16,665,182,6,268,
0,16,659,180,6,265,
0,15,649,179,5,263,
0,15,643,178,5,279,
0,15,635,177,5,289,
0,15,627,176,6,286,
0,15,620,174,5,284,
0,15,611,174,5,281,
0,15,606,172,5,280,
0,15,599,172,5,278,
0,15,673,170,5,275,
0,15,664,169,5,273,
0,15,654,167,5,271,
0,15,647,167,5,269,
0,15,638,166,4,281,
0,15,632,182,5,315,
0,15,624,181,4,312,
0,14,615,179,4,308,
0,15,609,178,4,306,
0,14,601,176,4,303,
0,14,596,175,4,301,
0,14,667,174,4,299,
0,14,659,172,4,295,
0,14,649,172,4,294,
0,14,641,170,4,291,
0,14,635,169,4,289,
0,14,627,198,4,305,
0,13,620,195,4,302,
0,13,611,194,4,300,
0,13,604,192,4,297,
0,13,599,191,4,295,
0,13,591,190,4,293,
0,13,655,188,4,291,
0,13,644,187,3,289,
0,13,636,185,3,286,
0,13,629,184,3,284,
0,13,621,183,3,282,
0,12,615,247,3,329,
0,12,607,243,3,326,
0,12,600,240,3,322,
0,12,593,239,3,319,
0,12,585,237,3,317,
0,12,580,235,3,315,
0,12,636,233,3,312,
0,12,659,231,3,310,
0,12,651,230,3,307,
0,12,641,228,3,304,
0,12,635,226,3,303,
0,12,627,225,3,348,
0,12,620,223,3,344,
0,12,611,222,3,340,
0,11,604,220,3,337,
0,11,598,218,3,335,
0,12,591,216,3,332,
0,11,585,216,3,329,
0,11,659,214,3,326,
0,11,652,212,3,323,
0,11,643,211,3,321,
0,11,635,209,3,318,
0,11,628,207,3,316,
0,11,620,226,3,314,
0,11,614,224,3,312,
0,11,606,223,3,310,
0,11,599,221,3,307,
0,10,593,219,3,305,
0,10,585,217,3,302,
0,10,660,216,3,300,
0,10,651,215,3,297,
0,9,643,212,3,295,
0,9,635,211,3,294,
0,9,628,210,3,291,
0,10,620,211,3,291,
0,9,614,209,3,289,
0,9,606,207,3,287,
0,9,600,206,3,286,
0,9,595,205,2,283,
0,9,587,204,2,281,
0,9,599,202,2,280,
0,9,659,201,2,278,
0,9,652,199,2,276,
0,8,643,198,2,273,
0,8,638,198,3,272,
0,9,631,195,2,271,
0,9,623,211,2,289,
0,8,616,208,3,287,
0,8,608,207,2,284,
0,9,603,206,2,283,
0,8,597,204,2,280,
0,8,590,203,2,279,
0,8,654,201,2,276,
0,7,664,199,2,274,
0,7,658,199,2,272,
0,8,648,197,2,270,
0,7,642,196,2,268,
0,7,636,195,2,302,
0,7,627,193,2,315,
0,7,621,192,2,312,
0,7,612,191,2,310,
0,7,607,190,2,307,
0,7,601,189,1,304,
0,7,593,188,1,303,
0,7,676,186,1,300,
0,7,666,185,2,298,
0,7,659,184,2,295,
0,7,649,183,2,294,
0,7,643,182,1,291,
0,7,637,207,2,321,
0,7,628,205,2,318,
0,7,622,203,1,316,
0,7,614,201,1,312,
0,7,608,199,1,311,
0,7,602,199,1,307,
0,7,595,198,1,306,
0,7,672,195,1,304,
0,7,663,195,1,301,
0,7,655,193,1,299,
0,7,647,192,1,295,
0,7,639,191,1,295,
0,7,633,216,1,295,
0,7,625,214,1,292,
0,7,619,211,1,290,
0,7,611,211,1,287,
0,7,605,208,1,286,
0,6,600,207,1,284,
0,7,611,206,1,282,
0,7,664,204,1,280,
0,6,654,203,1,278,
0,6,647,201,1,276,
0,6,638,199,1,274,
0,6,632,199,1,272,
0,6,625,225,1,300,
0,6,616,224,1,297,
0,6,611,222,1,295,
0,6,604,220,1,292,
0,6,598,217,1,291,
0,6,591,216,1,287,
0,6,664,216,1,287,
0,6,657,214,1,284,
0,6,648,212,1,282,
0,6,641,210,1,280,
0,5,632,209,1,278,
0,6,627,207,1,327,
0,5,620,246,1,324,
0,5,612,244,1,321,
0,5,607,242,1,319,
0,6,599,240,1,316,
0,5,593,239,1,313,
0,5,588,237,1,312,
0,5,671,236,1,309,
0,5,664,233,1,307,
0,5,655,231,1,304,
0,5,647,230,1,302,
0,5,639,229,1,300,
0,5,632,227,1,316,
0,4,626,225,1,313,
0,5,618,224,1,311,
0,4,612,223,0,308,
0,4,604,221,1,306,
0,4,599,220,1,304,
0,5,592,219,1,301,
0,4,667,216,1,299,
0,4,659,216,1,297,
0,4,649,214,0,295,
0,4,643,212,0,293,
0,4,634,211,1,291,
0,4,628,241,1,297,
0,4,622,239,1,295,
0,4,614,236,0,293,
0,4,608,235,1,291,
0,4,600,233,1,288,
0,4,594,231,0,287,
0,4,589,230,1,284,
0,4,669,228,1,283,
0,4,662,226,1,280,
0,4,652,225,0,279,
0,4,646,223,0,276,
0,3,637,222,1,279,
0,3,631,224,0,320,
0,3,624,222,1,318,
0,3,616,220,0,315,
0,3,611,218,0,313,
0,3,603,217,0,310,
0,3,597,215,0,307,
0,3,601,214,0,305,
0,3,639,212,0,304,
0,3,633,211,0,301,
0,3,625,209,0,299,
0,3,619,207,0,296,
0,3,611,207,1,295,
0,3,604,206,0,294,
0,3,599,204,0,291,
0,3,591,203,0,289,
0,3,585,201,0,287,
0,3,579,199,0,284,
0,3,574,199,0,283,
0,3,647,198,0,280,
0,3,648,196,0,279,
0,3,641,195,0,277,
0,3,633,194,0,275,
0,3,627,192,0,273,
0,3,618,192,0,291,
0,3,612,199,0,289,
0,3,606,199,0,286,
0,3,599,197,0,284,
0,3,593,195,0,283,
0,3,585,195,0,280,
0,3,579,193,0,279,
0,3,641,192,0,275,
0,3,632,191,0,273,
0,3,625,189,0,271,
0,3,617,188,0,270,
0,3,611,194,0,268,
0,3,604,195,0,306,
0,3,597,193,0,304,
0,3,591,192,0,300,
0,3,583,191,0,299,
0,3,579,189,0,295,
0,3,572,188,0,294,
0,2,567,187,0,292,
0,2,652,185,0,289,
0,3,645,184,0,287,
0,3,638,184,0,286,
0,2,630,183,0,283,
0,2,624,180,0,281,
0,2,615,227,0,332,
0,2,609,224,0,330,
0,2,603,223,0,327,
0,2,595,221,0,324,
0,2,590,219,0,322,
0,2,583,217,0,319,
0,2,607,216,0,317,
0,2,660,215,0,314,
0,2,653,213,0,312,
0,2,646,211,0,310,
0,2,638,210,0,307,
0,2,631,208,0,305,
0,2,623,207,0,303,
0,1,616,206,0,301,
0,2,611,204,0,299,
0,2,603,204,0,296,
0,2,597,201,0,295,
0,2,590,200,0,292,
0,2,669,199,0,291,
0,1,670,198,0,287,
0,2,663,197,0,286,
0,1,655,195,0,284,
0,1,647,194,0,283,
0,1,639,204,0,307,
0,1,632,223,0,306,
0,1,625,221,0,304,
0,2,620,219,0,301,
0,1,611,217,0,299,
0,1,606,216,0,297,
0,1,598,214,0,295,
0,1,679,212,0,292,
0,1,668,211,0,289,
0,1,661,209,0,287,
0,1,654,207,0,286,
0,1,645,207,0,284,
0,1,639,248,0,307,
0,1,630,244,0,303,
0,1,624,242,0,301,
0,1,617,240,0,299,
0,1,609,239,0,295,
0,1,604,236,0,295,
0,1,596,235,0,291,
0,1,663,233,0,290,
0,1,654,231,0,287,
0,1,647,230,0,286,
0,1,639,228,0,284,
0,1,632,227,0,281,
0,1,625,226,0,314,
0,1,616,224,0,312,
0,1,611,223,0,309,
0,1,605,221,0,306,
0,1,598,220,0,304,
0,1,591,219,0,302,
0,1,620,217,0,299,
0,1,668,216,0,297,
0,1,657,214,0,295,
0,1,651,212,0,292,
0,1,644,211,0,291,
0,1,635,210,0,295,
0,1,629,210,0,327,
0,1,620,209,0,323,
0,1,615,207,0,321,
0,1,608,206,0,319,
0,1,600,204,0,316,
0,1,595,204,0,314,
0,1,659,202,0,312,
0,1,652,200,0,310,
0,1,643,199,0,307,
0,1,636,199,0,304,
0,1,630,196,0,303,
0,0,621,195,0,300,
0,1,615,195,0,297,
0,1,607,193,0,295,
0,0,601,192,0,294,
0,0,595,191,0,291,
0,0,588,190,0,289,
0,0,583,188,0,287,
0,1,660,188,0,285,
0,0,652,186,0,284,
0,0,643,185,0,281,
0,0,637,184,0,280,
0,1,631,183,0,278,
0,0,622,184,0,316,
0,0,615,184,0,313,
0,0,608,184,0,310,
0,0,602,182,0,308,
0,0,596,181,0,305,
0,0,589,179,0,303,
0,0,583,178,0,301,
0,0,668,177,0,299,
0,0,660,176,0,296,
0,0,652,176,0,294,
0,0,644,175,0,292,
0,0,638,174,0,290,
0,0,630,205,0,319,
0,0,623,203,0,316,
0,0,615,201,0,313,
0,0,609,199,0,312,
0,0,604,199,0,308,
0,0,595,197,0,306,
0,0,591,195,0,304,
0,0,671,194,0,302,
0,0,664,192,0,300,
0,0,655,192,0,297,
0,0,647,224,0,295,
0,0,641,222,0,294,
0,0,632,229,0,316,
0,0,626,227,0,313,
0,0,618,225,0,311,
0,0,612,224,0,308,
0,0,607,222,0,305,
0,0,599,220,0,304,
0,0,620,219,0,302,
0,0,672,217,0,299,
0,0,665,216,0,297,
0,0,655,214,0,295,
0,0,649,213,0,292,
0,0,643,211,0,291,
0,0,634,209,0,300,
0,0,628,208,0,297,
0,0,620,207,0,295,
0,0,614,206,0,293,
0,0,608,204,0,290,
0,0,600,203,0,288,
0,0,670,201,0,287,
0,0,662,199,0,284,
0,0,655,199,0,283,
0,0,645,197,0,280,
0,0,639,196,0,279,
0,0,632,203,0,316,
0,0,624,205,0,312,
0,0,617,204,0,311,
0,0,610,202,0,307,
0,0,604,199,0,305,
0,0,599,199,0,303,
0,0,591,198,0,301,
0,0,651,196,0,299,
0,0,641,195,0,295,
0,0,635,193,0,294,
0,0,626,192,0,291,
0,0,620,192,0,289,
0,0,614,200,0,288,
0,0,606,199,0,287,
0,0,600,197,0,285,
0,0,592,195,0,283,
0,0,587,194,0,280,
0,0,582,193,0,278,
0,0,575,192,0,276,
0,0,670,190,0,275,
0,0,660,189,0,273,
0,0,653,188,0,271,
0,0,644,187,0,269,
0,0,638,185,0,268,
0,0,632,201,0,307,
0,0,623,199,0,305,
0,0,616,199,0,304,
0,0,609,197,0,300,
0,0,604,195,0,299,
0,0,598,194,0,295,
0,0,625,193,0,294,
0,0,666,192,0,291,
0,0,656,191,0,289,
0,0,649,188,0,287,
0,0,639,188,0,285,
0,0,634,187,0,284,
0,0,628,185,0,311,
0,0,620,184,0,308,
0,0,614,183,0,306,
0,0,606,182,0,303,
0,0,600,180,0,301,
0,0,595,179,0,299,
0,0,657,178,0,295,
0,0,649,177,0,295,
0,0,639,176,0,291,
0,0,633,175,0,290,
0,0,625,174,0,287,
0,0,619,173,0,323,
0,0,612,172,0,319,
0,0,605,171,0,316,
0,0,600,169,0,314,
0,0,591,168,0,312,
0,0,586,167,0,309,
0,0,580,167,0,307,
0,0,660,166,0,304,
0,0,653,165,0,302,
0,0,643,163,0,300,
0,0,637,163,0,297,
0,0,629,162,0,295,
0,0,623,175,0,322,
0,0,616,201,0,319,
0,0,608,199,0,316,
0,0,603,198,0,313,
0,0,595,196,0,312,
0,0,590,195,0,309,
0,0,582,193,0,307,
0,0,659,192,0,304,
0,0,652,191,0,302,
0,0,643,190,0,300,
0,0,636,188,0,297,
0,0,628,187,0,295,
0,0,623,227,0,344,
0,0,615,223,0,340,
0,0,608,222,0,337,
0,0,601,220,0,335,
0,0,593,218,0,332,
0,0,588,216,0,329,
0,0,625,215,0,327,
0,0,659,214,0,324,
0,0,652,211,0,323,
0,0,643,211,0,319,
0,0,637,209,0,318,
0,0,628,207,0,316,
0,0,622,207,0,335,
0,0,615,204,0,332,
0,0,608,204,0,329,
0,0,602,201,0,327,
0,0,594,200,0,323,
0,0,589,199,0,321,
0,0,654,198,0,319,
0,0,646,196,0,316,
0,0,639,195,0,315,
0,0,631,194,0,312,
0,0,624,192,0,310,
0,0,615,192,0,339,
0,0,609,219,0,336,
0,0,604,216,0,333,
0,0,596,216,0,331,
0,0,591,214,0,327,
0,0,583,212,0,326,
0,0,578,210,0,323,
0,0,605,209,0,319,
0,0,599,207,0,318,
0,0,592,206,0,316,
0,0,585,205,0,313,
0,0,579,203,0,312,
0,0,572,208,0,338,
0,0,567,224,0,335,
0,0,562,223,0,332,
0,0,556,222,0,329,
0,0,551,220,0,327,
0,0,545,219,0,324,
0,0,541,216,0,323,
0,0,633,215,0,319,
0,0,626,214,0,317,
0,0,620,211,0,315,
0,0,611,211,0,312,
0,0,606,209,0,310,
0,0,598,280,0,307,
0,0,591,281,0,305,
0,0,586,280,0,303,
0,0,579,278,0,301,
0,0,574,275,0,299,
0,0,567,273,0,296,
0,0,561,271,0,295,
0,0,638,270,0,292,
0,0,632,268,0,291,
0,0,625,265,0,289,
0,0,616,263,0,287,
0,0,610,262,0,285,
0,0,603,260,0,326,
0,0,596,257,0,323,
0,0,591,255,0,320,
0,0,583,255,0,318,
0,0,578,252,0,316,
0,0,571,251,0,313,
0,0,614,249,0,312,
0,0,671,248,0,308,
0,0,664,246,0,306,
0,0,657,244,0,304,
0,0,648,243,0,302,
0,0,641,241,0,302,
0,0,633,240,0,335,
0,0,627,238,0,334,
0,0,620,236,0,331,
0,0,613,235,71,327,
0,0,607,233,95,326,
0,0,600,231,94,323,
0,0,676,230,92,319,
0,0,668,228,92,318,
0,0,659,227,91,315,
0,0,652,225,90,318,
0,114,644,224,221,505,
0,257,636,247,363,615,
0,409,624,283,364,605,
0,422,616,280,359,597,
0,416,608,278,355,590,
0,412,600,275,352,583,
0,408,673,272,348,575,
0,403,668,270,345,569,
0,399,659,268,342,561,
0,395,650,265,339,556,
0,514,642,263,483,713,
0,719,633,332,529,751,
0,806,622,327,522,739,
0,792,614,324,515,729,
0,780,607,322,509,719,
0,768,599,319,504,709,
0,758,668,316,498,700,
0,743,659,312,493,691,
0,734,649,310,487,679,
0,724,639,307,483,671,
0,776,632,317,557,785,
0,902,624,358,547,771,
0,911,614,354,540,760,
0,911,605,351,534,749,
0,892,598,348,527,739,
0,876,591,344,523,729,
0,863,675,341,516,719,
0,847,664,337,512,709,
0,833,655,335,507,698,
0,822,646,332,502,689,
0,809,638,334,497,775,
0,896,630,335,492,763,
0,879,619,332,486,752,
0,864,611,329,481,740,
0,851,603,327,477,731,
0,838,595,323,472,721,
0,825,670,321,467,711,
0,810,660,318,463,702,
0,799,651,315,460,691,
0,788,643,312,455,683,
0,852,635,359,463,783,
0,903,625,355,459,771,
0,890,615,352,454,760,
0,875,608,348,449,748,
0,861,601,346,448,741,
0,851,608,344,443,731,
0,838,672,339,440,721,
0,822,663,335,435,709,
0,810,654,334,432,700,
0,799,645,331,460,695,
0,895,636,383,539,788,
0,909,628,377,532,775,
0,913,617,374,525,765,
1,911,610,371,519,754,
1,889,602,367,514,743,
1,874,670,364,508,734,
3,860,679,359,504,724,
3,844,671,356,499,711,
4,831,661,353,494,704,
4,820,652,351,593,782,
6,903,643,409,647,820,
6,911,635,405,637,807,
7,915,624,401,627,795,
7,918,615,397,620,783,
7,918,608,393,613,772,
7,903,716,390,606,761,
7,881,704,386,600,751,
7,864,694,382,592,739,
7,851,684,378,587,729,
7,893,675,375,688,833,
8,909,665,420,676,818,
7,913,655,415,668,806,
7,918,646,412,657,793,
7,920,637,408,649,783,
8,920,628,403,641,771,
7,907,702,399,634,760,
7,882,691,396,627,750,
7,865,681,391,620,737,
7,852,671,388,613,728,
8,894,664,431,697,858,
7,908,655,443,686,843,
7,913,646,438,678,829,
7,917,635,433,667,817,
7,919,627,429,659,805,
7,915,619,424,651,793,
7,889,719,420,643,782,
7,874,709,416,636,771,
7,857,699,412,628,759,
7,845,689,408,622,749,
7,903,680,508,710,882,
7,911,670,502,700,866,
7,915,662,496,691,852,
7,919,650,491,679,839,
7,920,641,486,671,827,
7,918,659,481,664,815,
7,894,732,476,655,803,
7,876,721,471,647,792,
7,860,711,465,639,778,
7,894,701,461,803,827,
7,909,691,497,838,898,
7,913,681,491,824,883,
7,918,671,486,812,867,
7,920,660,480,798,854,
7,921,652,476,786,841,
7,920,736,472,775,828,
7,903,753,466,766,816,
7,876,742,462,755,804,
7,863,731,455,746,792,
6,901,719,451,799,883,
6,911,710,504,822,903,
6,915,700,497,809,897,
6,919,691,492,798,878,
6,921,679,487,783,864,
6,922,670,482,773,851,
6,920,790,477,763,838,
6,897,776,472,752,825,
6,875,765,467,743,814,
6,861,753,462,734,799,
6,903,743,457,777,885,
5,911,732,500,765,874,
5,915,721,495,755,860,
5,919,711,489,744,847,
5,920,699,484,732,833,
5,921,689,480,723,821,
6,916,799,475,714,809,
5,888,786,470,705,797,
5,870,774,465,696,786,
5,857,763,460,695,774,
5,905,752,487,737,884,
5,911,740,498,727,868,
4,915,729,493,716,854,
5,919,719,487,707,840,
5,920,707,482,696,828,
5,920,697,478,688,816,
4,911,803,472,679,803,
5,883,791,467,671,792,
4,866,778,463,664,781,
4,859,768,457,657,768,
4,907,755,500,684,845,
4,912,743,494,673,831,
4,916,733,488,665,818,
4,919,723,483,657,807,
4,921,711,480,647,795,
4,920,719,474,641,783,
4,900,799,469,633,772,
4,879,787,464,627,761,
4,861,775,460,621,752,
4,881,764,455,621,740,
4,908,752,450,657,839,
4,913,742,446,649,825,
4,916,731,441,641,812,
4,920,718,438,633,800,
4,920,708,433,624,788,
4,915,796,430,616,777,
4,888,808,426,610,767,
4,873,796,423,604,756,
4,856,783,419,598,746,
4,895,772,414,641,780,
4,908,760,457,664,815,
4,913,749,452,655,802,
3,917,738,448,647,791,
4,920,725,444,639,779,
4,920,715,440,630,768,
3,912,813,435,623,757,
3,885,799,431,615,747,
3,871,786,427,608,736,
3,854,774,423,601,728,
3,900,763,418,632,822,
3,910,752,455,624,807,
3,915,740,449,617,795,
3,918,729,445,609,783,
3,920,717,440,602,772,
3,920,707,436,594,761,
3,904,814,432,588,750,
3,880,799,428,582,739,
3,867,787,423,575,729,
3,851,775,419,583,721,
3,903,764,415,613,806,
3,911,752,412,605,792,
3,915,741,408,598,781,
3,918,731,405,591,769,
3,920,718,401,583,759,
3,916,708,399,575,748,
3,892,801,395,569,737,
3,876,788,391,563,728,
3,862,776,388,559,718,
3,846,765,385,563,710,
3,905,754,421,590,758,
3,911,743,415,583,747,
3,916,732,412,575,736,
3,919,721,408,569,726,
3,920,708,403,563,716,
2,912,707,399,556,706,
2,886,794,396,550,697,
2,871,781,391,543,688,
2,858,769,388,540,679,
2,843,758,385,541,673,
2,904,747,422,579,761,
2,911,736,416,572,750,
2,915,725,412,564,739,
2,917,715,408,558,729,
2,911,703,404,551,719,
2,886,768,400,544,710,
1,871,792,396,539,700,
1,857,779,393,534,691,
1,845,767,390,528,682,
2,831,755,385,529,674,
1,905,744,408,547,745,
2,911,733,403,540,734,
1,915,723,399,534,724,
2,912,713,396,527,714,
1,889,700,391,523,704,
1,875,796,387,517,696,
1,860,782,384,512,686,
1,847,769,380,508,678,
1,835,758,377,504,669,
1,873,747,374,528,697,
1,907,736,415,522,744,
1,913,725,410,516,734,
1,915,715,406,511,723,
1,908,705,401,505,713,
1,884,693,398,499,704,
1,871,794,394,495,696,
1,856,781,391,491,686,
1,844,769,387,487,676,
1,831,758,384,493,668,
1,870,747,391,524,721,
1,907,735,408,516,707,
1,911,724,403,511,696,
1,908,715,399,505,688,
1,886,704,396,500,678,
1,871,692,391,494,670,
0,857,791,388,487,660,
0,844,777,384,483,653,
0,831,765,381,479,646,
0,819,754,377,483,639,
0,880,743,439,498,719,
0,905,732,433,492,705,
0,897,721,428,487,696,
0,879,711,423,482,686,
0,865,702,419,478,677,
0,851,697,415,472,668,
0,839,794,412,467,659,
0,825,781,408,463,652,
0,814,769,404,460,643,
0,803,758,400,460,636,
0,892,747,406,483,716,
0,904,736,401,478,702,
0,889,724,398,473,692,
0,873,715,393,468,683,
0,860,705,390,463,674,
0,847,748,387,457,665,
0,833,775,384,454,657,
0,821,763,380,450,648,
0,808,752,376,447,641,
0,798,740,374,455,633,
0,896,729,413,462,720,
0,888,719,408,456,711,
0,873,709,404,451,700,
0,859,700,400,448,691,
0,846,689,396,443,681,
0,833,792,392,439,673,
0,820,779,389,435,664,
0,807,768,385,432,655,
0,796,755,382,428,647,
0,786,744,379,450,639,
0,882,733,428,459,705,
0,867,723,423,454,696,
0,852,712,419,449,686,
0,839,703,415,444,676,
0,827,694,412,440,668,
0,814,792,408,435,659,
0,802,777,403,431,651,
0,791,766,399,427,643,
0,780,754,396,432,635,
0,769,743,392,459,677,
0,871,732,391,452,689,
0,856,721,388,448,679,
0,843,711,385,444,671,
0,830,702,382,439,662,
0,817,692,377,435,654,
0,805,803,375,430,646,
0,793,790,371,425,637,
0,782,777,368,422,630,
0,771,766,366,439,623,
0,763,755,363,439,698,
0,868,743,396,434,685,
0,854,733,391,430,675,
0,840,722,387,425,667,
0,828,712,384,422,658,
0,815,703,381,417,650,
0,803,800,377,414,641,
0,792,787,374,410,633,
0,780,775,370,408,626,
0,769,764,367,415,619,
0,775,753,391,425,679,
0,836,742,386,422,668,
0,824,731,383,417,659,
0,811,720,379,413,651,
0,799,711,375,409,642,
0,787,701,371,406,634,
0,775,796,368,401,626,
0,764,783,364,398,619,
0,755,771,361,396,611,
0,745,760,359,393,605,
0,829,748,384,406,671,
0,815,737,379,401,659,
0,803,727,375,398,651,
0,791,716,371,394,643,
0,779,707,368,391,635,
0,768,742,364,388,627,
0,758,798,361,384,619,
0,747,785,358,382,611,
0,736,774,355,379,604,
0,728,762,352,400,599,
0,816,751,387,414,657,
0,803,739,382,409,646,
0,791,728,377,406,638,
0,780,719,374,401,630,
0,768,708,371,398,622,
0,758,805,367,395,614,
0,747,798,364,390,607,
0,736,785,359,387,600,
0,727,772,357,384,593,
0,718,761,354,410,631,
0,799,750,376,406,643,
0,787,739,371,401,633,
0,775,728,367,398,625,
0,764,718,364,393,617,
0,753,707,359,390,610,
0,743,798,356,386,602,
0,732,782,353,382,595,
0,723,769,351,379,588,
0,713,758,348,380,583,
0,705,748,345,399,639,
0,780,736,368,395,630,
0,768,726,364,391,620,
0,758,715,359,387,612,
0,747,705,357,384,604,
0,736,696,354,380,597,
0,726,777,351,376,590,
0,716,762,348,373,583,
0,707,750,344,370,576,
0,698,739,342,369,571,
0,692,729,352,374,625,
0,765,718,358,370,615,
0,753,707,353,367,607,
0,743,698,350,364,600,
0,732,688,347,361,591,
0,723,679,344,359,584,
0,712,774,340,356,577,
0,704,761,337,353,572,
0,694,750,335,351,566,
0,686,739,332,359,560,
0,742,728,363,371,620,
0,760,718,359,368,612,
0,748,707,354,364,603,
0,737,697,351,361,595,
0,728,688,348,358,588,
0,718,709,344,355,581,
0,707,771,341,352,574,
0,699,760,338,348,568,
0,689,748,335,346,561,
0,680,737,332,368,556,
0,787,727,329,373,624,
0,771,716,327,369,615,
0,760,706,323,366,606,
0,749,696,321,363,598,
0,738,687,319,359,591,
0,728,750,316,356,583,
0,718,739,314,353,577,
0,708,728,312,349,571,
0,699,718,310,364,564,
0,691,708,307,380,594,
0,782,697,307,376,619,
0,768,688,305,371,610,
0,755,679,303,368,600,
0,745,670,300,364,593,
0,734,662,298,361,587,
0,724,771,295,358,579,
0,715,755,294,355,572,
0,705,743,291,352,566,
0,696,734,289,360,560,
0,687,723,287,374,624,
0,759,711,331,369,615,
0,744,702,327,366,608,
0,734,692,323,362,598,
0,723,683,320,359,591,
0,713,673,318,355,583,
0,704,766,315,352,575,
0,695,750,312,350,569,
0,686,739,310,345,563,
0,678,728,307,355,557,
0,671,718,332,372,615,
0,752,707,348,368,608,
0,737,697,344,365,600,
0,728,688,340,361,591,
0,717,679,337,358,583,
0,707,670,335,355,576,
0,697,774,332,352,570,
0,689,758,327,348,563,
0,679,747,326,345,557,
0,671,736,323,350,551,
0,728,726,350,368,595,
0,750,715,345,364,588,
0,736,704,342,360,580,
0,726,695,338,358,572,
0,716,686,335,354,565,
0,706,697,332,351,559,
0,696,774,329,348,551,
0,688,760,326,344,546,
0,679,748,323,342,540,
0,671,736,321,367,536,
0,748,726,353,376,608,
0,735,716,350,372,600,
0,721,705,345,369,593,
0,711,696,343,366,583,
0,702,686,339,363,577,
0,693,760,336,359,570,
0,684,772,334,355,563,
0,675,757,331,352,557,
0,666,745,327,351,551,
0,659,735,325,380,583,
0,734,724,373,375,613,
0,723,713,369,371,605,
0,710,704,364,367,598,
0,700,694,360,364,588,
0,691,684,358,359,582,
0,681,779,355,357,575,
0,673,765,352,354,568,
0,664,751,348,350,561,
0,655,739,345,361,555,
0,648,729,343,380,619,
0,752,719,365,376,609,
0,740,708,361,371,601,
0,728,698,358,368,594,
0,717,689,353,364,585,
0,707,679,351,361,578,
0,698,775,348,358,572,
0,688,761,344,355,564,
0,679,747,342,351,558,
0,671,736,339,359,551,
0,664,727,371,368,580,
0,737,715,383,364,574,
0,726,705,379,359,566,
0,713,696,374,358,560,
0,704,686,371,354,551,
0,694,676,367,351,545,
0,685,780,364,348,539,
0,676,768,359,345,534,
0,667,753,357,341,527,
0,659,743,354,346,524,
0,697,732,351,362,588,
0,733,721,348,359,579,
0,723,711,344,355,573,
0,710,701,341,352,564,
0,700,692,338,349,558,
0,691,692,335,345,551,
0,681,773,332,343,545,
0,673,761,329,339,539,
0,664,747,327,336,533,
0,656,736,324,350,527,
0,736,726,355,366,595,
0,723,715,351,361,588,
0,713,704,348,359,580,
0,700,696,344,355,572,
0,691,686,340,352,564,
0,683,748,337,349,558,
0,673,774,334,345,551,
0,664,761,331,343,545,
0,655,748,327,344,540,
0,648,737,326,368,558,
0,753,726,359,363,598,
0,742,716,355,359,591,
0,731,705,352,355,583,
0,718,696,348,352,575,
0,708,687,344,349,568,
0,699,786,342,346,561,
0,689,772,339,343,555,
0,679,760,335,339,548,
0,671,747,332,347,543,
0,664,736,329,356,611,
0,726,724,396,352,601,
0,714,713,391,348,594,
0,704,704,387,345,587,
0,692,695,383,342,578,
0,684,685,379,339,572,
0,674,785,376,336,564,
0,665,772,372,334,558,
0,657,760,368,332,551,
0,649,747,366,345,545,
0,641,736,364,359,611,
0,716,724,385,355,604,
0,705,714,382,352,595,
0,696,704,378,349,588,
0,684,695,374,345,579,
0,675,685,371,343,572,
0,666,779,367,339,566,
0,657,766,363,336,560,
0,649,755,359,334,553,
0,641,740,358,332,547,
0,657,730,379,353,626,
0,703,719,374,350,618,
0,693,709,371,346,610,
0,681,699,367,343,602,
0,671,689,363,339,593,
0,664,694,359,337,587,
0,655,786,355,334,579,
0,647,774,353,331,572,
0,639,761,350,327,567,
0,632,748,347,344,560,
0,734,736,344,353,611,
0,723,726,341,350,604,
0,712,715,338,347,596,
0,700,705,335,344,589,
0,691,696,332,340,579,
0,681,742,329,337,573,
0,671,768,327,335,567,
0,664,755,323,332,560,
0,655,744,321,328,554,
0,647,731,319,342,556,
0,713,720,355,339,600,
0,703,710,352,336,593,
0,694,700,348,334,585,
0,681,691,344,331,579,
0,673,681,340,327,570,
0,664,778,337,326,563,
0,655,764,335,323,557,
0,647,753,332,321,551,
0,639,742,328,319,544,
0,632,728,326,347,603,
0,711,718,326,344,593,
0,700,707,323,339,586,
0,691,697,319,336,579,
0,679,688,317,334,572,
0,670,679,313,331,563,
0,662,780,312,327,557,
0,653,768,309,326,551,
0,645,755,307,322,544,
0,637,745,304,321,539,
0,630,732,315,355,587,
0,710,720,343,352,579,
0,699,710,339,349,572,
0,689,700,336,345,565,
0,678,691,333,343,558,
0,669,681,329,339,551,
0,660,777,327,335,543,
0,652,766,323,333,537,
0,644,753,320,330,531,
0,636,739,318,329,526,
0,679,729,358,353,572,
0,732,719,353,349,563,
0,720,708,350,346,557,
0,711,699,346,343,551,
0,699,689,343,339,543,
0,689,679,339,336,536,
0,679,764,335,334,530,
0,671,752,333,331,524,
0,663,740,330,327,519,
0,655,727,327,327,514,
0,715,716,351,339,579,
0,707,706,347,336,572,
0,697,696,344,334,565,
0,688,687,340,331,559,
0,676,678,337,327,551,
0,668,733,333,324,543,
0,659,776,330,322,537,
0,650,764,327,319,531,
0,642,752,324,317,526,
0,635,739,322,323,525,
0,696,728,365,343,579,
0,684,718,361,339,572,
0,675,707,358,335,565,
0,665,697,354,334,558,
0,655,688,351,330,551,
0,647,776,347,327,543,
0,639,764,344,324,537,
0,631,752,340,321,531,
0,623,740,338,319,526,
0,616,728,335,329,585,
0,687,716,363,344,583,
0,676,706,359,340,577,
0,668,696,355,337,569,
0,659,687,352,334,563,
0,647,678,348,332,556,
0,639,792,345,327,548,
0,632,778,342,325,542,
0,624,766,339,323,536,
0,616,755,335,321,530,
0,610,742,371,335,598,
0,673,729,379,329,590,
0,664,719,376,327,582,
0,655,710,371,323,575,
0,647,700,368,321,568,
0,636,689,364,318,562,
0,628,773,359,316,553,
0,621,760,357,313,547,
0,613,749,353,311,540,
0,607,738,351,319,536,
0,619,726,376,340,580,
0,681,714,371,335,573,
0,671,704,368,333,566,
0,663,694,364,329,560,
0,654,685,361,327,552,
0,644,675,357,323,547,
0,636,772,353,321,539,
0,627,760,351,318,532,
0,620,749,348,316,527,
0,613,737,344,315,521,
0,688,724,359,343,582,
0,691,713,355,338,574,
0,681,704,352,335,567,
0,671,694,348,332,560,
0,664,684,345,328,553,
0,652,717,342,326,547,
0,643,760,339,323,539,
0,636,748,335,319,533,
0,628,737,332,318,527,
0,621,727,330,316,522,
0,679,713,359,335,573,
0,670,704,355,332,566,
0,660,694,352,328,559,
0,652,684,349,326,551,
0,643,675,345,323,545,
0,633,762,342,319,540,
0,625,749,339,317,531,
0,617,737,335,315,526,
0,610,727,333,312,520,
0,604,716,330,316,568,
0,686,704,332,334,575,
0,675,694,328,331,569,
0,667,684,326,327,562,
0,657,675,323,324,556,
0,649,666,320,321,549,
0,639,766,317,319,543,
0,631,753,315,316,535,
0,623,742,312,313,528,
0,615,731,310,312,524,
0,608,720,307,344,583,
0,684,707,345,338,575,
0,673,697,342,335,568,
0,664,688,339,332,561,
0,655,679,335,329,555,
0,647,670,332,326,548,
0,637,770,329,323,542,
0,630,758,326,319,534,
0,622,746,323,318,527,
0,615,736,319,316,523,
0,609,725,353,348,585,
0,675,711,350,343,577,
0,665,702,347,339,571,
0,656,692,344,336,563,
0,647,683,340,334,557,
0,639,673,337,331,551,
0,630,785,333,327,543,
0,622,773,330,325,536,
0,615,761,327,323,531,
0,608,750,324,319,525,
0,655,739,361,342,578,
0,657,725,358,338,571,
0,648,715,354,335,563,
0,639,705,351,332,556,
0,632,696,348,328,551,
0,624,723,344,326,543,
0,615,775,340,323,536,
0,607,764,337,319,530,
0,600,752,334,318,524,
0,593,740,332,315,519,
0,665,730,352,348,577,
0,655,716,348,344,571,
0,647,707,345,340,563,
0,638,697,342,337,557,
0,630,688,339,335,551,
0,622,775,335,332,543,
0,612,763,332,327,536,
0,604,751,329,326,530,
0,598,739,326,323,524,
0,591,729,323,321,563,
0,649,719,361,327,563,
0,639,705,358,323,556,
0,632,696,355,321,548,
0,624,687,351,318,543,
0,615,677,348,316,536,
0,608,783,344,312,530,
0,600,769,340,310,523,
0,591,758,337,307,517,
0,585,746,335,305,512,
0,579,736,332,333,566,
0,651,724,356,329,558,
0,642,711,352,326,551,
0,633,702,350,323,545,
0,625,692,346,319,539,
0,618,683,343,317,532,
0,610,776,339,313,526,
0,601,764,335,312,519,
0,593,752,333,308,513,
0,587,741,330,307,508,
0,580,731,364,326,583,
0,625,719,359,322,575,
0,617,707,355,319,568,
0,609,697,352,316,561,
0,602,688,349,312,555,
0,595,679,345,310,548,
0,585,771,343,307,542,
0,579,759,339,305,535,
0,572,747,335,303,528,
0,568,736,332,304,523,
0,620,726,355,329,577,
0,633,715,352,327,569,
0,625,702,348,322,563,
0,616,692,344,319,556,
0,609,683,342,316,550,
0,601,701,339,313,543,
0,592,761,335,312,537,
0,585,749,332,308,529,
0,579,737,328,306,524,
0,572,728,326,304,518,
0,643,717,352,327,575,
0,633,707,348,326,568,
0,625,694,344,321,561,
0,617,684,341,319,555,
0,609,675,338,316,547,
0,602,757,335,313,542,
0,592,754,332,311,536,
0,585,743,327,307,527,
0,579,732,326,305,522,
0,572,721,323,307,560,
0,657,711,350,327,566,
0,647,700,345,326,559,
0,639,688,343,321,552,
0,632,679,339,319,546,
0,624,670,335,316,540,
0,615,758,333,313,534,
0,606,745,329,311,527,
0,600,734,327,307,519,
0,591,723,323,305,515,
0,585,713,321,333,579,
0,669,703,327,329,571,
0,659,693,325,326,563,
0,652,681,322,322,557,
0,643,671,319,319,551,
0,635,664,316,316,543,
0,627,763,313,313,537,
0,617,751,312,311,531,
0,609,739,308,308,524,
0,603,728,305,307,519,
0,596,719,337,340,574,
0,662,707,337,336,567,
0,653,696,334,333,560,
0,644,686,331,329,553,
0,636,676,327,327,547,
0,628,668,325,323,540,
0,620,759,322,320,534,
0,611,747,319,318,527,
0,604,735,316,315,520,
0,597,725,313,313,515,
0,643,715,350,337,573,
0,663,704,345,334,566,
0,654,691,343,331,559,
0,645,683,339,327,552,
0,637,673,335,324,546,
0,629,692,333,321,540,
0,621,765,330,319,534,
0,611,753,327,316,527,
0,604,742,323,313,519,
0,598,731,320,312,515,
0,683,720,344,339,568,
0,671,710,339,335,561,
0,663,697,336,332,555,
0,654,688,334,328,547,
0,646,679,331,326,542,
0,638,764,327,323,536,
0,630,780,324,319,529,
0,620,768,321,318,523,
0,612,756,318,315,516,
0,605,745,316,315,540,
0,671,735,350,336,561,
0,663,723,346,333,554,
0,654,711,343,330,547,
0,645,701,339,327,541,
0,636,691,336,323,535,
0,629,792,334,321,529,
0,621,777,331,318,523,
0,611,766,327,315,517,
0,604,754,323,312,510,
0,598,743,321,348,569,
0,665,732,352,344,561,
0,655,721,348,339,555,
0,647,709,344,336,547,
0,639,699,342,332,542,
0,631,689,338,329,536,
0,623,775,335,327,529,
0,615,763,332,324,523,
0,606,751,327,321,517,
0,599,739,326,319,511,
0,591,729,341,339,573,
0,666,719,353,335,565,
0,656,708,349,332,559,
0,647,696,346,329,551,
0,639,687,343,326,545,
0,632,678,339,323,539,
0,624,760,336,319,532,
0,615,748,334,317,527,
0,607,737,329,315,520,
0,600,726,327,323,513,
0,635,716,353,346,558,
0,662,705,349,342,551,
0,653,696,346,339,545,
0,644,684,343,335,538,
0,636,675,339,332,532,
0,628,683,336,329,526,
0,620,766,334,327,519,
0,612,753,331,323,514,
0,604,742,327,320,508,
0,596,731,323,319,503,
0,671,721,352,334,556,
0,662,710,348,331,549,
0,652,700,344,327,542,
0,644,688,341,323,536,
0,636,679,338,321,529,
0,627,743,335,318,524,
0,620,760,332,316,518,
0,612,748,328,312,512,
0,604,737,325,310,507,
0,596,727,322,311,536,
0,666,716,356,339,568,
0,656,705,353,335,561,
0,647,696,350,333,555,
0,639,684,347,328,547,
0,632,675,344,326,542,
0,624,769,339,323,536,
0,615,756,337,319,529,
0,608,745,334,318,524,
0,599,734,330,315,518,
0,591,723,327,340,579,
0,683,713,324,340,571,
0,673,703,321,337,563,
0,664,693,319,335,556,
0,655,681,316,331,550,
0,647,671,313,327,543,
0,639,768,311,325,537,
0,631,755,308,322,531,
0,623,743,305,319,525,
0,614,733,303,317,519,
0,607,723,328,344,582,
0,675,711,348,340,575,
0,665,702,345,337,568,
0,656,691,342,334,560,
0,647,680,339,330,554,
0,639,671,335,327,547,
0,632,761,332,324,541,
0,624,749,329,321,535,
0,615,738,327,319,529,
0,607,728,323,319,521,
0,639,718,352,344,579,
0,680,706,348,339,571,
0,671,696,344,336,563,
0,663,687,341,334,557,
0,654,675,338,329,551,
0,646,679,335,327,543,
0,637,772,332,323,538,
0,629,760,328,321,531,
0,622,748,326,318,526,
0,612,737,322,318,519,
0,700,728,376,331,574,
0,688,716,371,327,568,
0,678,706,368,324,560,
0,669,696,364,322,553,
0,660,684,361,319,547,
0,652,743,358,316,541,
0,643,774,355,313,535,
0,636,761,352,311,528,
0,627,750,348,307,523,
0,619,739,344,334,543,
0,702,728,371,342,593,
0,691,718,368,338,585,
0,681,707,364,335,579,
0,672,697,360,332,572,
0,664,686,358,327,565,
0,655,788,354,326,558,
0,647,775,351,323,551,
0,639,763,348,319,545,
0,632,752,344,317,540,
0,622,740,340,323,595,
0,691,729,368,332,593,
0,679,719,364,329,585,
0,671,708,360,326,579,
0,662,699,358,323,572,
0,654,687,354,319,565,
0,646,781,351,316,558,
0,637,768,348,314,551,
0,630,756,344,312,545,
0,622,744,342,312,540,
0,612,734,345,337,591,
0,680,723,392,332,583,
0,671,713,388,329,575,
0,662,703,384,327,568,
0,654,693,381,323,562,
0,646,681,377,319,556,
0,637,772,374,318,549,
0,629,760,370,314,543,
0,622,748,367,312,536,
0,612,737,364,334,531,
0,636,728,382,348,600,
0,686,716,377,345,591,
0,677,705,374,342,584,
0,668,696,370,339,577,
0,659,687,366,335,571,
0,651,675,363,332,564,
0,642,771,359,328,557,
0,635,760,356,326,551,
0,627,748,353,323,544,
0,617,736,351,323,539,
0,680,727,351,337,590,
0,675,716,348,335,583,
0,665,705,344,331,575,
0,657,696,342,327,568,
0,648,686,339,326,561,
0,639,733,335,321,555,
0,632,768,332,319,548,
0,624,755,330,316,542,
0,616,743,327,313,536,
0,608,734,325,316,531,
0,684,723,355,329,578,
0,673,712,352,327,571,
0,664,703,348,323,564,
0,655,692,345,321,557,
0,647,684,342,318,551,
0,639,789,339,315,543,
0,631,775,335,312,538,
0,623,764,332,309,532,
0,615,752,329,307,526,
0,607,740,327,321,521,
0,685,729,325,332,581,
0,675,719,322,329,574,
0,666,709,319,327,567,
0,657,700,317,323,560,
0,648,689,315,321,553,
0,639,780,312,318,547,
0,632,767,310,315,541,
0,624,755,307,312,535,
0,617,743,304,324,529,
0,608,732,302,344,569,
0,681,721,344,339,582,
0,671,711,339,336,575,
0,664,702,336,334,568,
0,655,691,334,331,561,
0,646,680,331,327,555,
0,638,756,327,323,548,
0,630,743,324,321,542,
0,622,733,321,319,536,
0,615,723,319,326,530,
0,615,712,316,337,593,
0,673,702,347,333,583,
0,664,691,344,330,575,
0,655,682,340,327,568,
0,647,673,337,324,561,
0,639,662,335,321,555,
0,631,753,331,318,548,
0,623,742,327,315,542,
0,615,729,326,312,536,
0,608,719,323,317,531,
0,670,710,340,342,609,
0,674,699,345,337,600,
0,665,689,342,335,591,
0,655,679,339,332,584,
0,647,671,335,327,577,
0,639,711,332,326,571,
0,632,749,329,322,563,
0,624,737,326,319,558,
0,615,727,323,316,551,
0,609,716,320,321,545,
0,679,707,359,342,598,
0,670,696,353,338,588,
0,660,687,350,335,582,
0,652,677,347,332,575,
0,643,668,344,329,568,
0,636,766,340,326,560,
0,627,753,337,323,554,
0,620,742,334,319,547,
0,612,730,331,317,542,
0,605,719,327,322,536,
0,679,710,359,338,592,
0,670,699,355,335,583,
0,662,689,352,332,575,
0,652,679,348,328,569,
0,644,671,345,326,562,
0,636,770,342,323,556,
0,628,758,339,319,550,
0,620,745,335,316,543,
0,613,735,332,315,537,
0,606,724,329,342,569,
0,679,713,385,337,591,
0,670,704,382,334,582,
0,662,694,377,331,575,
0,653,684,374,327,568,
0,644,675,371,324,561,
0,636,769,368,321,555,
0,628,758,364,318,548,
0,620,746,360,316,542,
0,613,735,358,322,536,
0,606,724,355,344,590,
0,678,713,350,339,582,
0,668,704,347,336,573,
0,659,694,344,334,566,
0,651,684,341,330,560,
0,643,675,338,327,553,
0,635,765,335,324,547,
0,627,752,332,321,540,
0,619,741,329,318,534,
0,612,731,327,317,528,
0,606,720,325,332,593,
0,679,710,321,327,585,
0,670,699,319,325,576,
0,660,689,316,322,569,
0,652,679,314,319,563,
0,643,671,312,316,556,
0,636,769,309,312,550,
0,627,758,307,311,543,
0,620,746,304,307,537,
0,612,736,302,316,531,
0,639,724,376,334,572,
0,667,713,369,331,564,
0,657,704,366,327,556,
0,649,694,363,324,550,
0,639,684,359,322,543,
0,633,702,355,319,536,
0,624,768,352,316,531,
0,617,756,349,312,524,
0,609,744,346,311,519,
0,603,734,344,316,514,
0,676,723,351,334,575,
0,664,712,346,330,568,
0,654,703,343,327,559,
0,646,693,339,324,551,
0,638,684,336,321,546,
0,630,753,334,319,540,
0,621,756,331,315,534,
0,614,745,327,312,527,
0,607,734,326,312,521,
0,600,723,323,330,557,
0,675,712,370,326,587,
0,664,702,365,323,577,
0,654,692,361,319,571,
0,646,684,359,317,563,
0,638,674,355,314,557,
0,630,771,352,312,551,
0,622,756,348,308,543,
0,614,744,345,305,538,
0,607,734,342,312,532,
0,600,723,339,329,591,
0,683,712,337,326,583,
0,671,702,334,323,574,
0,662,692,331,319,567,
0,654,684,327,317,560,
0,645,674,324,314,553,
0,637,750,322,312,547,
0,629,735,319,307,540,
0,621,724,316,305,535,
0,614,713,314,315,529,
0,607,704,353,324,583,
0,649,694,369,321,575,
0,639,684,364,318,566,
0,631,675,359,315,560,
0,623,665,357,312,552,
0,615,657,354,310,546,
0,608,756,351,307,540,
0,600,742,348,304,534,
0,593,731,344,301,527,
0,587,719,342,310,523,
0,615,710,402,310,551,
0,652,700,396,307,544,
0,639,689,391,304,536,
0,632,679,387,302,531,
0,624,671,384,299,524,
0,616,684,380,297,519,
0,608,769,376,295,513,
0,601,754,373,292,508,
0,594,743,369,291,503,
0,588,732,366,319,498,
0,683,721,376,329,572,
0,671,711,372,327,564,
0,660,701,368,323,556,
0,652,691,364,320,550,
0,643,681,361,318,543,
0,636,753,358,315,536,
0,627,768,355,312,530,
0,620,752,352,309,524,
0,611,742,348,310,519,
0,605,731,345,330,536,
0,673,719,371,326,572,
0,664,710,368,323,564,
0,652,700,363,319,556,
0,644,689,359,317,550,
0,636,680,356,315,543,
0,628,775,353,312,536,
0,620,763,350,309,531,
0,612,748,347,305,525,
0,606,737,344,318,519,
0,599,728,340,325,578,
0,683,716,385,321,569,
0,670,706,382,318,563,
0,661,696,376,316,555,
0,652,687,373,312,547,
0,644,677,369,310,542,
0,636,783,366,307,536,
0,628,770,363,304,529,
0,620,755,359,302,523,
0,613,744,356,316,518,
0,606,734,356,340,574,
0,683,723,360,336,566,
0,671,711,357,333,559,
0,662,702,353,330,551,
0,654,692,350,327,543,
0,645,683,347,324,537,
0,637,780,344,321,531,
0,629,768,340,319,526,
0,621,753,338,315,519,
0,614,743,335,321,515,
0,636,732,367,334,575,
0,668,720,363,331,568,
0,656,711,359,327,561,
0,647,700,355,324,553,
0,639,691,352,321,547,
0,632,688,348,319,540,
0,624,775,345,316,535,
0,615,763,342,313,528,
0,608,748,339,310,523,
0,601,737,336,321,517,
0,672,727,361,327,575,
0,662,716,358,325,568,
0,651,706,354,322,561,
0,642,696,350,319,553,
0,634,687,347,316,547,
0,627,747,344,313,540,
0,618,763,340,312,534,
0,611,751,337,308,527,
0,603,736,334,306,523,
0,596,726,332,339,539,
0,668,715,361,335,577,
0,659,705,358,332,569,
0,647,696,355,327,563,
0,639,686,350,325,555,
0,632,676,347,323,548,
0,624,775,344,319,542,
0,615,763,340,316,536,
0,608,748,337,313,529,
0,600,737,335,311,524,
0,593,727,332,334,583,
0,667,716,364,330,575,
0,657,705,359,327,568,
0,646,696,356,324,561,
0,638,686,352,321,553,
0,630,677,348,319,547,
0,622,772,345,316,540,
0,614,760,343,312,534,
0,607,745,339,311,528,
0,600,735,336,316,523,
0,593,725,339,337,591,
0,665,713,367,334,583,
0,655,704,364,331,576,
0,646,694,359,327,569,
0,638,684,355,324,561,
0,630,675,352,322,555,
0,621,779,349,319,548,
0,614,766,345,316,542,
0,606,752,343,313,536,
0,600,740,339,319,530,
0,620,730,370,334,591,
0,670,719,366,331,583,
0,660,708,362,327,577,
0,649,699,359,324,569,
0,641,689,355,321,561,
0,633,679,352,319,555,
0,625,769,348,316,548,
0,617,758,345,312,542,
0,610,743,342,310,536,
0,603,732,339,326,531,
0,668,722,383,333,603,
0,657,711,379,329,595,
0,647,701,375,327,588,
0,638,691,370,323,580,
0,630,682,367,320,572,
0,622,724,363,318,566,
0,614,747,359,315,559,
0,607,735,356,312,552,
0,600,721,353,310,547,
0,592,711,351,332,541,
0,679,701,374,332,595,
0,668,691,370,328,588,
0,659,681,367,326,580,
0,648,672,362,323,574,
0,639,664,359,319,565,
0,632,758,355,317,558,
0,624,744,352,315,551,
0,616,733,349,312,545,
0,609,720,346,310,540,
0,602,710,344,334,587,
0,686,700,368,330,588,
0,675,690,364,327,580,
0,666,679,359,323,573,
0,655,671,356,321,567,
0,647,663,352,318,558,
0,639,759,349,315,551,
0,632,746,346,312,545,
0,623,735,344,310,539,
0,615,722,340,332,534,
0,608,711,345,354,611,
0,686,701,387,350,603,
0,676,691,384,347,595,
0,668,681,380,344,588,
0,655,671,376,340,580,
0,647,664,371,337,572,
0,639,760,368,334,565,
0,632,747,364,332,559,
0,624,736,361,328,551,
0,616,723,358,339,546,
0,625,713,381,339,628,
0,682,702,376,335,620,
0,673,692,372,332,612,
0,664,683,369,329,604,
0,653,673,364,327,596,
0,644,664,361,324,588,
0,636,759,358,321,582,
0,628,747,355,318,575,
0,621,736,352,316,568,
0,614,722,348,322,561,
0,681,711,352,327,625,
0,678,702,348,325,616,
0,668,692,344,322,609,
0,659,682,342,319,601,
0,649,673,337,316,594,
0,641,719,335,313,585,
0,633,760,332,311,579,
0,625,748,329,308,572,
0,617,736,327,306,566,
0,610,723,324,335,560,
0,688,712,321,337,609,
0,678,702,319,334,602,
0,668,692,316,331,594,
0,659,684,313,327,588,
0,649,673,311,325,579,
0,641,762,307,322,572,
0,633,749,305,319,565,
0,625,737,303,316,559,
0,617,727,300,313,552,
0,610,714,299,340,607,
0,675,704,338,337,601,
0,665,694,335,334,594,
0,655,684,332,331,587,
0,647,675,328,327,579,
0,637,665,325,324,571,
0,629,760,321,321,564,
0,622,747,319,319,558,
0,614,736,316,316,551,
0,606,724,313,313,545,
0,600,712,320,345,596,
0,668,701,350,342,588,
0,659,691,346,339,582,
0,651,682,344,335,574,
0,642,672,339,332,568,
0,632,664,335,329,559,
0,624,755,333,327,552,
0,616,743,329,323,547,
0,609,732,327,320,540,
0,602,722,324,318,535,
0,599,709,376,335,606,
0,652,698,371,332,598,
0,643,688,368,327,590,
0,635,679,364,326,583,
0,627,670,359,322,575,
0,617,662,356,319,568,
0,609,742,352,316,561,
0,601,730,350,314,555,
0,595,719,347,312,548,
0,588,710,344,313,542,
0,652,696,367,323,596,
0,659,687,363,321,589,
0,649,677,359,318,582,
0,641,668,355,315,575,
0,633,659,352,312,568,
0,623,703,348,310,560,
0,615,752,345,307,553,
0,608,740,342,304,547,
0,600,729,339,302,541,
0,593,719,335,318,536,
0,667,706,370,319,594,
0,657,696,366,317,587,
0,648,687,363,314,579,
0,639,677,359,312,572,
0,632,668,355,308,566,
0,622,763,352,306,557,
0,614,749,348,304,551,
0,606,737,345,301,544,
0,599,727,343,299,539,
0,591,716,339,330,574,
0,681,704,380,331,589,
0,671,694,376,327,582,
0,664,684,372,324,575,
0,654,675,368,321,568,
0,643,666,366,319,561,
0,636,749,360,316,553,
0,627,737,358,313,547,
0,620,726,355,311,540,
0,612,716,352,315,535,
0,605,705,348,327,615,
0,662,692,375,323,607,
0,652,684,371,319,600,
0,643,673,367,317,591,
0,636,664,364,313,585,
0,625,655,359,312,578,
0,617,747,356,308,569,
0,610,736,353,305,563,
0,603,724,350,303,556,
0,595,713,347,320,550,
0,589,704,374,321,611,
0,649,691,378,316,603,
0,639,681,375,313,595,
0,632,671,371,311,588,
0,624,664,368,308,580,
0,615,655,364,305,574,
0,607,753,359,303,566,
0,600,741,356,300,559,
0,592,730,353,297,552,
0,585,719,350,309,547,
0,651,710,372,321,595,
0,664,696,368,316,587,
0,655,687,364,313,579,
0,646,678,361,312,573,
0,638,668,358,308,566,
0,627,696,355,305,559,
0,620,750,351,303,551,
0,612,739,347,300,544,
0,605,728,344,298,539,
0,598,718,342,312,534,
0,671,707,355,331,549,
0,660,694,352,327,543,
0,651,684,348,323,536,
0,643,675,345,319,529,
0,635,666,342,318,524,
0,625,775,339,315,519,
0,616,772,335,312,512,
0,609,760,332,310,507,
0,601,748,329,307,502,
0,595,737,327,319,575,
0,671,723,343,339,588,
0,663,713,339,335,581,
0,654,704,335,332,574,
0,646,694,333,329,568,
0,637,684,330,327,560,
0,627,768,327,323,553,
0,619,755,323,319,545,
0,611,743,320,318,540,
0,604,732,318,319,534,
0,598,722,316,345,588,
0,659,708,354,341,579,
0,651,699,351,337,572,
0,642,689,347,334,566,
0,633,679,344,332,559,
0,625,671,340,327,552,
0,615,760,337,325,546,
0,608,748,334,323,539,
0,601,736,331,319,532,
0,595,726,327,319,527,
0,589,716,354,324,587,
0,660,703,359,320,579,
0,652,693,355,316,572,
0,643,684,352,314,565,
0,635,674,349,312,558,
0,627,665,345,309,551,
0,616,753,342,307,545,
0,609,741,339,304,537,
0,602,730,335,301,531,
0,595,719,332,319,526,
0,639,710,371,326,582,
0,653,696,367,323,574,
0,644,687,364,319,568,
0,636,678,359,316,560,
0,628,668,356,313,553,
0,620,683,353,311,547,
0,611,745,349,307,541,
0,603,734,345,305,534,
0,595,723,343,303,527,
0,589,712,339,322,522,
0,663,703,387,330,590,
0,652,689,382,327,583,
0,643,680,379,323,575,
0,635,671,375,319,568,
0,627,662,371,317,561,
0,619,742,368,315,556,
0,609,745,364,312,548,
0,602,734,359,309,541,
0,595,723,357,307,536,
0,588,712,354,319,560,
0,690,702,360,335,586,
0,679,689,358,332,579,
0,671,679,354,327,572,
0,662,671,351,326,565,
0,653,662,348,323,559,
0,645,763,344,319,551,
0,635,751,340,317,545,
0,627,739,337,314,537,
0,619,728,335,316,531,
0,611,717,332,337,595,
0,675,707,376,332,587,
0,665,695,373,329,579,
0,656,685,369,326,572,
0,647,675,366,323,566,
0,639,667,362,319,560,
0,632,760,359,317,552,
0,622,747,355,315,546,
0,614,736,352,312,539,
0,607,725,348,319,532,
0,600,715,356,324,590,
0,664,704,375,321,582,
0,654,691,371,318,574,
0,646,682,367,315,568,
0,637,673,364,312,561,
0,630,664,359,310,555,
0,622,760,357,307,547,
0,611,748,352,304,541,
0,604,737,350,302,534,
0,598,727,347,313,527,
0,641,717,359,313,575,
0,668,706,355,311,568,
0,659,694,352,307,562,
0,651,684,349,304,555,
0,643,675,346,302,548,
0,634,684,343,300,542,
0,627,757,339,297,536,
0,616,744,335,295,530,
0,609,734,333,292,523,
0,602,723,330,307,518,
0,653,713,364,310,575,
0,643,703,359,307,568,
0,635,690,356,304,561,
0,627,680,352,301,556,
0,619,671,350,298,548,
0,611,745,347,295,542,
0,604,757,344,293,536,
0,595,745,339,291,530,
0,588,734,335,289,523,
0,581,723,334,304,518,
0,649,713,348,307,532,
0,639,703,344,304,526,
0,632,691,341,300,519,
0,624,681,338,297,515,
0,615,671,335,295,509,
0,608,782,332,292,504,
0,600,768,329,291,499,
0,591,757,326,287,492,
0,584,745,323,289,487,
0,578,735,320,312,553,
0,649,723,339,311,546,
0,639,713,335,307,539,
0,632,700,333,304,532,
0,624,691,329,302,527,
0,616,681,327,299,521,
0,609,781,323,296,515,
0,601,768,321,294,509,
0,591,756,318,291,503,
0,585,745,316,302,497,
0,579,735,321,318,560,
0,647,723,342,314,553,
0,638,713,339,311,546,
0,630,701,335,307,540,
0,622,691,332,304,534,
0,614,681,329,302,527,
0,607,770,326,300,521,
0,600,758,323,297,515,
0,590,747,319,295,509,
0,583,736,317,303,504,
0,606,726,339,304,577,
0,641,714,335,301,569,
0,632,704,333,299,563,
0,624,691,329,295,556,
0,616,683,327,293,549,
0,609,688,324,291,543,
0,601,768,321,287,536,
0,594,756,318,286,531,
0,585,745,315,284,524,
0,579,734,312,291,518,
0,637,724,348,298,563,
0,627,713,344,295,556,
0,619,703,342,293,550,
0,611,691,338,289,543,
0,604,681,335,287,537,
0,595,756,332,285,531,
0,588,780,329,283,525,
0,582,768,326,280,519,
0,573,756,323,279,512,
0,568,745,319,295,524,
0,641,734,337,304,563,
0,632,723,334,301,557,
0,624,713,331,299,550,
0,615,701,327,295,543,
0,608,691,324,293,537,
0,600,795,321,291,531,
0,593,781,319,287,525,
0,583,768,316,286,519,
0,577,757,312,286,512,
0,571,745,310,307,566,
0,646,735,342,312,558,
0,636,724,339,310,551,
0,627,713,335,307,543,
0,620,702,332,303,537,
0,612,691,329,300,531,
0,605,793,327,297,526,
0,598,780,323,295,519,
0,588,768,319,293,513,
0,582,757,317,304,507,
0,575,745,315,316,563,
0,647,734,329,312,556,
0,638,723,326,310,550,
0,630,713,323,307,543,
0,621,701,319,304,536,
0,614,691,317,300,531,
0,606,793,314,298,524,
0,599,780,312,295,519,
0,590,768,308,293,513,
0,583,756,306,299,506,
0,623,745,304,300,547,
0,668,734,300,297,541,
0,659,723,299,295,534,
0,651,713,295,292,527,
0,642,701,294,289,522,
0,633,703,291,287,516,
0,626,796,289,284,511,
0,619,783,287,283,505,
0,608,771,286,280,499,
0,601,760,283,300,494,
0,665,748,304,314,551,
0,654,737,300,311,543,
0,646,727,297,308,537,
0,638,716,295,305,531,
0,629,704,292,302,524,
0,621,763,290,300,519,
0,614,791,287,296,513,
0,606,778,285,294,508,
0,596,766,283,291,502,
0,590,755,280,295,507,
0,646,743,332,295,551,
0,636,732,327,294,545,
0,628,721,324,291,538,
0,620,710,321,288,532,
0,612,700,319,286,526,
0,605,803,316,284,519,
0,598,790,313,281,514,
0,590,776,310,279,508,
0,582,765,307,279,504,
0,575,754,304,300,564,
0,647,742,308,310,560,
0,638,732,305,307,552,
0,630,721,302,304,545,
0,622,708,300,301,540,
0,614,699,297,297,534,
0,606,796,295,295,527,
0,599,782,292,293,521,
0,591,769,290,290,515,
0,583,759,287,291,510,
0,575,747,285,305,563,
0,656,736,287,302,556,
0,647,726,284,299,550,
0,639,715,282,295,543,
0,631,703,280,294,536,
0,623,693,278,291,531,
0,615,790,275,287,524,
0,608,777,273,286,519,
0,600,765,271,284,513,
0,591,753,270,300,508,
0,597,743,315,311,565,
0,648,731,310,307,558,
0,639,721,307,304,551,
0,632,711,304,302,544,
0,624,699,302,300,538,
0,615,689,299,295,532,
0,608,785,295,294,526,
0,600,772,294,291,519,
0,593,760,291,289,514,
0,585,750,287,289,509,
0,660,739,302,312,595,
0,658,728,299,308,587,
0,649,717,295,306,579,
0,641,707,294,303,572,
0,632,695,291,300,566,
0,624,748,289,297,560,
0,616,780,286,295,552,
0,609,768,284,292,546,
0,601,756,281,289,540,
0,593,745,313,305,535,
0,678,734,351,315,578,
0,668,723,347,312,571,
0,659,713,344,309,563,
0,649,704,340,307,557,
0,641,691,337,304,551,
0,633,790,334,300,543,
0,625,776,331,297,538,
0,617,764,327,295,531,
0,611,752,326,293,526,
0,601,742,322,316,521,
0,662,731,367,320,572,
0,652,719,363,318,565,
0,643,710,359,315,558,
0,636,700,356,312,551,
0,627,688,352,309,545,
0,620,787,350,306,539,
0,612,775,347,303,533,
0,604,762,344,300,527,
0,598,751,340,308,521,
0,589,739,337,312,547,
0,660,728,356,309,561,
0,652,718,352,306,554,
0,643,707,350,304,547,
0,635,698,346,300,541,
0,627,687,343,297,536,
0,619,776,339,295,529,
0,611,764,337,292,523,
0,604,752,334,290,518,
0,596,742,331,310,512,
0,588,731,393,312,574,
0,639,719,391,308,564,
0,631,710,388,305,557,
0,623,699,384,303,551,
0,615,689,380,300,544,
0,607,679,377,296,538,
0,600,783,374,295,531,
0,591,770,370,291,526,
0,585,759,367,289,519,
0,579,748,364,304,515,
0,637,736,359,305,585,
0,637,725,356,303,577,
0,628,715,353,300,571,
0,620,705,350,297,563,
0,612,696,347,295,557,
0,606,737,344,291,551,
0,598,780,340,289,543,
0,591,768,337,287,537,
0,583,756,335,284,532,
0,577,745,332,303,526,
0,653,735,350,304,573,
0,643,723,346,300,564,
0,635,713,343,298,558,
0,627,704,339,295,551,
0,619,694,336,293,544,
0,611,790,334,289,537,
0,604,775,331,287,531,
0,596,763,327,285,526,
0,589,752,325,283,520,
0,583,740,323,300,515,
0,651,729,319,304,560,
0,642,719,316,302,553,
0,633,708,313,299,547,
0,625,699,312,295,540,
0,617,689,309,294,534,
0,610,792,307,291,527,
0,602,779,304,287,521,
0,595,767,302,286,515,
0,588,755,300,301,511,
0,582,743,297,308,563,
0,646,732,327,304,588,
0,637,722,324,302,581,
0,628,711,321,299,574,
0,620,702,319,295,568,
0,612,692,316,294,561,
0,606,781,313,291,554,
0,598,768,311,287,547,
0,591,756,307,286,542,
0,583,745,305,302,536,
0,577,735,303,308,579,
0,646,723,329,305,570,
0,637,713,327,303,563,
0,628,704,323,300,556,
0,620,694,319,297,550,
0,612,684,318,295,543,
0,605,780,315,291,537,
0,598,768,312,289,531,
0,591,756,309,287,526,
0,583,745,307,303,519,
0,577,735,321,315,571,
0,651,723,331,312,561,
0,642,712,327,308,555,
0,633,703,325,306,548,
0,625,693,322,304,542,
0,618,684,319,300,536,
0,610,780,316,297,529,
0,603,768,313,295,524,
0,595,756,311,292,518,
0,589,745,308,304,512,
0,630,734,335,311,566,
0,651,723,331,307,558,
0,642,713,327,304,551,
0,633,704,324,302,543,
0,625,693,321,300,537,
0,617,699,319,297,531,
0,610,766,316,294,526,
0,603,754,312,291,519,
0,595,743,311,289,514,
0,588,732,307,307,509,
0,687,721,305,312,568,
0,676,711,302,309,560,
0,667,700,300,307,552,
0,659,691,297,304,546,
0,650,681,295,301,540,
0,642,766,292,299,534,
0,633,771,290,295,527,
0,626,759,287,292,521,
0,618,747,286,295,516,
0,611,736,284,306,533,
0,646,725,316,303,555,
0,637,715,312,300,546,
0,628,704,310,297,540,
0,620,695,307,295,534,
0,612,686,304,292,527,
0,605,783,301,289,521,
0,598,767,299,287,515,
0,591,755,295,284,510,
0,583,743,294,299,504,
0,577,732,291,305,564,
0,638,721,342,302,556,
0,630,711,337,300,548,
0,622,702,334,295,542,
0,614,692,331,294,536,
0,606,683,327,291,529,
0,599,780,324,289,523,
0,591,764,321,286,517,
0,583,752,319,284,511,
0,577,742,316,300,506,
0,572,731,329,306,563,
0,643,719,341,304,556,
0,634,710,337,300,547,
0,626,700,334,298,542,
0,618,690,331,295,536,
0,610,680,327,292,529,
0,603,778,324,290,523,
0,595,762,321,287,517,
0,588,751,319,285,511,
0,582,740,316,302,506,
0,620,729,344,311,563,
0,652,718,339,307,556,
0,643,708,335,305,548,
0,636,698,333,302,542,
0,627,688,329,300,536,
0,620,702,327,297,529,
0,611,779,323,295,523,
0,604,766,321,291,518,
0,597,754,318,289,512,
0,590,743,316,289,506,
0,644,732,316,310,564,
0,632,721,313,307,557,
0,624,711,310,304,548,
0,615,702,307,301,542,
0,608,692,305,299,536,
0,600,768,303,295,529,
0,593,780,300,294,524,
0,586,768,297,290,518,
0,579,756,295,299,512,
0,573,745,292,312,531,
0,655,734,326,308,563,
0,644,723,323,305,557,
0,636,713,319,303,548,
0,627,704,316,300,542,
0,620,694,313,297,536,
0,612,799,310,295,529,
0,604,782,307,292,524,
0,598,769,305,289,518,
0,590,758,303,307,512,
0,583,747,300,315,568,
0,648,736,335,312,560,
0,638,725,332,308,553,
0,630,715,327,305,545,
0,622,704,326,303,539,
0,614,696,323,300,533,
0,606,787,319,297,527,
0,599,771,316,295,520,
0,591,759,314,292,515,
0,584,748,312,299,510,
0,578,737,324,313,556,
0,645,726,337,310,548,
0,634,716,332,307,542,
0,626,705,329,304,534,
0,617,696,327,301,527,
0,610,686,323,299,521,
0,603,747,321,295,515,
0,595,732,318,294,510,
0,588,721,315,291,504,
0,582,711,312,295,499,
0,606,701,344,316,553,
0,641,691,340,312,547,
0,631,681,335,310,540,
0,623,671,333,307,532,
0,615,664,329,304,526,
0,608,671,327,302,519,
0,600,752,324,299,515,
0,592,738,321,295,509,
0,585,728,319,293,504,
0,579,717,316,301,499,
0,647,707,340,310,551,
0,637,696,337,307,543,
0,627,687,333,304,537,
0,618,678,329,302,529,
0,611,668,327,299,524,
0,604,739,323,295,518,
0,595,769,320,294,512,
0,588,755,318,291,506,
0,582,743,316,305,501,
0,575,732,312,312,512,
0,652,721,359,309,556,
0,643,711,355,307,548,
0,632,701,351,304,542,
0,624,691,348,301,534,
0,615,681,344,299,527,
0,608,780,341,295,521,
0,600,768,338,294,515,
0,593,752,335,290,511,
0,587,741,332,311,504,
0,580,730,329,310,574,
0,643,719,364,306,564,
0,635,708,359,303,558,
0,624,699,355,300,551,
0,615,689,352,298,543,
0,609,679,348,295,536,
0,601,784,345,292,530,
0,594,771,342,290,524,
0,587,757,339,287,519,
0,579,746,336,316,513,
0,573,736,334,319,571,
0,646,723,355,316,563,
0,637,713,352,312,556,
0,627,704,348,310,550,
0,618,694,345,307,541,
0,611,684,342,304,536,
0,603,788,339,302,529,
0,595,775,335,300,523,
0,588,760,332,295,517,
0,582,750,329,319,512,
0,595,739,373,323,569,
0,647,728,368,320,563,
0,638,717,364,318,556,
0,627,707,359,315,547,
0,620,697,356,312,541,
0,612,691,353,310,535,
0,604,787,350,307,528,
0,597,775,347,304,523,
0,590,760,344,300,517,
0,583,749,341,318,512,
0,658,738,376,320,564,
0,650,727,371,318,558,
0,641,716,368,315,551,
0,631,707,364,312,543,
0,623,696,359,309,536,
0,615,735,357,307,530,
0,608,739,353,304,524,
0,600,728,351,301,518,
0,593,715,347,303,513,
0,587,704,344,318,508,
0,646,695,368,315,526,
0,636,685,364,312,519,
0,628,676,361,310,514,
0,618,667,357,307,507,
0,610,659,353,304,502,
0,603,772,350,301,496,
0,595,759,347,299,491,
0,588,747,344,295,486,
0,581,734,341,327,481,
0,575,723,338,324,545,
0,648,711,358,319,546,
0,639,702,353,318,540,
0,631,692,350,315,533,
0,621,683,347,312,525,
0,612,673,344,310,519,
0,606,782,340,307,513,
0,598,769,337,304,508,
0,591,758,334,302,502,
0,583,743,332,316,497,
0,577,733,328,314,563,
0,645,721,327,312,555,
0,636,711,323,308,547,
0,627,702,321,305,542,
0,618,691,318,303,534,
0,610,683,315,300,527,
0,603,780,312,297,521,
0,595,768,310,295,515,
0,588,756,307,293,510,
0,582,743,305,318,504,
0,603,732,376,319,555,
0,655,720,371,316,547,
0,647,710,368,313,542,
0,638,700,364,311,535,
0,627,691,359,307,527,
0,620,681,356,305,521,
0,612,783,353,303,515,
0,604,770,350,300,510,
0,598,759,347,297,504,
0,591,744,344,312,499,
0,652,734,349,316,557,
0,643,723,345,312,550,
0,636,712,343,310,543,
0,625,702,339,307,537,
0,617,693,335,304,529,
0,609,738,333,302,524,
0,602,777,329,299,518,
0,595,765,327,295,512,
0,588,753,324,294,507,
0,582,739,321,311,502,
0,667,728,352,310,551,
0,657,718,348,307,544,
0,647,707,345,304,537,
0,638,698,342,302,531,
0,630,688,338,299,524,
0,622,781,335,295,518,
0,614,768,332,294,512,
0,607,755,329,291,507,
0,600,743,327,289,501,
0,592,731,323,312,558,
0,657,719,355,307,558,
0,647,709,352,304,551,
0,639,700,348,302,543,
0,629,689,344,300,537,
0,621,680,340,296,530,
0,614,785,337,294,524,
0,606,772,335,291,518,
0,599,760,332,289,512,
0,591,748,328,295,507,
0,584,736,327,312,570,
0,651,724,368,310,562,
0,642,713,364,307,556,
0,633,704,360,304,549,
0,624,694,358,301,542,
