314,90,-81,-43,24,-7,435,236,-220,25,125,142,-127,82,48,362,-144,-154,-421,295,1162,237,-181,-396,643,1827,-374,-295,-341,-291,-662,451072
36,41,-6,-31,-17,-26,11,-41,-148,-176,-336,-140,-27,-412,-134,48,-113,-73,-230,-46,369,-33,-168,-174,60,782,-160,-193,-212,-159,-50,451073
-93,19,42,3,-33,-25,-136,-13,53,-95,-104,-187,96,-211,-102,-80,-60,-9,-46,-153,-37,-126,-97,-13,-179,210,-4,-62,-68,-20,152,451074
-99,3,40,0,-32,-23,-155,-33,128,-131,60,-141,-84,-42,-71,-68,-57,-26,-10,-139,-60,-97,-74,6,-169,146,4,-35,-34,-3,130,451075
-48,4,37,-34,-23,-16,-90,-125,-30,-132,-101,-122,-63,93,-17,54,33,38,104,-27,89,21,33,81,-13,310,70,70,61,73,74,451076
-61,21,31,-41,-13,-21,-74,-157,102,-237,-272,10,-36,-1,-16,53,71,58,131,-16,66,24,81,100,-27,261,89,99,75,84,128,451077
-72,7,10,-39,-25,-30,-188,137,-113,-128,-146,-265,-129,-92,-54,-5,7,8,39,-73,-8,-41,12,20,-105,176,19,12,-3,11,124,451078
-7,4,15,-52,-14,-4,-241,12,-68,-68,-291,-89,-8,102,19,60,48,50,54,-11,93,25,39,46,-18,292,51,56,34,50,100,451079
227,22,-56,-78,10,13,146,221,-65,-88,-66,129,-18,166,15,307,11,-3,-97,251,722,231,22,-118,446,1155,-121,-24,-80,-50,-375,451080
370,62,-86,-65,36,20,513,323,-135,-198,56,144,54,64,31,475,-72,-80,-302,406,1243,338,-71,-328,771,1924,-303,-172,-240,-208,-726,451081
303,64,-85,-70,14,-14,426,139,-149,-101,82,24,-201,-175,-8,421,-121,-104,-373,320,1195,270,-153,-357,682,1920,-333,-234,-298,-248,-651,451082
89,48,-2,-33,6,-12,71,-9,-63,-126,-230,-154,-64,-366,-50,177,-85,-29,-193,74,550,63,-147,-150,200,1047,-136,-128,-169,-118,-66,451083
-105,18,87,-4,-7,-7,-199,-67,48,-85,-190,-238,18,-251,-3,-27,13,76,64,-120,-112,-78,-59,111,-224,120,109,43,49,63,344,451084
-3,13,70,-19,5,5,-74,-57,89,-45,-48,-159,61,-89,37,56,-18,21,-9,-14,70,-13,-64,13,-53,390,23,-25,3,17,51,451085
-2,11,72,8,9,23,-74,-36,99,116,33,-112,-21,-120,-96,-19,-83,-44,-78,-72,-19,-93,-125,-54,-139,287,-45,-106,-63,-46,10,451086
-61,2,51,31,-7,-5,-53,24,12,205,13,-172,112,-158,-126,-85,-98,-69,-73,-122,-133,-146,-143,-61,-213,146,-62,-114,-75,-60,25,451087
-91,-6,33,24,-21,-26,-68,-26,12,-105,-21,-156,175,-151,-24,-114,-57,-41,0,-136,-206,-144,-102,-15,-254,39,-18,-65,-33,-20,85,451088
70,26,17,18,15,9,102,96,-88,-15,157,-49,39,176,-46,30,-53,-72,-63,27,169,-4,-77,-101,23,540,-94,-96,-75,-61,-173,451089
386,54,-86,-35,41,35,494,234,-221,-98,251,230,-136,275,50,397,-136,-167,-366,382,1124,277,-136,-407,688,1901,-366,-285,-303,-264,-816,451090
498,92,-118,-65,38,34,619,152,-209,-188,43,290,-184,241,26,580,-141,-160,-487,514,1603,406,-148,-497,971,2603,-447,-338,-393,-327,-941,451091
423,106,-81,-66,30,-2,540,291,-201,-142,52,102,-135,143,26,530,-113,-111,-439,436,1534,361,-148,-429,872,2526,-395,-287,-361,-287,-771,451092
100,47,12,-81,-23,-28,123,63,-64,-110,-65,-160,63,-30,-69,187,-54,-7,-214,56,677,96,-116,-159,235,1346,-155,-147,-191,-130,12,451093
-104,15,88,-24,-21,-10,-115,-41,59,-189,-181,-251,190,-255,-110,-78,-21,27,-13,-215,-37,-111,-93,28,-220,352,20,-35,-41,-12,306,451094
-113,-1,71,17,-18,-12,-74,-149,-78,-90,-114,-265,95,-267,-103,-175,-102,-60,-47,-290,-216,-205,-151,-40,-327,104,-54,-98,-93,-71,126,451095
-101,7,73,40,-14,-15,-47,-86,16,59,-17,-255,-3,-197,-55,-132,-60,-14,27,-244,-195,-148,-80,18,-257,87,-16,-27,-23,-10,199,451096
-90,7,64,4,-12,-14,-31,24,81,137,17,-134,145,-90,-52,-55,23,49,87,-164,-120,-58,-3,79,-181,148,62,48,61,68,196,451097
-94,-6,30,-31,-31,-28,-27,-196,-92,-54,59,30,91,-24,-77,-58,14,20,68,-159,-103,-77,-10,40,-189,157,40,30,27,31,62,451098
-20,-3,15,-37,-16,-13,35,-115,-19,73,108,-31,-206,-79,0,10,15,12,54,-64,86,-12,29,6,-53,398,-4,29,4,6,-38,451099
474,72,-101,-55,71,39,575,85,-172,-190,278,111,-174,246,104,512,-82,-126,-339,454,1416,397,-63,-398,887,2273,-388,-204,-272,-231,-911,451100
748,117,-166,-82,98,50,843,499,-253,-226,498,256,-50,222,178,827,-188,-209,-677,743,2328,618,-182,-703,1457,3626,-656,-407,-522,-446,-1378,451101
718,128,-139,-98,71,59,795,543,-279,-226,347,145,-131,13,128,852,-207,-205,-726,709,2421,600,-235,-708,1457,3865,-662,-451,-574,-464,-1263,451102
231,71,-7,-89,-6,-9,182,267,-80,8,-183,-127,68,-41,-8,357,-117,-48,-378,176,1165,174,-198,-296,488,2193,-270,-249,-334,-233,-81,451103
-191,6,115,-48,-42,-41,-374,24,143,-37,-278,-269,80,-179,-140,-113,-5,91,45,-241,-127,-178,-80,119,-361,398,113,-6,-10,53,526,451104
-112,0,80,-47,-20,-30,-286,-51,76,-204,-160,-144,47,-318,-115,-73,-32,35,18,-153,-69,-150,-76,26,-258,490,30,-57,-33,16,225,451105
-143,-4,67,-39,-35,-49,-280,-171,8,-286,-108,-148,96,-243,-117,-81,29,89,97,-135,-165,-147,-16,100,-283,327,100,17,51,70,326,451106
-105,7,51,-18,-28,-43,-182,-42,37,61,-46,-119,49,-145,-9,-22,28,68,63,-71,-80,-103,0,63,-162,445,70,7,44,51,259,451107
-35,4,44,-21,-15,-17,-113,-47,-55,-36,25,-108,-128,-136,-34,47,7,43,17,-5,47,-45,-18,21,-58,626,34,-4,23,30,93,451108
44,3,23,-39,-14,-11,-33,-73,-53,118,98,14,74,-136,-19,137,-15,15,-20,79,277,36,-33,-41,106,942,-37,-25,-26,-9,-160,451109
510,89,-100,-51,51,22,591,202,-73,19,507,220,72,135,66,649,-112,-135,-353,591,1610,467,-100,-422,1045,2820,-410,-220,-286,-236,-1075,451110
832,163,-174,-74,84,37,1045,586,-86,-59,597,439,6,248,189,1035,-199,-237,-699,922,2724,755,-214,-739,1694,4427,-686,-430,-559,-442,-1497,451111
736,160,-160,-109,38,-3,952,412,-134,-71,474,247,-57,250,78,956,-192,-203,-724,792,2643,673,-235,-721,1500,4394,-655,-466,-605,-469,-1148,451112
197,87,0,-88,-29,-38,290,-113,-43,-147,-157,-35,23,77,-13,379,-75,-14,-339,174,1236,201,-150,-293,429,2478,-253,-255,-340,-226,-33,451113
-255,21,118,-41,-66,-82,-318,-563,123,120,-323,-177,87,-347,-82,-159,1,88,74,-353,-184,-204,-78,108,-501,475,104,-25,-31,37,550,451114
-228,9,106,-14,-49,-73,-340,-239,216,68,-62,-238,107,-350,-83,-221,-46,0,90,-377,-336,-242,-81,68,-532,232,71,-30,-12,21,412,451115
-186,0,105,-6,-38,-49,-302,-86,123,-8,-141,-212,9,-202,-53,-170,-15,14,139,-307,-277,-185,-32,93,-417,261,86,8,37,60,401,451116
-185,-17,67,-35,-54,-55,-266,9,165,-31,-233,-151,140,-74,-55,-112,30,72,186,-240,-251,-116,12,159,-327,265,161,88,125,126,391,451117
-144,-9,82,-26,-34,-38,-204,-26,204,100,7,-64,215,-61,-73,-65,57,96,207,-179,-196,-68,38,192,-231,283,186,143,170,163,403,451118
-78,-8,61,-23,-23,-32,-137,-223,55,108,167,27,-15,-30,-70,3,34,48,127,-89,-24,-19,19,103,-47,503,99,101,124,105,174,451119
239,53,-22,-32,28,13,221,152,-22,220,130,104,-93,109,24,341,-33,-50,-168,251,857,255,-57,-194,560,1745,-175,-83,-85,-75,-436,451120
347,70,-76,-70,17,-3,318,244,8,23,39,75,-133,141,69,461,-106,-130,-379,339,1266,309,-159,-384,755,2380,-352,-230,-262,-220,-693,451121
421,81,-86,-73,19,0,416,239,-120,-90,52,137,-60,174,88,501,-163,-178,-478,374,1505,321,-200,-472,840,2776,-432,-305,-375,-306,-799,451122
180,41,-33,-91,-31,-50,149,33,-157,-113,61,63,-37,112,67,252,-143,-136,-342,103,956,100,-186,-321,377,2077,-296,-233,-304,-241,-265,451123
-182,-12,59,-80,-76,-94,-324,-149,10,-116,-49,-137,-39,-48,-60,-91,-11,31,37,-222,-39,-150,-51,57,-306,686,54,-2,-9,20,352,451124
-138,-8,52,-83,-54,-63,-316,24,-10,-123,-182,-154,-90,-67,-61,-41,37,70,120,-143,-37,-86,12,104,-232,670,104,48,63,80,295,451125
-127,-9,44,-58,-54,-52,-271,-86,26,-63,-51,-104,169,89,-110,-37,27,54,97,-134,-43,-83,12,77,-194,651,92,36,65,62,287,451126
-96,14,55,-38,-38,-45,-183,-88,73,127,52,16,76,-102,-22,-11,23,52,100,-96,-29,-69,12,78,-152,671,86,40,63,67,234,451127
-69,16,55,-23,-33,-36,-142,-68,33,22,-30,-31,138,-217,31,46,48,68,132,-53,22,-21,37,92,-101,728,86,77,91,84,172,451128
-28,24,59,-23,-14,-13,-128,53,-57,91,-48,-94,213,-119,-82,58,16,28,63,-23,122,-11,6,32,-36,850,22,40,37,27,44,451129
364,91,-42,-9,57,38,374,-40,-146,-50,152,50,121,79,22,441,-103,-116,-317,368,1158,300,-125,-328,711,2328,-311,-194,-225,-186,-777,451130
609,121,-103,-43,71,56,695,248,-150,-175,509,239,182,160,86,715,-177,-194,-591,603,1960,503,-194,-583,1190,3488,-553,-356,-429,-361,-1106,451131
505,109,-67,-77,44,40,592,302,-138,-102,368,165,172,72,49,651,-108,-119,-477,513,1811,459,-124,-466,1021,3314,-432,-280,-365,-290,-744,451132
186,64,20,-73,-9,-7,205,155,59,17,240,-87,116,81,-29,321,-34,-8,-207,158,978,171,-67,-182,390,2185,-164,-134,-187,-116,-55,451133
-150,19,108,-40,-49,-43,-252,-98,29,-142,-100,-165,81,-130,-95,-55,17,77,74,-210,-31,-128,-20,104,-278,789,90,26,30,60,376,451134
-173,6,103,-38,-46,-42,-327,-46,-18,-261,-206,-128,294,-166,-151,-117,-5,47,62,-244,-162,-172,-50,61,-340,600,58,-2,20,28,267,451135
-206,-21,81,-58,-69,-67,-382,36,35,-195,-53,-54,282,-197,-79,-104,22,69,131,-205,-197,-148,-18,104,-323,522,101,52,66,77,310,451136
-195,-31,60,-61,-74,-79,-324,-193,108,27,108,-55,200,22,-45,-7,96,139,207,-108,-123,-47,64,170,-222,574,172,124,151,154,320,451137
-185,-13,68,-20,-52,-48,-226,-181,221,0,-30,6,166,137,-16,6,128,154,224,-105,-159,-39,95,198,-226,497,200,143,183,170,303,451138
-122,-4,57,-13,-28,-33,-147,-130,144,6,15,-172,80,-69,-64,-34,64,71,140,-127,-173,-71,41,122,-205,495,113,65,117,93,245,451139
19,12,26,-23,-5,-8,-70,20,43,-40,-59,-142,74,-85,-100,37,-24,-14,1,-46,89,-22,-45,-26,-40,881,-16,-27,9,-3,-49,451140
17,-4,-1,-51,-18,-21,-151,9,-59,44,-135,-108,-26,-105,-81,54,-27,-9,0,-35,131,-19,-51,-20,-24,946,-17,-26,-21,-7,-87,451141
43,9,6,-64,-18,-19,-107,-107,-51,-35,-115,73,86,23,-66,114,2,4,-21,44,285,49,-22,-45,91,1169,-27,-37,-28,-13,-56,451142
-22,6,17,-53,-46,-35,-160,-268,72,-129,-180,15,30,-84,-97,68,11,27,2,-21,183,12,0,5,3,1016,12,-13,4,1,73,451143
-145,-18,43,-22,-48,-43,-337,-186,2,-42,-263,-75,91,-157,-50,-122,-12,18,55,-211,-243,-151,-46,78,-290,415,65,17,48,22,219,451144
-111,-23,35,-12,-22,-35,-298,58,36,114,57,-36,30,-222,-78,-109,0,13,57,-186,-230,-132,-22,88,-251,396,53,30,43,32,174,451145
-80,-11,31,-5,-24,-39,-173,46,1,171,-10,23,46,-56,-25,-23,63,77,122,-95,-119,-44,66,141,-139,496,99,85,91,91,214,451146
-105,11,54,10,-22,-31,-129,88,-17,34,-55,-45,122,-162,-52,-10,116,127,204,-87,-185,-23,110,236,-163,356,190,158,166,158,266,451147
-121,0,55,3,-32,-32,-160,-149,55,-41,-83,-132,121,-147,57,-16,98,101,178,-106,-208,-43,99,226,-189,282,169,140,164,140,310,451148
-61,-12,25,-26,-28,-33,-127,-201,92,-131,16,-40,-13,11,7,66,84,69,111,-24,-33,16,85,180,-60,513,106,96,116,99,155,451149
-7,-3,26,-16,-11,-15,-118,29,51,-49,44,5,85,86,-87,68,39,43,90,-17,6,10,38,155,-51,578,80,73,84,75,89,451150
-34,-12,40,-6,-3,-10,-146,-163,108,34,23,-48,111,-56,-77,-22,1,12,71,-106,-146,-71,0,140,-183,397,60,42,47,46,106,451151
-108,-27,45,0,-21,-8,-166,-204,181,106,50,-126,32,-14,-40,-116,-16,-5,107,-180,-320,-151,-3,158,-301,163,73,42,53,51,190,451152
-72,-6,38,16,-11,-13,-77,-147,106,74,122,13,99,23,64,-64,15,23,127,-100,-197,-84,30,162,-189,322,80,84,83,63,63,451153
-58,-14,-1,-10,-25,-31,-70,-173,-28,55,-2,-39,-21,50,31,-17,15,19,76,-53,-85,-45,20,146,-104,494,54,60,71,38,13,451154
-53,-10,13,-7,-16,-24,-89,-160,-30,14,118,0,-1,-12,1,-12,43,55,55,-39,-73,-28,22,162,-86,520,69,54,82,57,114,451155
-85,-19,34,-6,-18,-15,-177,-201,22,92,-11,-17,33,-5,-12,-124,1,21,13,-137,-241,-112,-25,134,-227,317,54,10,45,36,159,451156
-75,-32,41,-19,-16,-2,-236,-192,-21,78,-289,-116,-5,-25,-34,-145,-59,-22,-16,-163,-267,-144,-63,95,-255,298,23,-29,10,-6,80,451157
-63,-31,38,-32,-11,-2,-229,-82,32,-172,-467,-68,-56,-38,27,-78,2,25,89,-97,-206,-74,12,177,-176,371,71,51,79,63,115,451158
-128,-13,62,-1,-1,-9,-235,-68,103,-80,-168,-77,83,-124,-18,-59,86,106,225,-98,-316,-68,98,290,-240,176,179,142,167,146,256,451159
-285,-24,101,57,-28,-21,-307,-167,167,58,-56,-77,-30,-164,-58,-238,87,110,306,-275,-759,-219,100,371,-562,-451,252,179,217,189,570,451160
-398,-47,123,102,-43,-24,-417,-320,204,211,-280,-195,-29,-193,-21,-455,73,110,400,-466,-1247,-382,106,464,-880,-1164,338,226,282,236,802,451161
-422,-71,130,109,-37,-30,-469,-265,216,102,-260,-134,205,-66,-78,-532,111,138,472,-497,-1441,-398,151,529,-965,-1510,385,277,352,284,808,451162
-183,-44,67,81,-17,-2,-177,-108,255,86,70,57,146,-98,14,-241,130,108,356,-194,-814,-147,175,395,-442,-716,254,236,299,227,298,451163
6,-8,6,46,12,19,90,60,44,32,14,126,89,-28,49,5,67,28,126,30,-166,16,129,161,-9,144,60,101,122,72,-36,451164
-22,0,6,46,8,13,109,-5,4,130,153,139,1,-11,13,-21,44,4,86,1,-147,-8,94,138,-25,124,44,88,86,43,-14,451165
-40,1,-11,25,0,-2,37,28,-25,110,-57,100,49,97,20,-48,-1,-31,78,-42,-158,-32,41,123,-69,112,27,64,48,20,-13,451166
-33,1,0,2,13,-3,-108,-144,64,-250,-120,107,53,218,11,-81,3,-6,85,-79,-211,-67,43,130,-143,24,53,60,42,20,63,451167
-60,-24,6,-19,7,-11,-201,-60,41,-31,3,66,-21,242,-33,-100,12,19,60,-93,-289,-99,44,143,-209,-91,76,56,55,41,129,451168
-96,-38,-2,-17,-12,-24,-189,31,-25,-96,-96,50,-85,23,6,-92,65,68,110,-91,-339,-86,81,199,-220,-169,130,101,108,88,263,451169
-483,-80,115,33,-55,-53,-578,-280,143,6,-370,-243,-7,-178,-47,-487,203,230,493,-478,-1390,-376,202,582,-938,-1693,485,360,399,329,1042,451170
-568,-99,142,75,-40,-29,-629,-276,55,10,-420,-290,192,-296,-151,-684,154,166,550,-627,-1835,-517,169,595,-1180,-2319,479,355,422,338,987,451171
-516,-102,138,88,-18,10,-611,-366,114,40,-434,-233,209,-355,-97,-689,112,107,529,-612,-1845,-508,171,561,-1114,-2352,445,317,394,309,793,451172
-245,-57,45,81,11,7,-273,-119,108,88,-309,24,-41,-47,38,-383,58,20,322,-280,-1118,-250,137,339,-532,-1358,251,207,285,187,175,451173
64,-17,-69,28,18,5,132,49,-117,-56,80,145,-182,376,92,-1,1,-68,19,109,-108,49,72,48,146,64,-16,48,73,9,-306,451174
55,-7,-47,25,15,1,92,51,-39,-18,-46,92,-119,267,22,49,55,0,64,121,-23,89,100,120,165,189,46,111,110,48,-160,451175
47,3,-30,27,30,34,64,74,-17,46,129,69,-58,141,7,19,56,15,90,85,-90,61,104,141,77,134,70,110,112,54,-66,451176
43,0,-20,49,38,35,100,11,-114,44,-91,49,-23,16,-37,-31,14,-28,35,37,-123,7,47,98,29,122,6,30,50,-3,-44,451177
16,-6,-28,69,20,13,90,44,-148,134,-59,50,-64,-74,-124,-93,-40,-77,-40,-20,-175,-43,-13,35,-41,97,-51,-38,-20,-57,-37,451178
-88,-6,-8,88,-3,-7,-6,102,-44,35,-192,3,-49,-149,-52,-172,-31,-36,31,-122,-397,-116,-18,104,-237,-216,36,0,10,-2,101,451179
-441,-67,79,76,-69,-52,-449,-142,85,13,-272,-57,68,-236,-9,-483,81,122,380,-455,-1322,-362,109,461,-877,-1547,365,217,267,227,838,451180
-609,-99,136,90,-72,-48,-669,-454,65,78,-169,-165,173,1,-84,-692,136,163,579,-637,-1925,-515,179,656,-1248,-2478,534,344,434,355,1085,451181
-647,-121,123,105,-55,-40,-696,-409,145,221,-170,-265,99,-164,-174,-765,155,174,642,-673,-2154,-566,213,693,-1339,-2906,558,396,502,384,1008,451182
-283,-84,34,110,4,12,-250,30,81,-45,-23,-90,121,-40,-85,-411,113,70,406,-268,-1285,-254,199,423,-613,-1774,296,276,349,247,244,451183
103,-14,-67,74,47,46,259,137,130,53,133,208,166,216,74,25,53,-25,74,145,-142,102,138,97,180,-219,17,113,123,54,-270,451184
73,-7,-66,55,18,7,257,18,61,267,73,190,200,370,56,43,55,6,47,143,-57,117,104,106,184,-147,45,114,113,54,-156,451185
81,3,-32,51,35,30,216,123,7,193,-26,139,-40,273,101,44,43,-3,18,121,-20,101,81,82,165,-90,33,76,61,38,-143,451186
93,-8,-36,23,41,49,191,64,-111,38,-1,111,-62,236,69,39,13,-39,-54,102,63,85,39,13,178,12,-28,22,-2,-17,-219,451187
98,3,-45,1,47,53,224,79,-104,-68,18,106,-181,108,-46,27,-28,-65,-124,80,104,61,-3,-64,184,90,-98,-52,-65,-80,-268,451188
-42,-12,-3,13,21,29,57,-73,-67,-128,-116,-47,45,-39,-63,-161,-55,-58,-80,-128,-305,-105,-24,6,-162,-448,-22,-50,-50,-67,121,451189
-751,-132,156,43,-84,-60,-877,-417,128,82,-609,-337,61,-171,-118,-877,153,212,555,-844,-2242,-662,162,655,-1508,-3192,579,355,425,347,1484,451190
-844,-160,144,78,-92,-72,-1069,-438,137,-1,-760,-329,-122,-193,-131,-966,233,277,820,-871,-2690,-695,267,844,-1659,-3884,748,531,631,508,1497,451191
31,13,2,13,-10,-6,-47,187,-6,19,19,28,-23,-25,38,30,-5,1,9,13,125,9,-11,21,58,337,19,3,-10,5,32,461764
-16,12,25,19,-4,-3,-195,153,-6,23,-80,94,115,-10,118,1,27,47,74,-25,6,-5,22,91,-10,154,88,57,42,49,62,461765
-57,-18,29,-19,-22,-2,-283,-131,71,-133,-316,73,29,42,26,8,53,84,83,-18,-1,18,40,119,-8,108,103,83,69,69,20,461766
-48,-7,22,-28,-15,-1,-269,-305,57,22,100,53,175,39,21,8,62,77,74,-2,-11,19,43,102,-2,115,61,59,48,67,-9,461767
-28,-2,23,-6,-2,17,-224,66,34,83,61,20,93,138,70,14,58,76,84,5,-24,17,37,112,-23,79,68,60,59,79,-4,461768
76,11,-3,-2,18,16,45,71,9,110,-161,-13,-37,123,90,127,38,47,13,107,237,94,18,35,149,455,6,6,9,26,-125,461769
109,10,-27,9,2,0,194,-259,-110,-5,-102,-29,79,4,32,118,-33,-36,-113,93,327,69,-47,-83,172,625,-114,-95,-90,-79,-210,461770
92,9,-29,20,8,2,181,-198,-76,5,-101,-122,79,57,-60,41,-90,-103,-166,23,254,-5,-98,-132,82,557,-167,-147,-144,-150,-345,461771
34,9,-10,23,5,0,108,-55,-117,-61,-77,-129,24,-5,-38,-23,-90,-101,-120,-47,90,-49,-100,-86,-25,337,-110,-110,-116,-127,-204,461772
14,11,20,25,15,10,77,-33,21,51,-147,-45,-81,-12,-7,14,-16,-24,-20,-4,52,-2,-16,10,-4,249,-9,-20,-29,-40,-40,461773
-28,-3,13,5,4,-6,38,-45,118,99,-291,3,-31,26,0,10,16,18,37,8,23,-5,18,68,-30,187,37,20,12,15,15,461774
-37,20,17,28,5,-4,46,68,16,-2,82,28,149,37,-10,-4,24,30,61,0,-19,-26,23,85,-66,133,67,41,27,41,119,461775
-32,22,22,43,17,-2,32,97,-18,149,142,-85,127,-70,-51,-25,1,5,46,-35,-77,-61,-5,83,-106,42,50,12,13,26,52,461776
-42,6,19,47,7,0,0,-35,19,163,-4,-49,78,62,-63,-53,-15,-5,57,-53,-148,-67,-6,80,-138,-60,49,0,14,22,107,461777
26,19,-1,43,8,4,97,5,43,74,59,-79,-109,-34,-44,20,-38,-36,-7,32,49,-1,-28,5,14,208,-10,-49,-24,-16,-142,461778
69,13,-20,9,7,-5,142,4,-51,68,69,-30,-91,-84,1,78,-57,-49,-86,76,224,48,-61,-66,109,462,-63,-105,-82,-61,-199,461779
64,21,3,23,13,14,132,4,-73,27,44,9,136,-124,3,54,-47,-34,-82,41,193,24,-49,-63,73,441,-75,-102,-96,-66,-137,461780
57,27,23,8,10,29,153,-41,-30,-60,107,64,32,29,73,47,-28,-19,-81,11,169,11,-40,-44,57,409,-75,-83,-84,-63,-122,461781
-24,-2,16,-22,-2,12,65,-107,49,-32,266,-32,-109,127,26,-35,-49,-25,-51,-78,-5,-50,-51,6,-75,194,-25,-63,-51,-48,-21,461782
-74,-12,25,-11,-10,-2,-51,-291,-22,18,-63,-118,-19,38,-50,-134,-59,-46,-5,-171,-230,-121,-66,48,-235,-107,25,-25,-23,-20,126,461783
-55,-13,22,-2,-3,-4,-30,-17,78,-50,-183,-43,74,-60,-72,-109,-12,-12,45,-150,-234,-100,-23,85,-218,-150,55,20,17,16,95,461784
-36,-1,24,28,14,0,43,-217,97,-151,141,-22,106,-181,46,-75,10,14,67,-110,-186,-58,25,92,-165,-89,55,51,34,23,61,461785
-53,-14,-4,27,-7,-4,95,-287,81,7,-30,13,79,-78,-53,-71,-29,-20,5,-105,-114,-64,-12,26,-116,14,-13,0,-18,-28,4,461786
-45,2,11,43,1,4,115,-244,24,-25,-12,-40,-24,-37,-32,-59,-22,-8,-9,-93,-111,-60,-14,33,-101,36,-10,-18,-11,-23,50,461787
-94,-9,0,20,-23,-26,87,-191,70,-159,-52,-17,10,117,-83,-83,-44,-26,-17,-117,-148,-85,-27,19,-123,-7,-20,-25,-36,-38,-15,461788
-79,-21,-5,-7,-23,-26,26,-107,17,1,39,-17,57,-75,-24,-60,-50,-39,-39,-96,-84,-81,-30,-7,-75,79,-44,-41,-69,-53,-17,461789
-17,-10,10,-6,2,11,-45,-126,88,-18,-187,53,-69,-154,-22,-9,-30,-35,-20,-39,-12,-34,-15,6,-22,166,-26,-18,-52,-38,-65,461790
50,10,19,-1,27,36,-42,29,-71,-24,-46,109,-98,-147,8,31,-26,-17,-16,8,67,-5,-5,1,25,267,-25,-18,-53,-27,-71,461791
36,6,17,10,19,19,-27,-28,31,-138,170,148,-25,78,29,44,14,28,31,25,59,3,37,46,11,221,22,29,11,12,-21,461792
9,-4,-10,-8,2,3,-25,-76,6,14,214,64,36,57,3,71,42,71,43,57,69,54,44,99,51,193,42,62,58,48,-62,461793
35,7,-9,-8,19,16,12,-101,54,-155,102,-28,-70,45,18,102,54,45,14,103,141,89,39,73,98,276,19,37,49,50,-20,461794
27,4,-7,-13,4,3,20,22,-2,-118,-42,-51,-262,137,20,56,13,6,-32,81,109,45,1,32,70,246,-8,-15,6,0,-28,461795
53,0,-23,-13,-2,-4,47,134,56,53,19,-62,-163,80,45,74,-13,-15,-56,96,183,49,-14,3,118,378,-44,-28,-23,-26,-108,461796
72,1,-23,-11,0,0,52,54,6,-33,106,30,-21,133,21,115,-5,2,-53,129,263,77,6,-2,170,471,-54,-23,-28,-20,-134,461797
28,0,3,5,1,4,-20,-55,-26,-56,24,-7,64,-9,33,53,6,15,-17,59,125,40,21,32,72,290,-16,-13,-11,-4,30,461798
-28,-22,6,7,-8,2,-114,-226,-69,-193,11,-136,-121,-98,-81,-43,-20,-14,2,-44,-74,-33,-10,40,-81,31,-1,-28,-11,-9,62,461799
28,-11,-1,-4,2,7,-26,-189,-77,-125,-42,-68,-93,-13,-65,2,-30,-26,-22,3,61,-8,-14,4,1,241,-27,-42,-39,-34,-76,461800
22,-3,3,-13,-2,-5,20,51,59,-24,-133,35,46,161,1,23,0,5,11,7,67,0,10,39,11,248,28,5,-5,7,24,461801
-19,-3,20,-4,-2,2,-17,-39,109,113,-64,-1,-48,-11,70,-11,15,18,43,-31,-49,-25,19,77,-61,100,57,25,25,37,47,461802
-36,-7,17,-11,0,9,-45,-6,21,63,-27,-98,-30,-137,26,-44,-22,-24,14,-64,-96,-59,-14,31,-97,57,11,-20,-6,-10,43,461803
-13,4,11,-10,5,1,-7,-18,10,-85,-187,-33,88,-63,26,-29,-22,-24,-14,-57,-34,-45,-16,13,-69,134,-12,-31,-29,-26,-31,461804
-20,5,4,6,-4,-20,41,37,48,-95,-60,2,-91,-53,-56,-5,-7,-6,-18,-47,-17,-24,3,30,-57,156,-7,-10,-10,-1,-30,461805
-70,8,7,21,-15,-30,39,-101,-65,38,206,38,-14,-131,-51,-24,9,11,22,-66,-93,-35,27,76,-92,52,16,37,17,31,84,461806
-79,1,0,13,-12,-26,35,167,-77,8,182,24,-50,-104,33,-42,18,18,50,-73,-109,-34,33,79,-88,38,10,41,23,42,142,461807
-80,5,17,15,-2,-13,18,36,36,106,68,21,-58,9,-12,-64,24,31,94,-76,-153,-32,39,113,-103,-37,38,78,58,55,146,461808
-209,-37,39,-1,-33,-26,-248,-116,-20,141,-154,30,63,133,-9,-235,18,45,185,-243,-595,-165,36,221,-420,-687,144,117,133,114,369,461809
-211,-44,36,14,-18,-29,-370,-207,122,189,-186,-176,13,140,-112,-277,58,62,220,-269,-766,-200,63,260,-527,-967,189,145,179,151,423,461810
-182,-38,47,15,-3,-25,-321,-69,88,100,-236,-145,31,-169,-44,-212,106,104,284,-194,-698,-142,111,299,-433,-928,237,198,233,194,405,461811
-72,-25,17,27,12,8,-113,95,15,229,-84,-34,114,-82,-3,-67,67,58,193,-43,-328,-39,87,186,-171,-452,148,136,155,126,83,461812
52,3,-13,13,22,24,58,279,12,149,106,133,-42,-9,-48,46,-7,-18,-14,68,47,41,10,16,60,86,-30,-12,-7,-2,-176,461813
61,-8,-4,-19,7,27,16,193,45,-116,-111,60,129,144,-22,22,-15,-28,-47,55,77,49,4,-14,68,128,-66,-54,-50,-38,-149,461814
4,-20,-1,-34,-6,15,-44,197,99,-159,-127,-74,-62,91,14,-2,16,7,2,32,-5,43,44,38,25,11,-23,-17,-6,-2,-28,461815
10,-13,7,-20,4,7,9,-11,-22,59,-120,-41,-89,139,-67,49,25,27,22,68,64,78,63,50,79,92,-9,9,11,17,-35,461816
-3,-2,30,5,7,24,-2,34,-15,47,-113,35,-186,-73,-72,22,14,15,17,34,15,37,44,50,28,18,-12,8,16,5,2,461817
-43,-14,39,9,9,35,-95,-37,30,98,-85,19,43,-125,-73,-81,-15,-3,15,-69,-180,-70,0,60,-117,-231,-11,-4,17,-4,209,461818
-224,-37,98,43,-8,17,-352,-83,104,153,-156,1,143,-219,-89,-270,73,106,226,-262,-761,-197,73,295,-475,-1075,198,154,191,139,631,461819
-293,-39,103,63,-21,-14,-397,-39,72,103,-138,-6,-122,-99,-33,-310,147,172,365,-289,-989,-210,143,416,-568,-1443,317,252,306,242,657,461820
-275,-40,58,56,-35,-38,-262,-50,107,-111,-1,49,-150,6,-10,-231,174,190,371,-203,-862,-136,190,413,-450,-1329,324,291,337,271,470,461821
-131,-21,7,44,-3,-18,-31,-208,-20,-120,154,104,-100,132,42,-70,131,125,231,-33,-428,9,147,245,-144,-734,152,195,211,163,136,461822
40,6,-21,27,40,28,124,1,17,-120,291,118,78,123,143,59,35,30,11,79,-12,84,68,40,108,-89,-38,37,26,4,-127,461823
48,-2,-23,16,37,21,66,133,-79,-42,138,-63,-34,-6,106,17,-7,-23,-46,33,-24,34,29,1,59,-67,-81,-14,-20,-35,-111,461824
65,-13,-26,11,30,23,75,57,-159,-180,21,-57,-84,16,-28,12,-49,-75,-73,19,3,12,-16,-37,53,-5,-111,-55,-58,-59,-148,461825
77,-15,-36,18,23,9,118,134,-58,-180,54,-53,-67,42,-57,-2,-27,-64,-24,1,-27,-12,-6,9,35,-34,-64,-19,-28,-39,-30,461826
73,-4,-25,19,14,-5,154,66,-84,-57,89,23,-164,80,36,13,0,-24,27,22,-7,9,28,52,57,-13,-10,35,9,-4,-61,461827
16,-6,-29,6,-7,-4,109,-28,-75,4,253,46,-186,68,62,-3,14,8,39,5,-37,17,28,81,33,-57,18,55,41,18,-1,461828
-65,-14,-11,6,-21,-21,-34,-79,16,-92,130,-83,-37,203,5,-70,39,50,83,-61,-204,-10,57,140,-83,-319,74,85,84,65,127,461829
-162,-28,20,8,-27,-34,-189,-57,26,-7,-116,-61,-13,63,-41,-162,74,90,148,-151,-475,-88,80,220,-242,-721,154,123,139,119,376,461830
-163,-25,38,23,-10,-17,-212,-192,-6,25,-190,-30,-33,-84,4,-190,53,85,149,-157,-548,-107,62,213,-270,-847,144,113,144,113,314,461831
-37,-12,17,25,10,12,-95,-36,-54,64,-49,-68,-51,-23,16,-69,31,44,82,-36,-300,-33,57,128,-92,-520,41,69,101,63,128,461832
66,2,-15,10,15,13,77,71,-5,-101,170,81,118,66,57,56,-22,-9,-28,84,60,46,21,-10,104,-10,-81,-3,-12,-24,-191,461833
14,0,-28,3,-9,-23,60,28,31,8,90,175,-47,214,23,75,4,24,7,90,50,56,32,24,75,-14,-33,20,18,12,-121,461834
-25,-5,-12,8,-6,-12,-6,-182,-49,-31,113,21,-140,186,35,64,52,58,72,74,-44,66,80,108,27,-178,40,84,89,64,62,461835
9,-13,-16,-1,-8,-1,-6,-50,-91,-173,-66,37,-179,94,22,72,17,10,25,78,-9,54,47,65,48,-103,-8,54,51,19,-13,461836
-7,-21,-11,-17,-14,11,-65,-176,11,-151,11,7,-23,-114,-56,-4,-39,-36,-16,16,-113,-19,-31,25,-79,-211,-47,1,1,-23,-28,461837
41,-4,-1,10,20,41,-39,-58,-44,-19,13,-47,-59,40,-32,-22,-40,-37,-29,22,-53,-9,-28,-20,-38,-115,-75,-28,-41,-37,-117,461838
49,-1,3,14,16,29,2,96,7,36,-117,-8,56,81,-19,-6,-4,-2,-13,31,10,10,14,11,23,-40,-54,-5,-29,-23,-10,461839
-1,0,-12,-4,-4,-5,18,119,-27,47,25,66,-91,-12,0,20,21,9,10,42,-2,42,41,60,60,-78,3,45,26,21,37,461840
7,-2,-34,-14,-15,-23,81,81,14,174,120,120,-53,85,-36,43,9,-10,10,76,96,50,39,38,136,62,-7,52,35,9,-18,461841
-6,-5,-19,-8,-26,-23,64,75,53,69,-59,160,178,12,92,29,18,7,3,33,68,37,47,39,94,22,-20,49,20,-6,37,461842
-37,-9,-4,5,-8,-1,-9,-90,81,-6,-259,84,5,-165,33,-39,15,11,18,-31,-78,-9,37,48,-6,-165,-6,36,30,7,16,461843
-30,-14,6,5,3,8,7,-178,62,107,92,33,10,-11,-19,-40,11,22,48,-37,-98,-10,22,57,-27,-203,2,44,45,25,56,461844
-16,-19,2,-15,-2,7,64,21,-65,96,-130,-24,14,44,-88,-46,0,6,9,-28,-56,-12,-4,22,-3,-138,-28,-4,10,2,33,461845
27,0,4,-11,9,21,84,123,-117,102,121,-79,10,58,0,-61,-28,-20,-63,-28,-32,-17,-44,-34,-14,-86,-61,-60,-34,-40,-2,461846
42,6,13,7,21,29,81,147,-20,65,-28,-35,-55,143,-35,-19,-12,-11,-35,-6,22,18,-1,-14,25,-36,-30,-32,-7,-30,-28,461847
25,-2,-7,-4,3,3,50,-136,36,29,-257,70,-68,-70,28,10,24,-1,-1,27,36,42,37,18,52,-19,-3,9,24,4,-16,461848
75,24,-33,20,9,-10,103,-50,51,11,29,237,-24,16,78,98,18,-10,-30,108,232,107,36,-22,205,275,-42,1,6,-10,-142,461849
95,39,-49,17,9,-8,159,251,-17,37,346,300,-74,152,59,162,6,-26,-59,166,412,149,25,-52,329,547,-74,-14,-34,-32,-261,461850
100,12,-39,-16,-3,-20,100,131,-33,-63,-7,159,-53,23,30,136,-4,-31,-83,127,393,118,6,-67,309,542,-88,-17,-56,-51,-184,461851
45,1,5,-17,-1,-8,-28,-40,107,-76,-213,-10,31,25,35,60,26,31,-23,57,178,68,31,19,147,258,-28,17,1,5,-30,461852
-40,-16,12,-14,-10,-9,-103,-29,83,-133,-86,-118,49,13,-7,-51,30,29,47,-30,-68,-12,32,74,-34,-83,25,40,44,46,143,461853
16,0,14,8,6,8,-14,195,-41,-144,209,-73,-144,-37,-65,-28,3,-3,-12,0,17,-5,-1,5,25,37,-36,-3,2,-2,20,461854
23,4,14,10,13,18,-4,-59,3,-60,72,-6,-32,-94,37,-17,10,9,-14,5,21,-5,-7,-11,23,24,-48,-9,0,-12,-30,461855
40,12,26,16,19,37,-10,25,14,-156,63,104,32,-321,28,-18,4,9,-27,20,24,3,-18,-21,23,19,-44,-24,-17,-22,34,461856
65,18,3,6,33,26,33,88,-101,-95,59,40,-2,-108,16,6,-17,-21,-71,42,115,21,-42,-62,92,180,-80,-51,-50,-51,-91,461857
33,11,-15,-10,8,-16,28,-13,-73,-68,158,34,-106,32,-4,21,1,-20,-59,35,117,23,-18,-37,76,179,-52,-16,-41,-37,-63,461858
57,12,-23,-25,0,-8,89,16,14,-21,243,95,-61,96,29,80,0,-34,-83,104,253,64,-6,-70,172,372,-86,-26,-59,-46,-136,461859
161,33,-38,-44,8,17,221,119,22,-6,283,74,-124,152,80,201,-19,-40,-151,209,575,169,-7,-148,371,847,-152,-77,-118,-90,-231,461860
153,34,-49,-62,2,4,207,169,-98,8,203,45,-39,56,58,226,-27,-38,-176,212,627,181,-27,-161,373,957,-158,-108,-143,-104,-205,461861
86,23,-39,-49,-7,-13,83,116,-166,-82,-174,-37,-8,147,-9,130,-50,-41,-160,105,433,91,-73,-134,219,703,-131,-110,-133,-94,-101,461862
6,14,-3,-26,-12,-8,-78,22,-96,-147,-32,24,-125,-2,-84,-1,-52,-36,-82,-25,145,-10,-80,-58,37,309,-79,-69,-84,-54,-18,461863
7,19,24,1,7,20,-127,69,-105,-28,-32,-11,26,9,-60,-26,-49,-30,-51,-32,76,-11,-67,-47,10,230,-49,-52,-55,-36,-19,461864
16,17,31,-11,8,26,-120,-13,-15,26,-111,-20,156,110,-15,16,4,25,-1,4,71,29,-25,2,29,210,9,4,9,14,67,461865
-26,3,46,-27,-4,16,-151,-53,48,-25,6,-40,29,125,17,27,74,81,81,11,-13,54,36,97,-14,72,103,73,88,95,134,461866
-56,-6,20,-33,-15,-20,-168,-71,21,5,74,-19,-18,-109,5,-22,27,46,56,-38,-76,2,10,53,-78,-23,60,28,41,44,58,461867
87,26,-4,9,20,18,22,208,40,20,239,-55,99,-308,10,73,-22,-26,-64,54,178,57,-33,-76,82,351,-80,-73,-67,-44,-155,461868
559,102,-106,20,93,66,659,438,-134,6,633,172,-18,-59,101,552,-121,-166,-425,534,1463,410,-127,-469,936,2215,-435,-286,-346,-294,-1020,461869
749,124,-172,-39,78,41,911,632,-256,-34,651,325,-85,96,190,783,-204,-238,-662,724,2211,554,-197,-702,1365,3387,-642,-430,-558,-448,-1369,461870
799,144,-184,-70,66,34,929,623,-129,-33,554,280,-149,243,195,876,-228,-269,-799,781,2564,616,-250,-807,1511,4006,-719,-513,-683,-524,-1492,461871
311,71,-67,-116,-41,-28,244,183,27,4,218,27,-31,31,-23,405,-174,-155,-526,260,1436,233,-216,-485,643,2492,-406,-355,-500,-355,-505,461872
-234,-10,95,-69,-86,-50,-523,-171,115,-34,-182,-213,292,-125,-86,-168,-9,49,40,-283,-167,-195,-72,67,-394,170,102,-9,-53,16,515,461873
-159,-4,84,-46,-44,-27,-453,-117,-37,182,-101,-133,208,-119,-78,-111,5,63,95,-190,-165,-157,-46,86,-292,97,122,23,26,62,354,461874
-94,-9,55,-35,-31,-19,-311,-151,-34,194,-45,-14,192,-41,-93,-48,7,59,75,-117,-53,-99,-35,59,-183,213,90,32,48,59,220,461875
-78,0,53,-10,-17,-3,-126,-225,4,152,-184,-34,237,-86,-41,-58,-11,27,39,-115,-77,-108,-57,25,-184,156,51,-1,29,43,152,461876
-8,31,46,16,9,13,90,-85,44,70,-121,-153,141,-213,-71,-15,-20,-1,-2,-70,13,-51,-57,-31,-87,280,-1,-24,-7,12,42,461877
109,61,-8,19,15,5,266,231,-40,-79,-27,-79,-73,-27,14,155,-27,-13,-72,102,369,97,-43,-104,168,765,-85,-52,-51,-23,-265,461878
914,173,-226,-22,122,65,1268,724,-212,-70,554,401,-100,417,213,1011,-239,-295,-777,960,2667,722,-232,-835,1687,4094,-761,-508,-586,-482,-1988,461879
1220,224,-297,-79,138,78,1584,750,-353,-124,702,471,-16,352,192,1329,-409,-462,-1237,1196,3792,894,-440,-1254,2236,5916,-1130,-824,-995,-813,-2382,461880
1061,216,-241,-95,88,50,1305,425,-268,-299,670,257,-117,61,98,1199,-430,-437,-1230,995,3589,755,-520,-1192,1940,5830,-1084,-845,-1038,-816,-2024,461881
380,136,-33,-81,-17,-20,413,245,-27,-269,172,-149,60,-316,-111,535,-241,-164,-681,296,1877,246,-364,-588,687,3493,-520,-499,-625,-452,-516,461882
-276,33,155,-32,-102,-82,-367,-173,158,33,-432,-305,261,-355,-177,-142,11,116,31,-336,-50,-220,-118,88,-505,707,127,-35,-60,28,750,461883
-247,17,131,-37,-84,-60,-257,-220,193,-43,-61,-158,53,-299,-126,-107,47,123,137,-253,-139,-151,-42,135,-422,511,173,46,49,112,591,461884
-170,18,111,-36,-49,-38,-217,-298,179,21,-49,-155,135,-270,-65,-74,49,105,130,-189,-130,-125,-23,118,-345,478,155,48,71,111,446,461885
-118,14,86,-6,-30,-25,-229,-153,47,-93,-123,-139,181,-187,-73,-73,29,72,108,-166,-132,-109,-37,93,-313,443,123,37,78,75,273,461886
-96,10,77,-10,-18,-18,-205,-112,27,-228,-88,-64,100,-181,-151,-51,21,55,82,-133,-108,-92,-39,65,-260,462,106,28,74,49,223,461887
-27,12,67,-24,-10,-6,-123,-200,29,-197,-294,-83,-97,-56,-55,8,-5,24,34,-67,42,-41,-49,11,-125,658,77,-7,30,18,97,461888
251,52,-30,-45,15,8,256,35,-171,-23,4,-5,-196,-105,22,304,-87,-104,-214,224,862,180,-127,-267,450,1852,-184,-170,-173,-153,-544,461889
608,112,-110,-66,63,60,714,339,-230,-108,292,231,-63,-9,113,688,-202,-242,-575,588,1954,455,-224,-630,1133,3467,-520,-408,-459,-392,-1291,461890
812,157,-165,-97,60,57,972,474,-231,-91,554,278,-72,204,113,927,-332,-368,-905,775,2732,590,-359,-947,1524,4699,-789,-638,-744,-605,-1587,461891
260,78,-27,-114,-41,-32,274,25,-79,-16,-34,44,-112,116,-18,385,-200,-157,-512,175,1386,154,-285,-486,501,2886,-353,-381,-458,-343,-329,461892
-244,5,111,-57,-88,-78,-285,-332,104,-32,-509,-235,41,-198,-27,-95,43,113,109,-282,-116,-184,-49,130,-409,673,211,43,48,86,597,461893
-194,13,88,-11,-55,-64,-103,-430,34,6,-211,-255,183,-419,-52,-76,52,103,160,-235,-159,-154,-7,138,-361,532,199,73,94,120,453,461894
-157,15,85,9,-48,-57,-71,-333,51,113,-5,-145,219,-323,-147,-108,0,60,120,-250,-185,-197,-58,75,-374,461,143,38,41,72,337,461895
-171,9,78,-3,-49,-44,-170,-73,135,4,29,-94,199,-130,-73,-154,-2,57,124,-259,-268,-209,-56,73,-419,316,139,33,47,65,322,461896
-167,1,74,-20,-52,-52,-229,77,214,1,-84,-69,137,-115,52,-127,19,67,147,-231,-246,-165,-24,88,-369,299,146,65,65,80,263,461897
-36,20,46,-10,-26,-35,-38,46,153,-106,-6,-54,135,-76,39,59,24,44,92,-35,109,-4,-17,14,-97,767,84,48,34,56,11,461898
484,85,-99,-29,47,20,576,313,-104,-117,305,155,-119,125,171,568,-135,-164,-381,475,1492,376,-163,-482,806,2804,-366,-269,-341,-250,-1030,461899
778,121,-168,-76,70,47,883,450,-272,-6,300,248,34,286,150,821,-296,-320,-770,694,2391,513,-341,-857,1285,4221,-696,-548,-685,-526,-1536,461900
765,141,-119,-98,75,60,808,379,-342,120,373,161,128,93,106,799,-327,-325,-830,625,2469,470,-382,-892,1237,4458,-716,-613,-758,-582,-1277,461901
186,59,26,-98,-19,-13,61,315,-61,68,97,-76,89,-155,-85,218,-178,-108,-378,16,965,13,-255,-380,180,2414,-230,-319,-406,-280,-102,461902
-231,4,140,-57,-59,-50,-401,-219,218,13,-25,-191,25,-203,-142,-152,33,122,138,-314,-253,-233,-56,138,-527,621,223,44,22,94,624,461903
-204,12,140,-34,-40,-23,-334,-350,115,-13,-154,-229,104,-203,-94,-107,78,128,214,-226,-291,-164,5,185,-433,510,256,111,123,153,531,461904
-199,7,100,-25,-41,-34,-292,-427,220,204,-133,-214,157,-243,-60,-79,67,101,189,-183,-269,-135,9,162,-355,513,227,105,142,136,398,461905
-166,9,91,-2,-28,-25,-249,-349,142,36,-117,-154,117,-254,-88,-52,39,85,125,-146,-191,-116,0,95,-289,597,170,65,103,103,306,461906
-155,-4,75,-12,-30,-13,-231,-161,81,-52,-353,-193,211,-142,-90,-65,30,73,98,-157,-207,-119,-17,66,-291,568,123,50,91,81,353,461907
-152,-11,86,-17,-17,-12,-244,-76,77,-137,-473,-235,307,-66,-135,-82,30,75,125,-170,-266,-128,-2,94,-323,466,130,65,110,97,325,461908
-121,0,89,-15,-3,-7,-184,48,-33,15,-114,-209,125,-80,-86,-68,29,59,115,-139,-234,-112,-5,64,-314,478,118,49,104,78,247,461909
-186,-13,90,-14,-23,-14,-223,-332,-28,71,-54,-263,-39,-89,-44,-165,12,68,159,-224,-455,-167,-20,99,-477,140,157,57,133,89,388,461910
-194,2,84,18,-20,-13,-149,51,60,91,60,-112,6,-2,-77,-149,49,87,227,-207,-479,-150,16,156,-452,46,203,110,189,127,421,461911
-112,18,47,32,7,-8,19,144,133,-71,-85,-34,-81,-204,-38,-67,25,48,150,-124,-245,-91,11,70,-263,351,128,63,116,81,142,461912
-97,13,29,29,3,-21,9,-104,63,31,-166,-66,-235,-132,-88,-77,9,26,107,-150,-228,-103,22,28,-234,360,85,41,79,37,117,461913
-56,2,8,-6,-8,-7,8,-57,-84,127,-63,-85,-110,40,-73,-33,4,-19,72,-110,-101,-53,21,-3,-129,503,44,33,57,18,96,461914
-66,7,40,-1,-1,5,-43,88,38,122,-154,-50,165,-14,-39,-39,21,29,95,-122,-132,-40,26,38,-148,432,89,60,80,55,192,461915
-107,-6,35,-4,-11,-22,-140,8,138,27,-46,-116,36,74,-42,-72,34,43,112,-161,-214,-65,23,67,-192,286,134,88,110,83,197,461916
-67,-12,26,-9,-3,-20,-171,7,-54,-90,-168,-24,-56,185,8,-54,16,13,75,-135,-127,-62,16,12,-141,393,85,58,64,41,65,461917
-37,-1,56,5,16,14,-149,64,36,-38,-245,0,195,39,-29,-24,32,37,71,-119,-104,-52,16,20,-145,414,88,57,67,48,141,461918
-132,-14,65,0,-7,-4,-226,-29,45,-17,-125,-119,78,-115,-76,-97,65,76,151,-177,-345,-105,47,110,-291,78,168,115,137,109,321,461919
-194,-37,66,11,-17,-20,-285,-190,91,-40,-84,-50,177,81,-63,-160,82,107,219,-222,-543,-153,69,163,-413,-215,216,155,187,147,400,461920
-237,-38,97,42,-3,2,-362,-66,106,27,-382,-76,10,47,-36,-232,118,151,315,-281,-813,-189,111,244,-547,-609,298,209,268,212,501,461921
-105,-4,58,34,21,24,-179,-90,13,161,-164,-71,12,-90,-90,-94,116,110,263,-106,-481,-64,132,163,-273,-167,224,177,230,170,185,461922
5,0,3,4,14,12,9,109,7,25,166,-25,132,103,-10,63,82,74,118,51,-79,31,87,54,-19,398,113,87,135,94,27,461923
-48,-12,-11,-15,-19,-33,4,121,-78,-34,-130,35,62,181,-5,11,24,23,10,5,-105,-29,8,-9,-73,395,65,11,61,28,13,461924
-93,-1,-9,9,-24,-48,-40,40,-97,40,-37,-4,-34,-1,1,-24,3,9,44,-40,-175,-63,2,-18,-119,311,50,16,44,17,43,461925
-68,0,-5,23,-9,-31,-82,45,-4,-40,-214,1,58,-232,57,-25,-7,-14,67,-50,-175,-71,20,-19,-101,322,38,22,33,10,53,461926
-66,-17,11,13,-5,-9,-111,-21,62,68,-176,-104,65,-231,7,-69,-3,-18,66,-83,-249,-104,19,-10,-140,207,63,35,41,28,79,461927
-73,-2,50,15,7,10,-106,38,42,184,205,-29,61,26,29,-51,74,75,152,-67,-289,-87,81,86,-147,107,152,121,137,106,198,461928
-272,-34,101,12,-22,5,-342,-44,32,-18,-111,-137,68,-13,-53,-235,128,149,310,-246,-814,-213,129,266,-496,-681,299,230,268,214,630,461929
-478,-73,144,41,-47,-15,-579,-393,152,-7,-398,-278,133,-190,-118,-460,203,224,527,-447,-1448,-343,206,486,-890,-1662,505,364,443,355,1078,461930
-667,-107,155,64,-63,-50,-742,-627,198,122,-337,-278,68,-194,-157,-673,262,270,737,-628,-2055,-464,275,677,-1232,-2603,675,487,615,486,1318,461931
-275,-48,60,99,16,17,-205,-135,20,130,118,-75,160,-155,-28,-318,160,112,459,-230,-1156,-183,192,349,-548,-1418,356,320,417,305,453,461932
71,-2,-18,62,51,46,199,153,-99,83,301,84,-27,-146,82,-1,1,-62,49,39,-184,35,27,-57,38,-20,-23,51,82,15,-122,461933
43,1,-6,37,30,42,133,111,32,148,8,60,113,-165,129,-16,-24,-68,-3,-3,-123,20,1,-80,-12,89,-31,15,18,-22,-130,461934
38,-12,-9,16,12,19,101,104,102,84,-48,94,-4,-121,-15,-5,-38,-71,-10,-4,-62,29,7,-92,-26,213,-35,-7,-25,-40,-185,461935
32,-7,-21,19,16,8,44,8,62,99,-5,36,-175,29,-26,20,-3,-42,30,-6,-30,52,48,-53,-21,279,2,25,-2,2,-123,461936
3,-11,-26,8,4,-3,-25,6,8,83,-36,91,-48,87,54,21,23,-7,44,-6,-40,49,62,-23,-16,247,40,41,27,23,5,461937
-115,-32,8,-2,-7,-5,-180,-87,33,44,-16,98,31,-59,-28,-111,36,29,102,-123,-325,-52,72,56,-209,-164,115,67,79,61,297,461938
-540,-94,129,24,-64,-42,-704,-416,111,112,-458,-233,63,-167,-114,-560,140,178,486,-567,-1560,-385,171,452,-1013,-1967,467,309,376,306,1074,461939
-632,-114,149,59,-56,-37,-781,-428,233,98,-387,-207,43,-88,-107,-682,194,233,645,-639,-1984,-454,227,585,-1191,-2653,589,421,513,419,1154,461940
-636,-134,135,77,-50,-36,-784,-432,180,90,-447,-156,98,-93,-117,-700,244,264,729,-604,-2122,-472,290,658,-1184,-2951,652,507,607,484,1206,461941
-257,-71,39,74,7,13,-260,-143,60,87,-71,-27,-103,131,61,-281,189,141,482,-162,-1154,-163,260,369,-432,-1634,378,373,447,320,405,461942
76,0,-56,68,45,39,217,98,47,156,288,75,-34,244,156,102,73,5,115,183,-131,96,153,12,205,-167,54,136,163,82,-263,461943
49,-4,-66,59,21,0,204,75,57,123,281,168,-93,194,60,91,45,-4,40,157,-70,63,103,-17,172,-59,19,71,85,39,-111,461944
15,-12,-53,42,21,1,109,249,-59,-36,123,111,-45,234,53,5,7,-25,5,77,-142,3,58,-46,90,-117,2,29,40,-3,-98,461945
36,-14,-39,31,27,13,93,294,-63,93,59,98,23,131,66,-53,-39,-54,-50,34,-120,-26,17,-106,72,-59,-60,-22,-28,-63,-104,461946
65,4,0,35,44,49,81,125,-28,236,98,20,104,70,114,-42,-11,-34,-41,41,-87,-6,27,-86,77,-15,-41,-12,-18,-38,0,461947
-25,-13,16,17,20,31,-82,141,19,117,129,41,274,-30,-23,-124,29,-7,49,-47,-317,-59,62,10,-90,-353,54,42,50,15,119,461948
-342,-61,80,25,-30,-8,-457,-67,229,144,-302,7,199,31,-79,-433,112,100,310,-354,-1181,-281,134,292,-649,-1608,315,214,265,208,703,461949
-577,-94,150,66,-41,-9,-700,-126,305,88,-315,-136,16,42,-122,-669,192,205,559,-584,-1920,-451,205,538,-1095,-2753,526,372,470,383,1167,461950
-738,-125,180,96,-41,-15,-834,-424,217,75,-371,-135,255,-44,-115,-820,263,286,783,-717,-2472,-566,301,743,-1382,-3639,683,524,661,527,1459,461951
-307,-75,40,116,22,19,-227,-183,65,4,69,-62,95,-11,8,-394,182,133,485,-241,-1388,-201,251,410,-561,-2197,352,360,464,340,507,461952
140,-3,-88,86,69,53,344,164,-101,67,342,135,-124,93,127,56,10,-58,-20,179,-53,137,73,-82,261,-253,-75,42,66,8,-365,461953
106,4,-65,63,56,46,279,221,101,-25,185,106,-79,33,94,18,-15,-54,-87,112,5,111,18,-115,196,-101,-96,-19,-30,-54,-301,461954
50,5,-44,42,56,36,179,271,4,-77,-69,84,-71,144,146,-17,18,-30,-41,58,-54,92,42,-80,124,-154,-56,-7,-22,-32,-150,461955
46,-4,-44,22,34,29,108,185,-78,-198,104,48,-123,122,117,-9,34,-21,-3,55,-37,106,68,-46,124,-112,-11,20,3,-16,-71,461956
17,-14,-21,19,29,46,-7,-241,-88,55,226,21,-180,236,77,-61,51,12,59,4,-152,46,87,24,31,-271,68,70,66,20,133,461957
-25,-18,-11,18,21,31,-72,-366,-94,95,176,74,-159,228,33,-126,47,22,95,-59,-273,-26,85,63,-63,-426,99,89,76,42,165,461958
-569,-87,132,17,-51,-24,-704,-517,-5,74,-266,-188,106,-83,-162,-671,175,196,534,-605,-1724,-454,195,513,-1039,-2540,511,365,403,328,1183,461959
-850,-139,205,57,-72,-35,-1036,-459,224,109,-679,-297,-42,-368,-182,-954,307,325,886,-851,-2696,-642,331,851,-1550,-4050,803,605,725,579,1648,461960
-807,-158,179,79,-53,-22,-997,-393,272,140,-574,-189,73,-136,-52,-941,343,327,937,-769,-2804,-587,400,893,-1480,-4346,833,664,808,630,1504,461961
-282,-104,19,84,31,27,-374,-155,137,115,-254,143,143,199,89,-462,172,93,488,-227,-1534,-207,259,402,-551,-2620,381,348,478,338,378,461962
251,-14,-98,62,102,83,286,101,-190,-73,90,296,-29,239,116,74,-3,-106,-40,288,-9,185,103,-118,412,-430,-102,20,60,-19,-599,461963
194,-15,-84,56,65,51,254,340,-221,116,137,222,-135,263,66,56,4,-71,-49,228,44,154,87,-101,362,-319,-90,27,25,-38,-371,461964
133,-18,-62,58,55,43,177,399,-96,-75,54,185,-226,174,51,16,8,-50,-53,179,-19,98,61,-76,275,-370,-54,19,15,-26,-214,461965
102,-12,-53,26,44,46,151,236,11,58,-117,168,-272,388,85,18,-10,-43,-59,148,-60,71,40,-66,229,-389,-42,10,3,-20,-145,461966
87,-19,-53,20,35,41,155,52,-69,179,-13,144,-130,345,117,38,-14,-39,-67,160,-12,66,28,-77,218,-311,-49,-18,-18,-19,-203,461967
-1,-30,-52,9,7,17,72,-94,-55,115,108,82,-36,260,94,-23,5,-21,-35,96,-143,16,32,-42,98,-474,-9,3,-5,-4,-27,461968
-223,-54,5,30,-21,-29,-166,-270,144,-73,53,24,29,21,-40,-239,58,57,147,-134,-700,-141,77,144,-278,-1291,156,131,129,115,408,461969
-404,-63,54,64,-30,-42,-378,-203,142,36,-124,-100,146,100,-72,-455,108,118,321,-335,-1273,-289,116,325,-612,-2142,309,254,284,219,717,461970
-500,-80,85,91,-22,-28,-526,-138,162,-107,-330,-214,90,-84,-91,-593,150,162,454,-455,-1686,-361,165,465,-844,-2788,424,339,396,300,852,461971
-169,-43,5,75,36,19,-158,-52,-47,108,86,69,12,-15,37,-289,108,53,276,-137,-940,-120,155,225,-301,-1788,212,209,258,180,222,461972
210,-3,-69,42,85,73,215,138,-129,-33,187,175,25,72,13,42,9,-70,-35,183,14,133,71,-92,281,-400,-78,10,12,-30,-337,461973
206,3,-62,30,67,59,184,242,3,-112,147,254,-114,372,36,74,10,-46,-75,191,136,162,52,-96,321,-188,-79,14,-17,-43,-328,461974
128,-7,-50,12,46,41,96,161,0,37,109,91,-180,206,156,43,21,-24,-39,132,63,133,59,-51,250,-267,-34,29,5,-16,-220,461975
99,-2,-47,2,35,30,58,60,-17,95,-44,146,-52,247,195,33,29,-3,-21,102,50,102,65,-38,216,-266,-24,23,5,-1,-142,461976
117,16,-42,9,35,31,95,107,16,198,121,182,70,325,126,103,53,24,-9,164,162,153,89,-29,286,-110,-21,44,18,20,-128,461977
52,-2,-39,-6,13,16,-13,-32,-100,36,74,179,-51,250,74,43,54,30,11,101,34,95,86,2,180,-275,0,50,35,38,45,461978
-290,-55,40,6,-27,-11,-434,-147,10,-65,-264,76,15,91,-58,-320,132,137,298,-254,-890,-183,169,306,-432,-1622,283,233,263,226,720,461979
-490,-69,88,74,-24,-18,-652,-271,138,53,-189,-183,22,-83,-14,-570,198,181,512,-456,-1563,-349,233,506,-814,-2634,454,362,442,353,990,461980
-374,-59,64,109,4,3,-504,-295,220,-34,-46,-167,-86,-49,-47,-489,153,127,438,-334,-1391,-266,199,411,-639,-2443,348,310,385,292,660,461981
-52,-36,0,76,44,51,-122,-347,56,-117,158,44,76,104,28,-172,65,25,182,-9,-574,-25,121,131,-104,-1327,94,145,176,121,144,461982
134,-18,-67,46,49,48,199,307,-195,18,84,162,0,174,66,6,-23,-67,-34,162,-1,100,39,-95,209,-483,-101,-9,-7,-44,-196,461983
115,-1,-61,69,48,41,276,-41,-56,-54,144,180,-233,75,68,-26,-35,-76,-58,91,-16,52,20,-120,125,-478,-112,-41,-57,-82,-222,461984
114,17,-40,56,45,35,319,-84,-50,-46,7,116,-220,129,99,20,3,-25,-42,112,31,64,57,-82,130,-421,-60,4,-52,-50,-190,461985
87,7,-47,17,29,23,313,51,-79,-27,31,13,-145,156,32,46,13,-25,-31,129,57,81,50,-64,155,-370,-45,18,-29,-33,-173,461986
83,14,-45,24,29,26,258,71,43,-149,154,225,-71,179,105,46,-3,-43,-35,135,76,76,26,-58,161,-324,-69,1,-36,-40,-215,461987
73,5,-55,31,15,18,195,-127,8,-71,281,159,-117,97,42,-10,-38,-64,-80,83,62,30,-16,-115,144,-313,-112,-50,-93,-89,-180,461988
-2,-9,-16,30,15,33,64,-107,67,-126,-28,82,-159,-138,-56,-92,-11,-19,-10,-7,-149,-27,11,-34,11,-609,-22,-1,-35,-28,27,461989
-19,-27,-10,18,15,21,5,86,48,-86,-154,-14,-26,-96,-12,-102,22,3,38,-12,-228,-33,44,24,-16,-726,35,43,15,26,-7,461990
-2,-25,-2,22,0,19,-9,-29,-70,42,-5,1,40,-58,65,-107,12,-2,13,-19,-241,-30,38,20,-26,-745,34,30,5,20,26,461991
25,-3,-1,31,8,30,17,-77,-44,102,-14,10,-42,195,11,-90,0,-10,-23,1,-199,-11,26,-11,-11,-679,27,-16,-5,-1,-22,461992
104,13,-21,27,28,49,152,137,29,126,8,100,-3,295,26,6,-40,-58,-125,102,97,49,-25,-116,161,-249,-72,-83,-88,-69,-239,461993
86,-8,-50,2,16,15,142,158,-9,-63,-79,86,-47,77,-8,-8,-62,-72,-150,86,104,18,-54,-140,145,-216,-105,-94,-111,-103,-223,461994
91,6,-68,9,10,9,168,20,-108,-163,105,28,-227,-35,-41,4,-66,-80,-157,97,136,22,-43,-146,170,-166,-130,-97,-112,-105,-258,461995
147,34,-40,42,40,43,274,-94,-99,38,163,97,32,-70,-6,70,-56,-55,-143,155,252,61,-32,-153,237,-14,-149,-90,-111,-107,-258,461996
130,21,-50,32,25,28,309,36,-59,49,-44,-57,85,-104,-30,71,-60,-54,-152,151,259,67,-51,-146,220,17,-158,-105,-117,-108,-262,461997
1,-3,-20,29,-3,7,158,93,34,23,-86,-80,-2,-146,0,-59,-31,-13,-60,6,-67,-31,-39,-29,-19,-420,-49,-36,-46,-44,-11,461998
-356,-55,83,57,-41,-11,-342,-268,228,47,-354,-84,170,-243,-81,-434,85,140,298,-366,-1116,-297,68,324,-690,-1935,298,194,236,188,796,461999
-369,-63,88,49,-39,-10,-381,-296,118,110,-459,-207,67,-295,-7,-451,104,120,383,-356,-1247,-294,121,365,-695,-2195,333,241,307,244,748,462000
-274,-61,33,33,-51,-30,-204,-208,143,41,-76,-174,-39,-229,-44,-347,74,83,292,-241,-981,-206,95,264,-493,-1864,242,178,236,175,404,462001
-100,-41,-17,60,-15,-6,50,-78,176,96,138,134,-175,42,10,-181,47,56,158,-66,-544,-59,76,122,-185,-1266,109,96,132,96,-14,462002
125,-2,-64,40,32,40,221,70,50,148,-31,219,-165,186,74,21,-34,-68,-75,128,64,86,20,-108,205,-366,-106,-42,-64,-67,-338,462003
124,4,-36,23,47,64,82,-42,94,31,-204,68,-78,-28,87,19,-23,-60,-89,102,88,85,16,-99,200,-303,-97,-34,-72,-76,-265,462004
128,-1,-23,15,40,62,101,35,15,-90,172,127,-55,26,188,58,5,-25,-60,115,126,129,21,-44,197,-238,-51,3,-42,-32,-169,462005
70,-8,-29,14,13,31,110,-183,32,-71,201,116,-26,131,56,50,41,17,-1,105,78,120,35,18,131,-317,19,43,6,22,-79,462006
42,-6,-54,-2,0,4,92,-141,50,-169,271,90,-106,44,-25,33,20,14,-8,87,76,94,14,-4,112,-299,-5,28,-14,0,-154,462007
18,-9,-35,4,5,15,44,-105,-135,-91,-71,-32,-192,-77,53,-38,-29,-25,-39,7,-23,33,-23,-47,17,-412,-62,-18,-67,-53,-42,462008
-260,-59,28,7,-40,-24,-306,-283,24,-199,-405,-183,-5,-119,-9,-335,26,33,187,-282,-797,-197,38,180,-515,-1488,156,104,86,72,458,462009
-295,-78,24,10,-51,-34,-341,-263,47,-69,-314,-100,-20,-145,-49,-393,36,29,269,-318,-975,-246,80,237,-608,-1790,221,162,145,121,423,462010
-294,-71,31,17,-30,-8,-344,-390,107,14,-211,-186,-194,-65,-96,-388,47,48,283,-305,-1024,-245,96,242,-609,-1915,251,166,186,145,430,462011
-209,-40,14,37,-11,3,-220,-273,78,41,-144,-23,5,304,-126,-274,70,65,238,-164,-814,-153,101,204,-401,-1657,218,133,186,143,216,462012
94,-4,-62,23,34,32,154,108,-47,-3,85,105,110,378,-60,33,-27,-52,-51,153,16,51,17,-75,170,-454,-58,-26,-26,-39,-317,462013
138,-5,-64,2,36,34,159,65,-47,-8,-15,77,-81,122,22,78,-47,-80,-100,174,142,58,-8,-113,239,-259,-109,-53,-64,-81,-303,462014
118,4,-48,11,24,33,153,90,-36,-3,26,91,-11,107,64,72,-22,-57,-86,168,132,47,1,-88,234,-281,-80,-49,-54,-71,-224,462015
50,10,-43,11,2,1,143,155,-49,66,-92,135,18,74,37,57,21,7,-43,165,74,67,23,-24,203,-389,-26,0,2,-13,-153,462016
-2,2,-54,-9,-19,-32,119,125,-13,-116,-8,86,-107,74,1,42,6,-9,-57,127,43,47,-1,-32,162,-429,-42,-13,-9,-18,-136,462017
-58,-18,-43,-19,-22,-32,10,115,9,-23,32,-3,78,49,-56,-27,-4,-8,-29,43,-128,-18,-17,-9,29,-652,-12,-12,-8,-22,23,462018
-766,-119,170,33,-97,-62,-968,-426,266,39,-470,-310,110,-361,-123,-804,180,253,589,-751,-2177,-597,140,646,-1369,-3587,606,402,464,365,1554,462019
-1232,-211,309,102,-110,-63,-1556,-778,326,128,-820,-504,229,-470,-241,-1352,338,418,1165,-1227,-3806,-959,327,1187,-2298,-6086,1087,769,936,750,2294,462020
-968,-186,238,157,-46,-5,-1072,-589,319,163,-425,-295,283,-352,-131,-1162,292,301,1072,-979,-3394,-758,335,995,-1881,-5658,908,695,863,666,1686,462021
-401,-99,55,169,19,32,-232,-119,78,167,-34,45,131,-166,34,-594,172,99,614,-377,-1896,-300,250,490,-823,-3629,425,405,513,367,486,462022
202,-21,-121,95,79,71,451,314,-129,99,243,270,-144,140,130,31,-25,-122,-23,219,-88,142,60,-140,310,-1014,-139,0,16,-56,-586,462023
230,-2,-111,52,79,84,345,294,-87,59,199,210,54,260,114,94,-34,-92,-89,223,129,165,37,-154,380,-641,-150,-15,-38,-96,-496,462024
181,-14,-112,19,40,50,291,148,-100,180,331,138,35,177,75,70,-29,-91,-85,183,148,137,37,-132,341,-587,-150,-10,-60,-100,-434,462025
159,1,-93,26,38,40,285,269,-48,72,372,211,-28,68,97,65,-20,-89,-99,173,196,136,32,-132,331,-511,-140,-20,-65,-111,-384,462026
132,-12,-102,14,22,17,243,321,-103,-159,273,152,-108,55,-2,45,-43,-88,-141,150,180,126,-9,-130,296,-494,-137,-46,-71,-113,-384,462027
78,-11,-66,30,22,18,161,217,-88,-81,-65,49,-114,77,14,13,-29,-37,-65,97,39,86,12,-48,168,-675,-55,13,-19,-43,-215,462028
-243,-53,30,39,-12,16,-262,-67,-21,42,-220,-106,-121,-61,-20,-310,53,89,228,-239,-852,-177,79,253,-441,-1943,232,188,180,148,450,462029
-437,-90,72,41,-33,3,-504,-444,146,-6,-265,-180,1,-217,-39,-523,114,152,421,-417,-1472,-325,131,441,-793,-2868,397,299,340,274,828,462030
-430,-100,62,39,-28,0,-489,-341,105,-97,-295,-90,80,-243,-26,-535,136,153,435,-388,-1524,-320,155,434,-768,-3015,390,320,372,297,809,462031
-175,-66,5,61,27,34,-176,8,31,-117,-121,103,-4,-75,29,-291,101,74,306,-97,-921,-111,149,253,-292,-2192,214,237,266,200,274,462032
213,-5,-104,33,55,62,313,246,-77,0,329,287,-137,175,75,139,-13,-74,-40,324,200,204,64,-118,425,-575,-121,3,-31,-38,-516,462033
249,6,-111,25,52,50,362,242,-136,121,320,287,-20,312,118,187,-39,-83,-134,337,396,210,31,-184,453,-263,-173,-64,-110,-95,-454,462034
205,1,-95,22,35,40,295,222,-187,32,136,199,41,96,29,124,-59,-77,-156,254,290,134,-25,-169,334,-360,-160,-76,-122,-107,-336,462035
162,-11,-84,4,17,24,277,122,-102,95,-23,108,-89,-58,-43,77,-87,-114,-184,200,242,82,-42,-188,280,-387,-180,-124,-141,-142,-366,462036
164,3,-81,10,24,27,314,295,50,21,140,130,-126,-106,11,98,-76,-98,-186,213,283,93,-22,-183,299,-304,-173,-125,-144,-152,-421,462037
118,1,-60,13,18,16,274,198,13,15,78,80,-75,-123,45,57,-70,-84,-177,153,184,58,-46,-168,219,-418,-140,-123,-141,-142,-269,462038
-278,-41,61,52,-35,-9,-194,-176,180,35,-176,-170,-58,-326,-24,-333,45,76,184,-251,-886,-213,54,230,-493,-1962,219,141,149,112,550,462039
-497,-64,113,89,-53,-30,-436,-414,146,-52,5,-136,-28,-126,-87,-537,149,192,472,-423,-1552,-331,176,494,-849,-3003,455,333,392,312,937,462040
-432,-60,77,71,-41,-17,-385,-264,38,-30,-195,-96,-12,-1,-112,-470,155,159,462,-333,-1434,-263,191,437,-688,-2892,411,324,399,304,708,462041
-185,-33,1,66,3,14,-68,7,-130,-48,53,-34,-205,93,-38,-233,111,64,273,-80,-798,-66,145,233,-222,-2041,217,223,271,191,131,462042
154,8,-107,30,36,30,312,111,-156,-81,222,212,-443,226,36,109,-17,-74,-100,239,181,177,32,-122,380,-628,-116,-34,-23,-45,-457,462043
130,-3,-114,-9,20,15,212,139,-101,24,-37,106,-67,147,30,105,-66,-91,-188,197,233,130,-25,-178,319,-495,-158,-95,-100,-112,-418,462044
136,6,-103,-6,20,23,187,38,-58,150,93,191,-30,77,19,104,-84,-99,-194,174,258,112,-50,-190,294,-435,-175,-124,-129,-130,-364,462045
108,-5,-108,-7,0,-14,164,87,-58,120,184,147,-69,-83,-2,82,-72,-78,-169,146,248,102,-52,-168,261,-436,-152,-113,-134,-114,-339,462046
107,12,-78,-1,16,0,149,343,-57,206,-138,-9,-41,-211,-17,39,-69,-79,-172,114,225,80,-56,-164,242,-462,-141,-116,-139,-117,-301,462047
128,15,-44,7,36,31,130,350,36,193,-18,70,-139,-177,36,39,-70,-94,-179,105,197,61,-64,-153,213,-492,-138,-124,-138,-113,-253,462048
-60,-10,6,8,0,8,-124,124,74,195,35,-66,28,34,50,-110,49,46,38,-58,-303,-50,48,85,-117,-1215,87,42,51,48,264,462049
-220,-39,51,16,-14,-1,-326,-8,132,210,20,-19,60,-68,22,-264,139,133,274,-202,-788,-143,151,294,-392,-1962,268,189,234,206,575,462050
-165,-52,24,11,-6,8,-264,28,142,148,-88,-19,8,-24,98,-227,126,111,284,-142,-719,-117,150,251,-309,-1886,227,189,231,184,353,462051
-26,-40,-34,10,0,3,-56,166,35,-6,-124,16,-115,111,100,-67,70,58,145,39,-323,14,93,111,-2,-1316,93,127,139,86,82,462052
115,-6,-79,16,7,-6,180,48,-78,12,54,123,-183,171,138,117,22,10,-27,224,200,165,45,-48,330,-559,-45,1,3,-17,-162,462053
108,10,-77,15,-1,-18,205,132,-13,24,234,99,-31,30,112,143,15,1,-80,233,304,176,34,-93,351,-377,-88,-54,-58,-51,-229,462054
75,3,-68,-10,-10,-7,185,54,42,29,136,72,49,-9,40,126,4,-9,-99,209,304,165,22,-102,313,-336,-102,-61,-81,-71,-224,462055
72,-8,-62,-9,-1,0,185,73,-73,57,84,11,-82,40,9,92,-14,-41,-131,200,284,153,-14,-119,283,-338,-107,-91,-107,-85,-174,462056
127,29,-46,9,24,27,245,116,-40,21,232,120,-40,57,2,80,-29,-53,-142,190,330,156,-29,-136,301,-237,-120,-109,-117,-92,-209,462057
109,10,-41,-15,18,26,179,113,-49,32,49,40,-69,-145,53,3,-62,-79,-135,89,196,83,-45,-131,193,-390,-119,-110,-126,-114,-162,462058
-48,-23,-16,-14,-11,2,-46,-128,-35,65,-2,-112,-53,-209,-21,-168,-19,-24,10,-98,-284,-70,-13,19,-123,-1075,19,-14,-17,-18,173,462059
-95,-15,-9,2,-19,2,-34,-185,126,-112,-32,47,107,23,-65,-129,71,81,131,-60,-344,-45,76,141,-117,-1234,147,110,113,98,181,462060
-138,-21,-11,-18,-24,-6,-86,117,105,-67,8,179,19,220,68,-146,66,62,132,-77,-408,-78,64,150,-147,-1343,144,118,131,115,140,462061
-46,-9,-33,-6,9,-6,-70,170,-29,78,-221,72,-120,-128,32,-103,-22,-23,16,-24,-233,-55,0,27,-16,-1077,15,32,34,18,-42,462062
162,25,-59,5,36,24,141,-31,-1,92,49,70,-43,19,0,110,-33,-56,-122,173,299,104,-24,-125,341,-353,-112,-58,-91,-61,-295,462063
188,16,-52,-24,24,23,179,234,58,71,105,45,46,119,122,181,3,-8,-131,223,446,158,-2,-114,408,-137,-106,-63,-93,-46,-259,462064
168,11,-49,-19,20,30,97,282,109,-55,-96,-3,5,138,56,122,-24,-20,-141,164,348,98,-28,-115,316,-237,-116,-97,-102,-65,-214,462065
159,5,-37,-11,16,38,49,236,-19,-108,-11,17,123,50,6,107,-24,-24,-137,127,287,53,-34,-116,249,-303,-126,-105,-117,-80,-175,462066
146,12,-20,-11,11,36,88,97,-72,146,65,8,47,77,26,116,18,-18,-77,136,303,86,25,-76,252,-283,-81,-47,-89,-42,-143,462067
107,24,-33,-10,8,12,117,34,107,188,103,8,-19,88,1,117,30,4,-49,133,289,91,34,-40,223,-301,-30,-13,-50,-7,-43,462068
123,21,-40,-15,11,6,128,-84,129,218,218,40,71,124,70,98,-16,-28,-130,119,296,73,-23,-96,210,-252,-75,-60,-83,-50,-133,462069
105,25,-16,2,22,31,85,-17,-8,108,209,73,77,144,46,78,-14,-19,-91,93,216,66,-22,-59,165,-352,-59,-50,-60,-40,-122,462070
160,43,-20,11,42,51,169,325,34,62,302,115,-126,290,76,144,-35,-34,-101,176,410,132,-32,-97,309,-59,-100,-66,-97,-61,-245,462071
128,22,-34,-11,14,23,132,267,39,-11,193,188,-80,80,133,121,-36,-48,-99,137,378,110,-43,-96,275,-71,-101,-53,-110,-78,-190,462072
40,2,-34,-34,-19,-18,26,101,25,-35,104,-7,-90,-61,110,56,3,0,-38,66,188,74,-5,-22,163,-349,-25,-18,-46,-19,9,462073
52,10,-21,-15,-3,-2,24,-52,-159,-189,166,-73,-108,35,19,76,32,36,-30,87,198,109,16,-2,196,-328,10,-1,-20,15,-26,462074
97,15,-11,-15,16,25,9,157,-70,-19,66,74,-95,96,37,88,30,18,-59,109,249,115,-5,-22,215,-234,-9,-13,-31,-12,-112,462075
69,2,-9,-43,11,20,-56,163,-12,-21,124,-83,-119,200,55,47,3,7,-77,63,180,77,-34,-35,139,-304,-19,-32,-62,-26,-36,462076
24,-1,18,-29,10,31,-89,-59,12,-180,127,-73,-73,-45,30,16,20,32,-39,25,52,48,-12,3,44,-475,19,-19,-27,10,34,462077
116,27,2,7,35,50,103,-51,-36,-62,21,32,-48,48,69,134,3,10,-85,152,306,134,0,-71,233,-112,-52,-49,-53,-14,-203,462078
521,80,-127,-15,65,45,683,409,-171,-13,330,182,8,198,142,566,-109,-151,-489,583,1490,438,-116,-466,1005,1601,-436,-305,-355,-271,-1041,462079
627,111,-164,-33,57,33,810,631,-215,-130,630,340,-51,211,90,698,-168,-203,-663,666,1958,516,-196,-613,1218,2359,-580,-421,-515,-399,-1190,462080
544,107,-123,-50,53,34,637,387,-224,-110,315,206,13,222,103,634,-154,-170,-620,558,1838,428,-193,-561,1076,2276,-538,-409,-501,-368,-1008,462081
271,55,-37,-100,-2,-7,225,187,-119,-76,103,-49,68,162,23,377,-79,-68,-377,282,1146,213,-134,-295,574,1331,-283,-239,-316,-205,-324,462082
-32,2,33,-81,-51,-53,-126,-71,10,-126,12,-126,243,28,-40,62,11,50,-68,-7,286,-9,-59,5,33,87,1,-46,-62,-4,187,462083
-32,15,34,-53,-37,-45,-79,47,-42,-15,245,-43,-8,87,-122,36,7,27,-58,2,233,-8,-55,-12,25,-9,-20,-66,-50,-5,89,462084
-69,8,23,-45,-44,-39,-102,-115,12,-36,83,-112,104,-22,-257,-8,2,14,-56,-33,125,-38,-56,-9,-24,-174,-6,-57,-34,-11,76,462085
-13,20,30,-15,-8,-10,-29,-253,-7,-101,-72,-42,133,-88,-91,15,-34,-24,-87,-27,145,-37,-78,-55,11,-150,-32,-82,-63,-43,-9,462086
25,28,31,6,10,5,38,-302,73,-119,-223,11,-10,-23,6,46,-28,-13,-87,-3,174,-24,-63,-70,43,-103,-43,-80,-68,-31,43,462087
49,24,-16,-10,-3,-14,59,-1,-77,-88,-144,18,-106,8,-68,63,-25,-13,-94,26,239,9,-59,-72,106,-2,-60,-86,-65,-34,-97,462088
373,80,-72,3,56,34,448,324,-245,2,257,57,4,70,1,382,-93,-111,-332,346,1069,252,-116,-334,666,1187,-305,-238,-241,-182,-622,462089
504,110,-94,-16,68,43,592,261,-244,-178,203,264,34,198,66,556,-124,-141,-487,493,1549,377,-162,-487,940,1929,-426,-326,-354,-282,-877,462090
482,107,-105,-48,39,16,495,271,-166,-164,258,312,149,114,54,573,-139,-155,-519,501,1656,377,-185,-496,958,2165,-449,-337,-398,-309,-867,462091
245,48,-40,-91,2,-11,67,174,-50,-101,3,26,132,-213,66,317,-124,-112,-388,218,1071,176,-162,-338,489,1406,-316,-268,-322,-234,-491,462092
-77,-4,44,-83,-42,-28,-367,-120,19,-12,-239,-53,36,-126,52,-6,-10,18,-78,-103,159,-55,-70,-21,-105,89,-20,-79,-74,-16,120,462093
-50,8,34,-49,-33,-23,-180,-221,-7,6,-16,-51,-103,-34,7,26,25,40,-15,-35,149,-2,-31,23,-41,57,35,-16,4,40,105,462094
9,31,28,-10,-12,-13,59,-192,6,-49,-140,-158,-30,11,-35,34,9,27,-12,-6,172,27,-48,1,-4,90,12,-22,8,35,91,462095
53,41,42,26,23,27,108,-113,37,-136,43,-68,155,-125,-1,24,-52,-25,-56,-26,160,-21,-99,-65,-17,89,-57,-72,-57,-22,-42,462096
85,29,23,26,22,20,119,-5,-22,-42,-10,-133,96,-261,-126,39,-79,-58,-123,2,250,-16,-130,-129,53,217,-121,-114,-114,-67,-142,462097
170,58,-7,26,19,1,264,172,3,-8,168,-114,74,-46,6,182,-46,-53,-171,161,578,120,-89,-176,292,667,-149,-121,-137,-87,-317,462098
639,138,-120,-8,75,35,866,631,-98,-73,504,250,-59,403,113,716,-129,-195,-549,686,1957,515,-167,-571,1218,2653,-489,-369,-420,-327,-1227,462099
904,179,-201,-66,79,39,1135,556,-188,41,387,330,-155,412,147,1014,-248,-305,-918,929,2874,711,-313,-888,1702,4089,-775,-606,-716,-554,-1643,462100
784,169,-177,-84,54,12,912,382,-244,-206,246,125,-135,150,136,906,-267,-274,-902,781,2715,607,-356,-825,1468,3980,-720,-607,-725,-542,-1298,462101
333,100,-41,-104,-10,-24,338,182,-89,-107,-5,-75,-22,-96,2,475,-162,-94,-524,303,1585,251,-269,-437,644,2460,-347,-373,-458,-309,-400,462102
-103,31,89,-69,-51,-56,-169,-131,24,-51,-5,-253,130,-400,-47,24,-31,52,-65,-136,293,-87,-141,-2,-170,623,44,-87,-113,-17,264,462103
-82,27,78,-34,-38,-36,-131,-88,78,-19,-40,-163,-11,-402,-32,-10,-18,21,-18,-124,182,-89,-109,-2,-195,427,46,-72,-92,9,154,462104
-42,32,67,-32,-24,-17,-95,-132,10,39,-34,-39,15,-290,5,30,11,34,33,-71,213,-29,-52,11,-123,442,51,-19,-48,38,104,462105
-31,28,68,-40,-19,-16,-107,-327,-3,7,-181,-65,-80,3,-51,43,13,47,43,-49,192,-21,-32,22,-104,406,46,-9,-28,56,99,462106
-19,34,65,-18,-3,-8,-109,-230,-10,-10,-95,19,24,72,0,57,13,52,46,-45,153,-32,-40,19,-110,342,57,-12,-19,42,165,462107
-5,28,47,-19,-7,-12,-75,-38,-24,4,10,59,22,11,-8,76,-15,14,1,-31,199,-34,-64,-20,-55,400,19,-47,-40,6,11,462108
211,51,-13,-32,17,-4,204,43,-14,88,242,117,10,6,67,282,-71,-65,-184,176,788,134,-111,-225,362,1236,-174,-166,-169,-121,-460,462109
319,70,-55,-32,12,-20,361,275,-170,87,184,61,50,129,65,414,-87,-85,-294,302,1175,232,-132,-312,609,1796,-255,-207,-236,-180,-584,462110
367,102,-43,-25,18,-1,457,128,-207,-2,177,86,105,155,30,492,-86,-76,-364,358,1345,309,-144,-341,696,2084,-274,-239,-266,-196,-591,462111
172,85,14,-30,-3,-1,255,-167,-19,55,-2,-12,109,-69,-58,279,-75,-35,-269,122,854,142,-138,-214,310,1430,-151,-195,-202,-129,-223,462112
-79,35,77,-4,-15,-15,-45,-14,48,108,-80,-148,128,-178,-150,-11,-9,38,-34,-147,94,-90,-87,15,-185,367,46,-47,-16,0,190,462113
-49,30,72,0,-7,-7,-70,-44,107,190,-159,-147,0,-153,-36,-10,-21,15,6,-121,63,-96,-75,14,-161,304,36,-26,-3,11,134,462114
-37,32,59,-4,-1,-16,-124,-218,122,49,110,-78,69,-37,28,31,5,29,52,-79,99,-60,-21,44,-100,311,68,15,25,33,119,462115
-1,27,46,-11,-3,-15,-85,-112,24,-206,222,28,154,-66,33,75,4,28,41,-36,180,-13,-25,36,-3,423,55,29,20,45,43,462116
8,17,29,-22,-16,-27,-77,-132,-35,-125,-72,40,48,-67,3,69,-16,-1,-18,-43,196,-28,-73,-12,15,454,9,-5,-17,9,-21,462117
41,33,25,-15,-4,-15,-21,-64,87,92,48,67,21,123,21,122,-1,9,-18,25,347,30,-42,-31,92,629,-16,-10,-28,6,-81,462118
311,68,-55,-44,29,3,306,133,-11,22,168,116,21,326,74,412,-73,-91,-255,313,1096,252,-86,-311,585,1745,-252,-195,-219,-161,-642,462119
535,85,-125,-85,49,21,495,400,-216,58,157,75,-71,0,142,588,-224,-246,-602,458,1727,357,-245,-630,941,2761,-533,-447,-488,-403,-1049,462120
518,78,-92,-72,47,23,462,312,-199,47,115,120,-103,-134,84,562,-221,-212,-622,410,1706,330,-257,-596,864,2798,-501,-459,-500,-397,-827,462121
255,68,15,-48,7,10,200,63,111,33,-318,46,57,70,64,351,-101,-56,-346,175,1064,163,-154,-301,413,1911,-225,-277,-290,-200,-204,462122
-110,17,88,-35,-40,-16,-222,-77,130,69,-455,-238,106,-201,-41,-5,8,82,30,-172,56,-93,-51,56,-209,470,87,-6,0,28,358,462123
-79,7,73,-20,-32,-16,-185,-218,-17,-25,-114,-220,210,-272,10,-14,14,58,75,-147,14,-69,-54,71,-169,350,86,16,39,52,294,462124
-75,12,80,-17,-16,-21,-149,-122,-59,-137,-80,-171,269,-123,62,-11,19,55,87,-120,12,-50,-37,68,-155,342,88,18,47,65,249,462125
-77,20,89,-8,-2,-4,-151,-15,84,51,43,-178,177,-51,-1,14,66,94,119,-89,-2,-24,26,113,-158,281,124,59,94,103,347,462126
-81,0,56,-29,-28,-31,-163,-219,33,-59,111,-144,150,79,-20,45,57,89,112,-67,8,-16,7,102,-149,282,107,56,103,88,272,462127
-39,0,29,-26,-33,-39,-104,-148,-58,-168,-320,-33,217,137,-1,79,45,65,79,-26,107,18,-7,49,-67,420,60,34,74,53,57,462128
205,26,-38,-41,-1,-12,217,123,-88,-245,-61,81,44,29,27,314,-61,-66,-159,221,815,194,-95,-213,398,1427,-190,-142,-150,-126,-497,462129
391,70,-72,-41,41,20,447,184,6,-194,127,65,-31,-153,64,489,-144,-151,-375,381,1359,292,-167,-410,705,2255,-359,-270,-332,-265,-776,462130
402,80,-68,-58,21,4,485,95,-128,33,13,19,5,-189,-18,510,-159,-156,-459,371,1465,296,-195,-458,739,2474,-403,-303,-384,-305,-776,462131
185,69,3,-43,-5,-7,241,-91,-42,-47,-54,-144,8,-186,-131,318,-82,-58,-281,141,932,136,-142,-258,350,1745,-198,-195,-247,-169,-308,462132
-108,33,88,-12,-30,-24,-115,-245,98,-154,-197,-249,186,-23,-149,6,1,50,16,-161,72,-99,-65,31,-195,522,67,-11,-25,9,264,462133
-140,18,88,0,-23,-25,-167,-242,49,-28,-205,-198,70,-16,-95,-38,15,65,89,-187,-92,-120,-38,81,-240,268,106,32,38,55,302,462134
-168,4,66,-3,-49,-50,-237,-51,-6,71,-4,-117,-18,-210,-80,-73,24,62,82,-203,-149,-127,-26,85,-261,163,103,23,63,64,334,462135
-134,1,46,1,-53,-53,-205,71,2,-16,10,-30,104,12,-83,-16,48,71,92,-141,-69,-81,8,76,-171,259,108,53,84,75,192,462136
-92,3,53,-5,-15,-30,-207,21,-57,-43,-92,-34,79,41,6,28,54,67,102,-85,-7,-43,25,84,-120,315,115,76,93,75,198,462137
-46,-7,21,-16,-16,-27,-211,-71,-6,-124,-169,-26,-138,38,-61,59,21,34,60,-49,76,-29,-20,41,-58,414,53,30,51,41,22,462138
329,49,-59,-53,15,15,229,98,-63,-77,208,150,-188,190,82,446,-87,-93,-248,344,1116,271,-116,-297,629,1917,-259,-177,-200,-160,-738,462139
519,72,-58,-94,46,50,442,367,-70,-119,357,197,-125,237,137,646,-115,-131,-418,523,1697,432,-148,-455,935,2801,-403,-284,-351,-283,-865,462140
458,68,-46,-102,38,35,420,210,-113,-69,347,51,-132,-3,0,579,-110,-110,-401,427,1584,373,-150,-421,782,2706,-365,-277,-357,-285,-623,462141
147,55,31,-48,-3,16,147,10,49,-51,436,-17,45,-76,-36,249,-66,-34,-201,79,780,108,-114,-199,193,1600,-162,-176,-220,-168,-121,462142
-146,26,105,0,-24,3,-200,-129,127,-63,103,-172,-39,-112,-96,-55,6,63,69,-210,-81,-129,-37,83,-339,349,94,3,8,23,344,462143
-141,16,81,4,-26,-19,-188,-250,-10,-56,61,-230,-75,-171,-122,-77,-12,45,87,-207,-163,-146,-42,83,-321,195,93,27,44,41,268,462144
-93,12,65,-2,-25,-27,-128,4,59,-59,-13,-92,-64,-64,-53,-42,-6,41,63,-154,-97,-95,-41,62,-238,261,81,21,57,42,154,462145
-80,9,72,4,-13,-23,-110,46,17,154,82,-75,-83,-57,-4,-19,4,40,63,-106,-46,-46,-37,61,-166,314,72,24,72,45,111,462146
-100,3,62,-2,-12,-36,-134,3,-55,147,65,-122,-65,-88,-78,-22,-9,47,45,-108,-67,-56,-35,57,-167,269,71,10,57,31,124,462147
-85,6,65,-2,-13,-16,-88,-251,50,-110,120,-106,31,25,-53,11,13,52,53,-57,-10,-26,-10,53,-107,330,68,19,59,42,85,462148
179,40,-19,-8,23,2,259,2,-150,-11,106,122,-131,122,6,315,-25,-25,-136,236,731,210,-46,-145,406,1375,-141,-100,-94,-76,-495,462149
374,69,-79,-49,22,7,485,296,-237,77,33,143,-213,61,3,495,-141,-152,-422,400,1332,316,-176,-420,708,2318,-384,-304,-338,-287,-818,462150
378,66,-75,-75,16,-7,474,2,-66,99,108,55,-30,133,15,494,-139,-149,-471,362,1382,286,-202,-449,670,2462,-407,-344,-382,-327,-711,462151
158,41,-17,-60,-25,-35,233,-108,-41,-52,162,-98,-30,171,-19,284,-70,-40,-288,120,850,109,-144,-253,264,1738,-208,-211,-259,-201,-81,462152
-140,8,78,-18,-46,-49,-148,-197,69,59,-182,-142,-20,-261,-87,-68,14,86,52,-204,-58,-131,-48,83,-308,444,96,16,-7,15,427,462153
-106,7,83,6,-20,-7,-175,-102,129,18,-88,-55,250,-286,-24,-89,4,58,111,-201,-147,-144,-31,103,-329,317,99,27,29,42,301,462154
-113,7,81,-2,-13,-4,-234,-321,100,-57,-79,-146,169,-61,8,-94,13,44,137,-203,-224,-156,4,120,-345,197,114,44,48,59,320,462155
-116,3,80,3,-26,-21,-216,-70,63,-98,-197,-78,-51,-175,-81,-82,39,62,156,-184,-251,-137,30,148,-329,137,141,67,91,86,325,462156
-87,5,70,27,-17,-20,-150,118,0,179,-188,18,11,30,-21,-49,30,56,154,-133,-191,-91,22,123,-255,216,127,72,98,81,243,462157
-45,-6,27,3,-21,-10,-82,79,29,81,-28,-70,-44,61,-30,-2,-4,15,80,-86,-36,-59,-12,41,-129,428,38,19,32,25,59,462158
381,53,-90,-37,43,32,471,301,-182,91,307,160,-120,68,79,424,-128,-151,-311,351,1149,265,-119,-366,676,2143,-358,-240,-267,-239,-890,462159
717,104,-169,-102,65,41,922,399,-328,-54,486,217,-133,212,141,792,-243,-260,-719,693,2254,527,-248,-740,1325,3789,-687,-494,-575,-494,-1468,462160
719,132,-139,-131,53,44,836,357,-228,123,452,202,-154,183,117,820,-242,-237,-762,673,2394,523,-280,-737,1307,4050,-667,-498,-625,-509,-1317,462161
319,75,-42,-114,-4,8,187,-54,-197,-125,164,-92,24,-280,-48,369,-205,-149,-504,176,1356,145,-264,-449,500,2659,-393,-358,-464,-368,-444,462162
-213,-1,102,-59,-55,-40,-465,-295,100,-125,-470,-287,306,-461,-91,-160,-12,78,53,-337,-171,-234,-81,107,-485,431,113,-2,-35,5,537,462163
-213,-16,111,-25,-44,-37,-400,-208,217,-50,-530,-152,271,-364,-97,-150,48,116,176,-274,-314,-172,5,197,-451,139,179,93,106,115,547,462164
-154,2,114,17,-14,-18,-295,18,222,37,-413,-26,135,-175,-59,-115,31,65,133,-207,-232,-129,5,134,-348,188,122,63,89,82,480,462165
-160,-3,80,-6,-38,-31,-266,96,87,-113,-109,-147,63,-138,-33,-127,27,47,140,-210,-263,-139,0,142,-340,108,132,82,107,86,405,462166
-173,-15,71,-19,-54,-38,-250,-164,82,91,20,-204,50,-178,44,-107,54,89,187,-187,-272,-104,41,184,-305,47,160,135,159,118,390,462167
-129,-3,74,-6,-22,-19,-169,50,165,170,224,-146,241,-112,94,-50,60,77,174,-122,-171,-52,55,152,-208,173,138,131,146,112,297,462168
104,24,3,-16,10,6,125,196,62,-14,20,32,93,116,103,152,-24,-30,-63,100,425,97,-32,-81,182,1050,-81,-28,-34,-42,-235,462169
334,45,-54,-43,28,14,378,324,-57,-32,264,111,10,76,110,362,-125,-117,-321,288,1070,232,-124,-336,549,2024,-323,-227,-262,-222,-582,462170
316,47,-43,-53,21,6,375,458,-75,22,250,55,-100,-36,-3,356,-142,-111,-340,249,1117,210,-156,-348,521,2156,-328,-265,-306,-234,-461,462171
125,37,5,-61,-17,-19,175,195,-68,7,120,-51,-149,71,-20,214,-63,-24,-152,92,689,102,-98,-154,213,1587,-144,-133,-161,-111,-52,462172
-128,15,88,-19,-39,-39,-144,-183,60,-77,-177,-128,-46,-94,-87,-47,39,77,104,-145,-43,-68,11,109,-247,537,96,49,56,62,426,462173
-153,5,82,-13,-34,-30,-247,-98,75,-82,-396,-15,-1,-72,-123,-115,31,51,101,-209,-230,-130,0,104,-311,269,94,44,67,61,347,462174
-170,-19,67,-12,-33,-39,-343,-130,63,-79,-252,68,-14,-135,-71,-119,25,49,133,-225,-317,-158,4,132,-319,142,111,86,93,74,304,462175
-134,-27,49,-32,-38,-31,-309,-221,46,90,-243,-46,-70,-155,-4,-96,25,46,126,-200,-262,-135,13,113,-274,208,105,82,80,49,269,462176
-94,-13,72,-24,-14,-5,-216,-182,100,220,-167,-55,204,-27,-13,-53,48,66,145,-151,-203,-106,45,118,-220,270,137,94,102,57,226,462177
-106,-8,95,-12,-8,6,-184,-107,96,51,-98,18,296,19,-48,-58,50,74,153,-148,-229,-101,47,149,-228,225,153,101,117,82,302,462178
-237,-28,110,20,-16,-9,-333,-216,15,-16,-202,-76,111,-175,-13,-219,55,111,252,-287,-627,-210,64,258,-495,-390,233,170,191,159,518,462179
-215,-27,71,58,-25,-22,-280,-192,84,-46,-45,-67,117,-205,-16,-201,68,86,264,-255,-613,-209,78,233,-482,-414,200,168,182,152,422,462180
-238,-15,75,66,-29,-34,-275,-177,189,21,-47,-39,211,-80,-169,-172,120,132,329,-231,-647,-171,146,290,-476,-510,245,221,254,203,507,462181
-210,-16,67,43,-26,-43,-253,-201,95,-19,-37,-30,12,65,-49,-129,145,142,323,-161,-572,-98,164,296,-375,-466,246,239,281,227,451,462182
-90,5,33,39,-9,-31,-101,28,89,207,114,29,-4,257,38,-43,97,74,192,-38,-250,-8,114,168,-155,-53,125,149,179,135,232,462183
-97,1,46,30,-8,-9,-97,-64,42,38,117,22,-20,65,25,-75,45,31,130,-72,-249,-41,69,117,-160,-32,84,99,129,72,196,462184
-108,-8,30,9,-12,2,-122,-133,-9,-3,130,-27,7,-105,-37,-83,6,15,71,-97,-239,-66,10,82,-174,-31,51,58,86,47,146,462185
-88,-2,25,17,-15,8,-130,45,1,-33,-114,45,164,-101,9,-51,8,15,67,-85,-195,-56,5,71,-129,36,49,64,94,38,52,462186
-88,-3,21,5,-15,-7,-142,84,96,-124,-298,25,119,102,-80,-59,38,23,93,-75,-195,-38,45,98,-117,21,53,91,114,64,79,462187
-71,-15,25,-21,-15,-8,-148,-71,123,-31,-79,-48,100,60,-17,-62,52,30,107,-63,-188,-31,70,103,-107,11,77,107,117,68,131,462188
-225,-33,70,-4,-24,-14,-318,-166,104,-14,-356,-107,176,74,-139,-239,87,87,235,-238,-674,-170,104,238,-444,-667,230,183,212,146,533,462189
-383,-48,114,35,-37,-14,-455,-333,159,34,-423,-162,-3,7,-150,-416,135,158,404,-405,-1174,-287,147,390,-745,-1415,364,282,333,266,733,462190
-415,-52,119,73,-21,-4,-486,-75,140,-42,-329,-99,-6,107,-83,-465,142,163,469,-446,-1333,-324,163,446,-801,-1694,408,322,378,294,790,462191
-283,-47,73,67,-3,-5,-349,152,63,-88,6,-36,85,-6,32,-329,125,128,393,-282,-1033,-220,164,356,-573,-1325,313,278,326,242,409,462192
6,-15,-14,33,20,9,-9,98,14,-156,204,83,6,-9,143,-11,56,24,110,27,-221,12,108,70,-28,-182,53,91,119,72,-222,462193
54,-10,-38,-3,18,21,67,53,-111,-157,325,96,59,36,27,65,28,-10,10,90,28,64,66,-17,109,195,-20,33,39,-3,-158,462194
11,-34,-3,-27,12,33,2,-90,-93,24,-44,16,-34,14,-19,9,1,-6,4,26,-80,6,27,-6,-2,96,-3,18,27,-1,-65,462195
10,-10,3,-21,28,40,-16,-166,123,120,-35,22,54,217,28,4,6,-10,9,24,-78,-4,42,1,-24,106,-3,10,16,-2,4,462196
-46,-16,-2,-24,1,20,-78,-139,111,-42,-26,55,137,373,47,-47,19,4,53,-36,-196,-33,64,45,-93,-59,23,37,41,26,162,462197
-90,-6,39,15,7,23,-132,77,-24,-36,-203,-19,206,2,31,-129,43,41,121,-114,-401,-90,87,125,-213,-364,100,88,101,74,287,462198
-424,-40,125,85,-19,-3,-505,-210,79,-37,-411,-225,122,-189,-96,-526,120,145,402,-504,-1400,-396,144,434,-879,-1828,382,284,322,248,979,462199
-739,-95,207,139,-47,-16,-868,-450,289,24,-529,-340,223,-249,-196,-871,223,251,779,-812,-2411,-636,248,773,-1471,-3372,676,531,602,484,1520,462200
-742,-123,167,123,-65,-39,-902,-202,216,123,-375,-261,114,-269,-101,-839,240,242,831,-729,-2413,-574,294,782,-1372,-3508,679,569,656,500,1249,462201
-404,-84,61,94,-31,-31,-533,76,108,53,115,0,-124,43,32,-456,191,141,563,-316,-1477,-243,255,509,-676,-2282,424,423,493,355,557,462202
74,-27,-70,35,16,-1,16,373,-57,-33,201,306,-2,237,90,37,39,-55,61,163,-124,122,102,13,192,-326,-22,81,106,33,-407,462203
90,-12,-43,29,28,17,124,475,30,-12,46,314,-17,332,120,80,2,-45,-20,158,36,114,69,-47,192,-36,-45,19,11,-21,-276,462204
46,-5,-22,38,31,23,231,174,53,93,78,134,-92,246,77,35,17,-1,-4,97,-55,62,75,-3,88,-129,-11,37,17,-2,-109,462205
37,-9,-37,33,29,23,189,-112,-38,94,18,-9,-180,23,27,-47,-15,-29,-27,19,-159,-1,43,-23,0,-239,-38,-7,-18,-36,-91,462206
62,6,-16,66,53,36,165,359,29,-36,-179,54,-23,113,33,-72,0,-24,2,-12,-188,-23,49,-4,-29,-283,-29,13,-3,-19,-75,462207
5,2,-2,65,34,19,91,168,-24,-5,-260,77,-118,-17,9,-109,7,-9,29,-60,-301,-59,54,44,-103,-443,5,36,29,3,132,462208
-244,-36,40,48,-20,-22,-241,-82,46,14,-180,-15,-8,-97,-26,-327,66,72,214,-278,-915,-213,104,250,-513,-1319,195,159,192,130,601,462209
-472,-76,103,60,-44,-32,-523,-340,214,-71,-289,-111,79,12,-37,-532,177,182,491,-460,-1540,-336,198,511,-860,-2296,435,353,423,326,898,462210
-488,-75,116,101,-21,-7,-555,-171,161,-136,-107,-98,12,-142,-51,-599,182,161,563,-491,-1727,-381,230,556,-926,-2646,487,393,478,357,887,462211
-275,-56,66,98,18,26,-315,17,110,49,-36,85,73,17,-24,-434,91,49,378,-303,-1279,-260,166,353,-584,-2059,289,262,341,222,397,462212
85,-23,-39,56,52,58,134,214,-46,54,168,201,-13,71,75,-45,-28,-90,10,63,-261,3,43,-13,77,-597,-53,29,61,-13,-279,462213
123,-22,-57,21,37,35,229,285,-99,81,121,151,35,72,146,31,-51,-98,-86,116,-14,48,15,-90,183,-214,-121,-33,-38,-75,-319,462214
127,-8,-39,32,38,35,263,219,-36,98,97,125,16,41,24,30,-31,-64,-103,106,33,60,15,-92,169,-142,-102,-41,-53,-75,-252,462215
70,-9,-26,30,39,32,181,16,-88,209,-21,-15,0,-130,11,-52,-20,-48,-59,31,-99,6,24,-47,65,-323,-68,-28,-33,-48,-64,462216
30,-4,-29,40,33,24,143,-29,-35,90,62,-19,-93,-99,47,-64,-12,-36,-34,15,-150,-1,34,-9,30,-404,-53,-4,-9,-20,-72,462217
56,5,-31,23,28,19,197,-86,3,70,230,138,-74,-41,26,-22,-15,-49,-65,55,-38,34,9,-51,101,-241,-77,-29,-20,-37,-130,462218
-291,-47,57,29,-22,-27,-243,-306,185,110,-176,-17,13,-139,-29,-363,65,68,193,-303,-943,-226,74,247,-523,-1518,204,146,176,135,621,462219
-604,-92,125,64,-57,-55,-624,-370,261,187,-481,-202,-82,-208,-46,-673,155,172,522,-601,-1877,-465,185,568,-1075,-2910,504,371,442,352,1100,462220
-565,-103,97,86,-40,-38,-571,-403,71,117,-331,-209,82,96,16,-685,124,115,500,-573,-1898,-473,159,516,-1020,-3011,447,337,425,323,848,462221
-228,-70,25,87,30,21,-166,-125,17,-29,-177,-48,74,315,-27,-392,62,15,266,-245,-1140,-226,94,258,-480,-1976,207,174,254,164,256,462222
117,-25,-74,42,55,45,289,155,-64,-61,317,165,-188,156,52,-36,-12,-85,-29,84,-196,43,21,-50,129,-595,-62,-10,8,-32,-301,462223
91,2,-77,35,32,22,230,242,-54,6,183,144,27,347,46,-5,16,-40,-12,79,-115,52,54,-28,125,-467,-37,19,-11,-24,-172,462224
40,-13,-71,9,17,-8,91,13,-114,113,114,22,84,177,45,-7,51,7,54,62,-152,49,99,21,91,-501,9,64,26,10,-123,462225
68,-15,-68,7,32,4,127,-66,1,39,-170,169,-131,105,47,62,54,13,49,142,15,108,114,13,168,-261,-3,57,17,11,-215,462226
102,-1,-50,16,43,31,169,95,25,-42,313,242,-203,31,61,72,40,-17,-4,148,85,116,77,-35,167,-134,-22,12,-15,-9,-237,462227
58,-15,-51,15,17,18,107,142,-82,56,314,102,-75,-80,4,-9,-18,-50,-46,45,-21,29,19,-70,51,-254,-72,-45,-63,-49,-197,462228
-96,-29,-1,12,-6,16,-119,20,8,-34,143,-90,19,-207,53,-170,19,9,90,-108,-426,-85,55,86,-214,-829,59,52,42,39,155,462229
-261,-39,62,41,-5,7,-337,-334,225,123,126,-162,103,-243,32,-329,111,113,316,-251,-935,-172,149,317,-479,-1592,279,214,243,200,554,462230
-291,-64,50,36,-17,-6,-354,-229,187,85,-181,-135,-70,-271,41,-368,93,99,310,-279,-1035,-207,145,305,-521,-1794,268,212,239,192,399,462231
-152,-53,5,37,5,13,-200,53,127,114,-247,76,19,-216,55,-259,35,26,165,-144,-733,-121,89,164,-275,-1395,135,118,150,106,138,462232
86,-11,-54,31,44,43,111,190,83,55,-49,189,93,89,30,4,-26,-58,-48,101,-66,59,18,-55,182,-459,-65,-14,-8,-26,-192,462233
120,15,-60,19,40,27,229,123,29,50,54,15,20,208,-20,92,-15,-52,-95,170,197,107,18,-95,334,-100,-100,-23,-49,-56,-329,462234
120,26,-68,20,27,14,288,350,9,-16,252,-29,97,178,38,143,12,-22,-122,215,330,153,33,-101,404,93,-105,-31,-48,-61,-275,462235
110,37,-62,30,29,9,270,235,-17,133,202,16,58,104,48,152,36,-7,-91,221,322,165,43,-69,364,84,-75,-5,-14,-30,-260,462236
92,16,-71,19,14,-8,218,217,-45,-32,234,-62,-117,-39,45,95,-10,-46,-104,164,260,113,5,-80,267,30,-100,-32,-38,-45,-280,462237
60,-10,-72,1,6,-17,146,-79,-184,-65,93,-38,-123,46,45,14,-86,-98,-149,64,163,28,-86,-131,153,-54,-124,-96,-103,-96,-260,462238
-198,-50,26,-11,-33,-14,-269,-125,37,-114,-71,-94,107,-13,-75,-274,0,8,118,-245,-619,-177,-4,136,-394,-1170,138,75,87,63,386,462239
-333,-66,86,10,-28,6,-490,-247,114,118,-207,-95,86,6,-127,-425,112,110,360,-373,-1152,-270,131,363,-682,-1984,335,247,283,218,747,462240
-310,-57,96,45,-8,25,-378,-173,115,33,-215,-86,56,19,-6,-424,123,116,380,-345,-1207,-267,159,358,-646,-2084,318,254,298,228,617,462241
-129,-42,19,32,8,19,-21,58,55,153,-17,22,45,112,64,-201,89,63,261,-100,-674,-81,146,207,-232,-1372,172,184,212,150,155,462242
147,-9,-56,17,51,47,318,12,-62,5,399,152,-43,143,1,90,6,-33,-37,178,116,137,63,-63,293,-227,-84,11,6,-19,-229,462243
144,10,-81,3,35,27,258,-10,-114,-46,222,87,-92,169,-14,115,-9,-41,-109,177,219,141,24,-98,303,-31,-107,-30,-55,-58,-325,462244
73,1,-84,-16,8,-5,110,-239,-160,-34,-6,47,-150,95,31,81,15,-15,-32,124,115,102,43,-15,195,-144,-26,5,-14,-8,-223,462245
60,-5,-58,-16,13,10,72,-100,-57,125,46,120,-103,192,-10,53,9,-4,-28,101,73,85,39,-17,151,-182,-25,-7,-31,-9,-69,462246
64,12,-34,-5,26,33,70,44,-45,-69,86,73,-124,191,-1,29,-22,-31,-48,75,47,53,-1,-30,132,-189,-38,-37,-57,-19,-76,462247
33,8,-16,16,24,26,41,-174,-90,-257,149,70,-106,-5,9,-11,-12,-24,-21,37,-24,22,3,2,58,-303,2,-18,-41,5,-2,462248
-122,-4,21,32,0,-3,-152,-270,-92,7,-55,16,-184,-224,-41,-134,59,60,112,-104,-403,-80,63,133,-218,-859,107,78,60,82,299,462249
-240,-35,22,15,-23,-32,-283,-233,-34,111,-76,-49,71,54,-43,-236,86,78,213,-195,-719,-158,95,222,-409,-1337,180,146,146,132,436,462250
-156,-34,11,8,-6,-16,-201,-338,-17,110,21,-53,76,104,57,-176,65,51,173,-107,-575,-113,91,176,-293,-1170,137,120,129,106,277,462251
-62,-18,-3,21,5,6,-94,-276,-102,252,-70,15,-58,76,-8,-120,29,7,95,-46,-385,-79,41,97,-135,-909,67,67,74,50,84,462252
74,-4,-37,10,29,24,77,111,-145,66,101,81,-185,201,34,-3,-39,-62,-48,61,-6,19,-42,-49,133,-364,-58,-24,-30,-37,-199,462253
110,2,-24,10,35,32,115,41,-68,122,97,152,-84,61,32,15,-51,-62,-102,86,91,50,-52,-77,179,-232,-88,-48,-39,-47,-190,462254
132,17,-36,10,29,22,171,97,-67,-40,145,11,-52,151,-12,46,-41,-57,-139,112,186,73,-32,-97,223,-114,-113,-74,-63,-76,-191,462255
75,7,-40,4,1,3,139,187,-16,-217,-106,-9,-84,34,-35,50,-20,-19,-102,87,126,77,-8,-50,181,-193,-81,-35,-23,-42,-158,462256
70,11,-36,8,4,12,119,172,-35,-34,-114,14,-45,-114,59,61,-15,-14,-91,98,139,90,16,-50,178,-171,-84,-31,-35,-42,-217,462257
100,5,-51,-17,11,17,125,233,-61,-56,217,-70,-194,-145,46,99,-15,-39,-101,130,228,110,20,-82,210,-37,-118,-41,-63,-69,-283,462258
174,14,-54,-36,17,25,193,274,-88,37,268,-1,-128,48,-12,194,-21,-41,-145,217,448,159,-1,-124,348,311,-169,-75,-95,-95,-375,462259
193,22,-69,-61,11,9,250,212,-134,-34,26,109,-18,250,12,242,-50,-53,-218,258,621,192,-51,-180,445,592,-216,-130,-153,-125,-430,462260
186,30,-58,-51,18,16,267,-44,10,-105,97,178,-101,111,91,223,-53,-53,-219,235,608,179,-59,-186,412,612,-195,-132,-162,-114,-333,462261
108,13,-41,-34,15,19,150,103,66,80,51,68,66,-102,-11,81,-99,-82,-200,81,354,49,-107,-178,213,320,-177,-145,-174,-142,-259,462262
26,13,11,5,22,25,51,72,46,-20,-74,-93,45,-115,-37,-15,-43,-25,-79,-25,74,-21,-60,-61,24,-67,-71,-72,-80,-67,-21,462263
28,-1,-13,-16,1,12,39,-124,-49,-129,70,-110,-24,-118,-40,10,-29,-11,-100,-1,104,-5,-36,-68,52,-27,-71,-86,-79,-65,-51,462264
19,-3,-10,-14,4,1,-17,183,39,-79,31,-70,-28,20,73,36,21,29,-45,20,78,27,16,-13,59,-71,-4,-25,-16,-26,43,462265
39,-5,-14,-21,-1,-15,19,200,-32,-43,229,-75,111,65,42,43,2,-5,-34,38,114,36,4,-14,83,-34,-12,-18,-16,-31,68,462266
57,-6,-7,-39,-5,-11,44,-114,-136,161,62,-20,87,-202,39,61,0,-7,-43,66,153,62,-16,-10,109,15,-13,-16,-27,-8,-13,462267
37,0,-13,-42,-5,0,57,12,-23,222,166,32,25,39,-44,84,6,13,-30,88,162,80,-16,0,113,29,-13,-13,-18,-5,-10,462268
113,31,-15,-34,19,25,176,148,24,-80,174,73,-151,55,35,155,-34,-40,-126,161,430,130,-45,-112,307,429,-106,-70,-97,-68,-298,462269
205,35,-45,-31,32,36,189,299,-69,-79,263,96,-204,-132,60,185,-114,-128,-288,184,638,125,-110,-254,410,793,-238,-182,-224,-197,-462,462270
210,28,-51,-32,19,25,183,139,-126,7,209,92,-137,-76,62,209,-86,-95,-250,200,671,158,-85,-224,417,848,-214,-149,-192,-160,-392,462271
130,21,-26,-19,7,12,122,-29,-73,-76,-36,-11,-125,74,62,171,-13,-19,-107,142,505,128,-21,-79,308,609,-90,-40,-90,-60,-100,462272
-47,-2,2,-31,-25,-24,-96,-266,-63,83,-159,-119,-25,57,22,-28,0,16,14,-47,29,-30,0,44,-33,-57,21,21,-24,-2,255,462273
-46,7,-2,-3,-24,-33,-71,-58,12,-34,-96,-98,-178,69,-52,-51,-9,4,17,-49,-25,-29,-4,27,-70,-148,11,2,-19,-5,63,462274
14,37,-6,25,8,-7,22,53,31,-52,-74,11,-67,19,4,6,-18,-5,-9,7,77,15,-31,3,10,-21,-23,-19,-32,-20,-18,462275
-14,15,4,10,-6,-16,-47,-99,-13,-121,-138,-32,-41,0,-7,-11,1,23,28,-26,-16,-12,-20,35,-40,-170,5,8,-4,5,-12,462276
-19,0,10,-9,-11,-23,-115,-103,-56,-126,-111,-65,-126,-125,-135,-16,25,45,33,-27,-50,-15,-3,41,-48,-225,34,19,25,22,76,462277
15,12,13,-17,-5,-7,-115,29,71,138,-144,6,-104,34,-40,56,63,66,29,45,54,43,48,57,35,-93,57,36,49,36,44,462278
220,31,-61,-54,11,-5,152,197,-55,98,147,144,-156,202,48,341,28,-1,-141,328,752,253,20,-127,506,907,-121,-60,-75,-58,-419,462279
367,48,-105,-81,19,-14,380,295,-169,-118,384,227,-76,249,84,506,-32,-51,-300,475,1279,391,-32,-308,796,1702,-275,-184,-230,-172,-732,462280
361,60,-101,-61,24,-3,481,412,-196,-147,248,164,92,21,26,471,-70,-67,-355,418,1274,344,-91,-351,730,1792,-304,-237,-296,-205,-597,462281
194,45,-39,-42,15,10,319,-5,-267,-41,-187,-4,145,-268,-47,239,-80,-59,-300,186,792,148,-103,-256,356,1175,-218,-220,-256,-183,-263,462282
-38,15,50,-20,3,31,-13,-304,-14,-68,-690,-188,24,-189,-61,-54,-39,-10,-74,-84,75,-69,-62,-34,-120,153,-29,-92,-90,-56,146,462283
-58,8,53,-10,1,28,-85,-314,63,33,-382,-143,-31,-244,-59,-97,-52,-40,-27,-95,-50,-95,-71,3,-147,-46,-14,-52,-37,-22,93,462284
-57,11,32,18,-18,1,-106,-46,81,-38,-77,-80,-124,-95,-128,-87,-41,-39,-21,-91,-61,-84,-70,8,-118,-100,-12,-39,-14,-2,71,462285
-47,12,20,21,-23,-13,-87,261,32,-79,-131,-50,121,-131,-44,-54,-15,-3,-21,-70,-16,-62,-56,15,-60,-72,-24,-33,2,15,-8,462286
-38,-9,-1,-18,-40,-21,-101,-21,15,169,-40,-75,133,-143,95,-47,-35,-14,-53,-43,23,-52,-65,-19,-11,-2,-57,-47,-13,-27,-15,462287
-3,1,2,-11,-8,-17,-105,-15,129,146,0,-92,-33,-26,25,3,2,23,-12,-3,53,-8,-25,12,37,41,-18,0,23,11,21,462288
225,35,-35,-6,39,18,174,97,9,88,134,20,-11,171,35,248,-31,-35,-152,223,632,172,-51,-141,436,858,-161,-92,-93,-80,-412,462289
389,53,-85,-43,38,23,415,337,-323,66,197,81,-44,197,67,418,-101,-117,-355,394,1159,282,-128,-333,733,1652,-352,-224,-266,-220,-676,462290
425,67,-91,-61,39,27,485,329,-271,15,243,102,1,107,23,469,-122,-145,-430,418,1357,308,-171,-411,802,1996,-411,-288,-344,-277,-731,462291
278,64,-43,-49,23,19,325,50,-202,7,206,-20,0,-103,-62,329,-95,-92,-342,251,1035,211,-137,-321,507,1601,-289,-246,-303,-230,-371,462292
-87,25,42,-26,-31,-31,-86,-132,-65,23,-73,-211,65,-125,-66,6,39,85,22,-74,97,-19,4,49,-123,244,63,-9,-30,18,268,462293
-121,15,30,-17,-40,-45,-127,-81,37,-171,-9,-147,-21,-23,-70,-9,80,117,121,-78,-72,-21,43,137,-194,-27,128,60,59,108,312,462294
-93,13,34,-3,-20,-32,-118,87,123,-224,-246,-32,-111,114,13,11,83,120,142,-53,-93,-9,40,152,-186,-61,136,86,86,125,237,462295
-22,8,11,-12,-14,-24,-37,132,83,-188,3,26,-124,122,17,34,22,41,55,-30,53,-12,-15,59,-93,143,45,19,14,40,52,462296
20,12,2,-17,-6,-10,14,7,110,-70,272,33,-63,156,17,43,1,16,-12,-21,126,-15,-35,12,-36,235,9,-14,-22,6,75,462297
54,7,-9,-6,-2,-1,58,37,14,-25,74,-27,-77,49,-1,72,-6,20,-39,5,198,19,-22,-26,10,345,-34,-35,-47,-11,3,462298
188,27,-41,9,14,19,234,64,-53,-45,98,-7,-116,27,4,199,-45,-42,-150,146,557,119,-57,-174,254,874,-156,-135,-140,-98,-342,462299
444,83,-89,14,58,51,541,199,-153,-69,123,128,75,56,66,428,-146,-174,-416,388,1286,292,-163,-436,701,1967,-397,-314,-351,-288,-751,462300
388,73,-80,-29,38,27,428,270,1,9,21,122,24,3,53,410,-141,-155,-408,351,1273,278,-152,-392,647,2007,-350,-290,-341,-271,-621,462301
147,51,-6,-41,-8,-14,136,84,98,-10,96,90,25,-56,-29,256,-26,-16,-173,181,746,167,-39,-128,294,1271,-109,-115,-165,-90,-74,462302
-108,19,33,-19,-63,-63,-166,-158,-42,57,-83,32,12,-34,-40,28,46,72,54,-38,80,0,38,84,-127,307,81,16,15,52,290,462303
-54,5,41,-12,-23,-36,-130,-193,-28,54,22,1,-88,-41,27,24,37,45,45,-24,45,-18,4,58,-119,250,52,-5,36,39,193,462304
-5,14,47,-1,2,6,-54,-146,14,-58,-41,8,-135,-152,-19,10,-16,7,-5,-31,63,-44,-58,0,-91,277,-7,-38,-13,-6,85,462305
-29,29,45,7,1,0,-57,-117,21,-171,-20,45,-64,-154,5,-21,-23,11,2,-53,11,-66,-53,-5,-86,185,-11,-31,-11,-9,165,462306
-89,-2,13,8,-39,-40,-69,37,-19,-71,-531,-53,67,-110,-121,-43,-31,0,10,-72,-43,-93,-43,-6,-105,108,-17,-34,-13,-23,120,462307
-43,12,21,26,-11,-18,-39,79,35,-24,-534,-143,60,-131,-74,-13,-18,-3,22,-36,10,-70,-31,12,-48,167,5,-7,18,-2,-28,462308
-19,-8,5,-1,-10,-16,-9,79,124,190,-84,-112,28,-91,7,3,-34,-26,-4,-25,27,-49,-46,-1,-24,183,8,-21,15,-12,58,462309
40,9,0,-2,0,-1,93,106,39,5,-143,107,107,-27,-20,104,-11,-17,-11,60,197,35,-9,-20,92,416,1,-13,-2,7,-28,462310
30,2,-5,-21,-15,-9,36,68,10,-99,-107,118,129,97,-96,112,15,-1,-12,60,230,53,1,-17,105,472,4,-14,1,6,5,462311
3,1,10,-40,-11,-4,-62,-68,55,-122,122,27,102,-3,-19,47,27,17,6,16,155,35,15,7,29,368,8,-6,11,15,35,462312
-47,-14,24,-38,-19,-7,-139,-135,73,-31,45,-44,75,-174,-16,-6,48,49,66,-37,11,-8,46,68,-96,152,57,41,49,47,135,462313
-50,-8,31,-20,-11,-8,-147,25,4,-41,-87,3,136,-172,30,-23,35,44,100,-69,-62,-27,42,91,-163,60,70,51,55,46,180,462314
-43,-18,35,2,4,9,-115,38,-52,-47,-30,15,118,-376,7,-89,-41,-30,46,-137,-123,-97,-44,19,-250,13,4,-18,-18,-6,45,462315
19,-6,35,26,18,30,16,142,-65,155,150,43,59,-165,30,-57,-86,-71,-46,-98,19,-74,-82,-74,-170,224,-68,-98,-91,-63,-50,462316
-5,-7,29,9,11,16,5,-188,-82,133,46,-38,68,-41,-33,-48,-52,-40,-37,-100,19,-68,-57,-50,-132,224,-45,-73,-73,-47,29,462317
11,17,15,16,5,7,-36,-120,-74,15,24,-88,241,-88,-31,5,2,3,16,-45,53,-2,-1,11,-36,242,4,-12,-17,4,60,462318
192,40,-44,14,29,4,139,52,-43,7,-94,-19,143,-156,-23,210,-34,-51,-141,176,584,172,-29,-141,374,1002,-135,-95,-101,-81,-414,462319
408,60,-101,-23,52,19,320,349,-136,64,238,169,-117,-106,86,424,-140,-168,-407,381,1244,307,-149,-387,786,1993,-361,-269,-291,-253,-854,462320
428,49,-109,-81,27,14,321,283,-238,-121,111,144,-171,26,50,457,-184,-204,-516,383,1393,301,-225,-457,819,2279,-431,-334,-382,-331,-804,462321
256,39,-51,-58,-8,-1,264,-23,-76,-210,-77,49,-69,6,33,315,-119,-99,-363,226,993,181,-168,-295,494,1745,-282,-231,-282,-227,-323,462322
-52,33,28,-14,-41,-44,-14,-67,7,29,-174,-52,51,-128,66,19,-14,43,-12,-57,152,-47,-62,36,-66,513,39,-16,-21,1,192,462323
-69,14,21,-21,-35,-45,-37,66,37,46,-186,-68,-108,-220,3,-19,-17,16,54,-72,29,-71,-42,52,-109,315,40,2,14,24,175,462324
-38,23,48,-22,-8,-11,-14,78,-4,-41,-92,-34,-34,13,-41,-12,-19,14,33,-46,32,-55,-40,28,-76,319,15,-9,-2,16,152,462325
-63,4,46,-24,-17,-11,-73,27,40,4,76,-74,-100,-97,-31,-32,1,29,36,-64,-43,-71,-33,33,-118,208,36,-5,8,18,76,462326
-94,-8,28,4,-11,-17,-107,-43,17,-60,123,-96,-9,-171,-79,-76,-30,-9,14,-104,-107,-100,-47,-6,-156,127,1,-26,-19,-31,35,462327
-47,-10,15,12,-20,-12,-35,-67,-53,-70,0,19,-62,-87,-72,-52,-44,-35,-5,-75,-15,-55,-43,-31,-64,247,-42,-46,-26,-56,-100,462328
408,53,-105,-2,31,30,570,242,-152,11,526,240,64,126,61,407,-138,-171,-351,408,1189,296,-124,-387,766,1967,-371,-267,-282,-258,-979,462329
814,128,-182,-43,82,58,1070,594,-232,-19,619,319,-104,228,157,840,-252,-297,-786,797,2434,591,-258,-791,1497,3842,-730,-539,-631,-517,-1580,462330
839,145,-193,-76,66,31,1060,536,-223,-62,451,252,-73,233,149,912,-307,-322,-918,801,2728,608,-328,-889,1574,4392,-808,-631,-749,-596,-1616,462331
534,101,-121,-108,1,-12,636,306,-124,-189,223,120,181,80,26,656,-272,-224,-742,489,2071,383,-314,-669,1024,3569,-608,-517,-619,-481,-937,462332
-110,19,70,-69,-76,-62,-190,-74,78,54,-145,-191,250,-231,-166,33,-36,46,-105,-153,278,-75,-105,-19,-168,1016,-9,-92,-107,-45,292,462333
-158,16,92,-21,-61,-42,-253,-154,173,63,-86,-233,165,-240,-124,-33,37,82,94,-196,-58,-111,-15,120,-289,497,103,20,32,68,445,462334
-182,-3,82,-36,-66,-47,-265,-193,95,149,12,-112,117,-199,-115,-66,47,75,143,-196,-167,-128,10,141,-308,316,130,44,74,97,393,462335
-182,-6,79,-28,-53,-38,-258,-132,49,112,176,-14,99,-132,-118,-81,30,63,114,-193,-204,-143,-12,111,-299,244,120,34,50,81,324,462336
-213,-1,87,0,-42,-34,-233,-185,108,6,-51,-47,140,-213,-35,-126,23,49,129,-226,-321,-172,-49,115,-376,63,120,42,63,91,308,462337
-136,9,67,21,-18,-29,-82,-108,110,-143,-203,-14,121,-180,-60,-85,-22,15,81,-156,-212,-135,-76,59,-288,210,50,2,21,53,123,462338
656,118,-143,-1,87,49,932,425,-221,-120,504,321,-3,267,171,674,-220,-278,-584,638,1882,455,-231,-654,1138,3201,-606,-430,-497,-375,-1511,462339
1196,182,-288,-92,124,78,1542,621,-349,-153,806,358,-210,267,218,1220,-422,-494,-1217,1115,3554,818,-436,-1238,2101,5751,-1140,-840,-1005,-798,-2343,462340
1183,205,-255,-136,99,59,1419,699,-354,6,662,230,-201,200,70,1257,-456,-488,-1317,1071,3785,791,-513,-1273,2093,6233,-1174,-909,-1115,-870,-2286,462341
663,144,-117,-170,-1,-5,660,315,-209,-76,243,2,-241,26,32,817,-329,-277,-931,554,2634,424,-427,-833,1208,4723,-745,-653,-837,-604,-1095,462342
-274,2,112,-134,-134,-117,-547,-231,79,-200,-46,-328,32,-208,-120,-67,4,130,1,-322,94,-198,-114,124,-417,1079,140,-13,-84,30,722,462343
-353,-1,147,-62,-105,-92,-597,-264,149,-93,-276,-263,127,-152,-127,-147,127,227,291,-329,-377,-180,51,339,-540,302,328,180,190,226,777,462344
-271,-15,105,-51,-82,-78,-462,-316,-18,-23,-412,-202,191,-172,-125,-117,86,140,244,-256,-295,-133,45,252,-421,358,236,141,166,189,512,462345
-227,-16,96,-32,-53,-47,-384,-354,53,-56,-300,-193,125,-109,-132,-112,61,97,200,-231,-290,-128,16,199,-388,351,194,106,137,161,369,462346
-157,13,92,-13,-37,-16,-210,-221,109,-114,126,-143,-30,-93,-106,-52,29,73,148,-154,-124,-78,4,125,-256,560,146,60,90,112,282,462347
-152,-8,78,-32,-51,-28,-162,-160,5,-235,46,-174,9,-66,-1,-62,-9,40,66,-152,-89,-83,-37,46,-250,615,73,-5,17,53,220,462348
96,31,6,-31,-10,-4,137,-14,-85,-133,148,16,-3,93,-26,173,-49,-33,-120,92,522,88,-71,-164,175,1468,-117,-122,-117,-74,-300,462349
400,63,-98,-69,19,-7,518,137,-164,-97,270,127,-67,276,3,511,-124,-138,-395,416,1444,335,-125,-439,774,2802,-389,-291,-331,-246,-943,462350
743,121,-185,-107,46,14,904,208,-271,-97,499,187,-43,301,120,881,-245,-256,-776,749,2491,581,-247,-784,1394,4413,-714,-535,-633,-493,-1565,462351
461,96,-110,-143,-24,-48,524,106,-46,23,185,-11,-82,99,66,633,-223,-182,-671,419,1919,338,-288,-621,873,3710,-543,-479,-572,-422,-921,462352
-241,10,105,-77,-80,-80,-401,-179,169,-206,-415,-265,126,-362,-114,-113,-32,75,-18,-316,-94,-220,-130,58,-467,850,83,-64,-54,8,479,462353
-194,-3,107,-44,-35,-21,-403,-255,53,2,-236,-223,212,-278,-70,-134,-57,37,30,-278,-229,-218,-127,61,-430,619,86,-34,10,37,279,462354
-160,-18,98,-52,-48,-19,-358,-287,-25,131,16,-238,179,-56,-75,-90,-14,50,96,-217,-225,-178,-50,94,-352,583,117,17,59,82,285,462355
-145,-10,95,-36,-50,-26,-281,-123,2,99,-76,-176,245,-26,-123,-36,29,71,155,-135,-183,-104,19,134,-270,614,150,71,109,119,316,462356
-137,-9,69,-37,-57,-41,-204,-192,57,-72,-188,-65,244,84,-34,0,11,59,107,-87,-122,-76,0,90,-227,691,97,39,72,93,114,462357
-92,-9,34,-49,-51,-49,-90,-173,49,-20,-108,14,187,-24,-39,35,-18,34,28,-44,6,-73,-54,7,-153,862,33,-9,14,37,47,462358
98,44,-7,-14,-6,-22,226,80,-38,10,165,66,143,8,42,221,-59,-18,-125,152,517,87,-88,-141,202,1585,-119,-89,-92,-59,-300,462359
655,127,-153,-26,59,33,943,428,-218,72,738,210,-209,234,99,758,-255,-254,-683,676,2089,473,-271,-710,1205,3909,-643,-468,-553,-439,-1448,462360
877,164,-196,-89,70,52,1075,323,-335,-117,776,224,-202,315,71,960,-358,-362,-976,795,2818,584,-393,-982,1531,5075,-881,-682,-837,-666,-1786,462361
411,100,-47,-119,-6,-6,315,90,-131,-38,264,6,-83,225,42,510,-231,-177,-602,270,1682,213,-292,-571,659,3539,-484,-438,-580,-427,-685,462362
-196,-5,111,-98,-83,-76,-487,-154,163,38,-101,-317,317,-156,-106,-72,-33,70,-1,-320,4,-211,-117,47,-407,1110,77,-34,-103,-5,459,462363
-179,-13,98,-63,-63,-58,-443,-46,97,-57,-199,-249,265,-228,-93,-87,3,98,101,-282,-141,-176,-82,118,-382,838,115,40,11,83,400,462364
-119,-9,86,-45,-33,-26,-339,-181,148,-37,-247,-137,207,-221,-17,-52,-14,61,85,-205,-67,-107,-71,76,-277,915,88,33,25,55,262,462365
-127,-13,82,-47,-36,-22,-319,-306,92,73,-364,-214,192,-5,-102,-86,-29,2,87,-212,-131,-124,-59,68,-309,812,96,22,25,42,290,462366
-139,-5,104,-30,-24,-11,-308,-424,39,-95,12,-141,68,-80,-87,-56,62,89,187,-204,-227,-100,31,174,-335,627,191,109,137,147,489,462367
-160,-7,92,-24,-36,-24,-305,-263,38,11,48,-33,80,-123,-101,-76,65,104,189,-209,-293,-100,47,179,-345,499,187,107,152,148,462,462368
-135,0,69,-3,-29,-36,-248,105,-15,-128,-91,-55,54,-156,-130,-68,46,71,166,-178,-228,-79,38,134,-281,558,133,96,130,119,279,462369
-10,10,15,1,-20,-39,-59,-53,50,-243,50,-74,-211,-102,-40,69,7,10,65,-38,134,22,5,-2,-26,1055,20,29,52,41,-76,462370
211,55,-27,-10,13,3,239,32,45,-165,215,120,-217,27,107,311,-72,-57,-165,212,776,188,-71,-209,387,2006,-174,-113,-123,-93,-402,462371
73,21,12,-52,-15,-19,57,32,27,-52,-3,-69,-164,-27,73,190,-47,-13,-101,74,484,67,-69,-113,153,1646,-97,-70,-90,-52,-111,462372
-150,-14,86,-49,-38,-30,-236,-163,81,-214,-107,-131,7,92,-57,-66,34,81,134,-162,-204,-121,4,124,-286,679,114,77,84,89,331,462373
-160,-23,67,-49,-44,-39,-220,-128,11,-11,-183,-76,31,0,-42,-86,33,80,146,-142,-251,-123,20,107,-253,579,107,73,109,87,257,462374
-163,-27,47,-42,-42,-42,-321,-294,23,58,-192,-143,64,-168,-43,-134,-19,30,94,-185,-312,-162,-27,61,-283,485,67,36,74,33,267,462375
-172,-30,53,-30,-17,-18,-407,-406,-4,7,-219,-157,162,-221,-20,-171,-4,42,134,-219,-459,-183,-8,110,-346,251,102,85,110,64,315,462376
-56,-12,53,-15,0,5,-219,-42,46,36,-127,3,183,-129,-50,-37,57,59,166,-67,-230,-42,52,128,-160,531,114,129,144,99,233,462377
-66,0,72,12,-2,-2,-162,42,111,8,23,13,116,15,-22,-44,79,63,198,-65,-242,-40,77,153,-170,495,154,159,175,112,245,462378
-169,-20,88,20,-21,-24,-253,-181,106,35,10,-57,115,-142,-27,-157,47,65,203,-190,-535,-144,38,192,-386,57,194,148,177,119,428,462379
-382,-43,135,23,-55,-34,-457,-415,190,-18,-37,-150,232,-184,-109,-335,94,139,343,-386,-1059,-287,86,340,-738,-740,338,230,270,220,744,462380
-657,-76,191,58,-70,-59,-763,-535,172,-59,-233,-247,255,-17,-106,-581,217,269,682,-616,-1834,-460,224,648,-1185,-1925,613,445,539,443,1266,462381
-401,-49,119,75,-26,-24,-525,-290,30,-184,-305,-114,162,32,-64,-374,187,202,579,-371,-1348,-279,199,493,-746,-1341,468,384,504,379,691,462382
55,-13,0,28,30,27,9,7,9,-136,-74,25,-114,46,-82,33,18,1,119,46,-114,36,39,27,64,416,18,83,141,63,-156,462383
9,-14,13,12,15,15,-34,-41,25,86,-50,12,70,90,-107,-32,-14,-13,51,-34,-110,-5,12,-2,-17,449,-2,32,55,16,-51,462384
-34,-22,19,13,3,5,-82,16,31,37,76,-34,40,-42,-93,-79,16,3,75,-97,-214,-56,33,26,-111,308,24,29,65,25,23,462385
-49,-8,34,31,11,16,-75,-110,90,26,-51,-94,-58,7,-22,-75,41,33,113,-114,-258,-68,64,83,-159,231,74,77,92,69,48,462386
-50,-11,27,9,12,2,-80,-78,61,38,127,-95,43,205,52,-79,43,34,98,-106,-259,-72,55,86,-173,204,77,83,75,74,46,462387
-40,-3,18,5,22,8,-96,-28,14,-92,-34,14,156,33,82,-51,70,54,110,-61,-228,-38,68,104,-142,218,103,108,105,101,165,462388
-219,-33,57,15,-14,-15,-346,-120,52,-78,-245,-74,54,-5,-39,-215,118,133,263,-232,-700,-154,109,266,-468,-455,252,216,231,208,489,462389
-554,-79,161,46,-55,-21,-765,-492,81,-33,-574,-262,181,-119,-162,-586,191,245,589,-587,-1696,-438,169,583,-1111,-1913,541,407,479,392,1197,462390
-973,-139,283,100,-80,-29,-1237,-677,265,-1,-846,-468,252,-246,-191,-1061,319,392,1046,-1023,-3041,-772,318,1017,-1915,-3954,925,692,836,669,1960,462391
-792,-126,210,149,-35,-15,-941,-243,202,13,-517,-227,170,-101,-89,-900,288,303,975,-795,-2767,-627,335,882,-1558,-3681,806,645,803,617,1280,462392
10,-32,-18,127,49,40,71,196,8,168,227,198,-76,232,115,-125,32,-39,213,8,-635,-44,105,81,-124,-640,72,145,216,108,-271,462393
66,-22,-30,79,42,25,165,99,23,110,333,178,-352,64,82,-9,23,-13,64,87,-259,28,84,-6,44,-83,4,76,98,32,-261,462394
61,-13,-30,36,36,14,177,26,-22,151,147,167,-171,453,79,73,75,60,82,162,-100,118,132,37,157,144,46,122,121,71,-158,462395
61,0,-32,24,40,19,135,1,62,55,21,67,-79,427,120,99,115,84,109,186,-31,137,160,83,197,227,73,152,143,102,-5,462396
66,-4,-52,18,23,0,91,416,35,51,133,116,-73,191,85,62,62,26,58,132,-7,95,111,40,187,305,22,93,76,40,0,462397
-7,-8,-13,21,22,5,13,54,90,233,84,124,-224,208,93,-34,59,31,87,18,-197,17,109,82,26,51,77,115,100,50,116,462398
-737,-123,187,30,-81,-52,-889,-586,298,107,-475,-258,-63,9,-83,-783,233,270,695,-752,-2195,-562,245,716,-1347,-2830,658,500,552,420,1671,462399
-1557,-225,402,137,-155,-104,-1861,-1059,535,147,-1078,-581,174,-418,-281,-1634,529,606,1579,-1541,-4698,-1146,552,1564,-2864,-6613,1432,1064,1268,996,3090,462400
-1533,-232,374,214,-117,-75,-1771,-936,619,284,-847,-447,198,-372,-221,-1621,627,652,1762,-1422,-4926,-1047,709,1659,-2785,-7230,1544,1196,1472,1146,2913,462401
-871,-177,164,192,-20,-7,-970,-207,261,267,-340,-133,253,-13,-121,-1001,441,371,1223,-710,-3304,-528,574,1067,-1553,-5093,988,855,1089,802,1295,462402
127,-56,-87,122,116,116,191,44,-70,231,275,347,22,448,104,-50,82,-79,201,224,-600,145,239,61,182,-1229,48,198,291,131,-535,462403
225,-32,-80,88,118,130,257,178,-107,98,420,267,24,294,92,45,-13,-142,-46,239,-163,140,117,-121,289,-522,-99,49,53,-49,-525,462404
157,-36,-83,62,84,88,236,185,-27,159,352,109,108,56,-18,3,-22,-116,-41,158,-184,70,84,-99,188,-515,-91,22,6,-64,-425,462405
170,-16,-85,63,64,54,316,201,-52,56,358,170,86,284,56,78,1,-81,-41,213,4,126,98,-103,283,-226,-106,25,-1,-61,-393,462406
132,-3,-71,50,52,38,213,304,-60,46,25,127,108,354,123,54,27,-37,-3,171,-39,101,107,-45,228,-267,-48,54,16,-23,-274,462407
39,-6,-51,40,42,23,9,237,-50,94,-1,83,114,145,88,-56,36,-15,50,49,-278,-2,96,19,28,-581,24,74,26,17,-63,462408
-293,-52,58,44,6,0,-464,-202,103,113,-454,-147,56,-3,66,-389,100,86,304,-309,-1172,-272,143,296,-595,-1849,292,233,217,186,671,462409
-686,-124,170,72,-44,-7,-904,-215,335,267,-499,-197,165,-36,-41,-773,251,273,714,-667,-2316,-536,296,718,-1294,-3574,681,523,574,464,1403,462410
-980,-183,218,122,-73,-41,-1130,-363,355,182,-653,-299,6,-287,-188,-1122,369,379,1056,-934,-3265,-734,416,1028,-1835,-5059,939,738,859,676,1869,462411
-593,-113,116,192,21,26,-579,-152,190,47,-191,-124,-78,-39,-108,-803,299,246,846,-527,-2452,-429,398,759,-1146,-4042,674,609,724,535,983,462412
210,-23,-130,121,100,94,455,364,-141,73,322,250,-292,281,140,45,46,-77,47,317,-148,184,166,-41,394,-745,-75,93,108,14,-532,462413
251,-4,-134,71,82,78,483,386,-261,45,44,246,-67,351,164,136,-1,-110,-135,351,208,221,85,-155,513,-128,-158,-17,-48,-98,-556,462414
213,7,-100,62,81,76,410,292,-96,58,-119,180,-66,42,135,99,-13,-89,-145,267,172,163,47,-145,407,-115,-140,-26,-65,-119,-454,462415
148,0,-79,49,58,52,308,78,69,-3,48,125,-94,164,47,41,-6,-61,-111,190,50,109,49,-91,268,-245,-99,-14,-47,-96,-318,462416
152,-14,-95,23,50,49,251,-18,-11,74,134,63,-278,230,20,18,-42,-94,-150,165,90,85,31,-133,275,-145,-142,-61,-89,-127,-246,462417
125,-13,-69,19,49,60,163,54,-74,58,137,107,-96,308,66,-18,-38,-94,-127,123,52,63,35,-120,234,-174,-125,-72,-90,-116,-132,462418
-502,-109,84,22,-56,-13,-627,-362,141,-103,-440,-181,6,-129,-75,-642,107,113,373,-525,-1598,-418,150,425,-893,-2536,391,253,295,210,1012,462419
-921,-163,185,86,-85,-49,-1097,-501,174,0,-689,-188,249,-254,-85,-1048,301,325,909,-875,-2887,-667,341,938,-1617,-4533,854,628,767,594,1729,462420
-931,-177,184,127,-66,-36,-1020,-344,290,102,-604,-182,221,-257,-66,-1048,362,366,1025,-822,-3075,-619,426,1023,-1604,-4977,899,718,895,688,1759,462421
-489,-112,74,152,26,28,-406,-30,207,198,-146,-38,134,-23,43,-646,261,194,692,-364,-2078,-300,348,655,-857,-3668,549,513,668,468,797,462422
212,4,-104,128,123,101,490,333,-110,178,91,290,-93,337,243,23,21,-94,32,286,-173,162,128,-41,350,-949,-67,60,120,-7,-526,462423
225,6,-124,87,81,65,508,189,-188,73,247,333,-82,439,187,72,-27,-112,-106,273,110,153,72,-131,403,-484,-138,-24,-42,-110,-492,462424
165,16,-98,65,54,49,383,340,-134,54,229,265,-215,337,140,74,34,-23,-47,236,68,158,106,-38,329,-527,-57,30,2,-44,-319,462425
154,9,-80,42,49,59,266,290,-118,63,315,212,-121,178,123,70,39,6,-24,217,72,167,100,-21,297,-511,-46,35,9,-37,-226,462426
122,-19,-77,8,37,41,190,297,-62,84,139,226,-88,83,142,23,-4,-43,-66,163,65,124,47,-64,243,-502,-95,-9,-42,-74,-307,462427
122,-5,-52,15,46,57,207,270,15,221,-134,198,-42,207,84,37,-3,-49,-69,169,108,111,35,-73,249,-426,-93,-20,-60,-66,-286,462428
-187,-46,7,24,-15,9,-145,-171,139,125,-68,-20,-167,107,-68,-294,27,16,120,-163,-706,-136,56,159,-323,-1546,126,92,84,57,347,462429
-463,-81,71,79,-34,-4,-451,-158,197,-27,-28,-155,38,-198,-119,-615,89,88,349,-452,-1572,-356,90,408,-851,-2787,351,224,285,207,780,462430
-676,-115,139,109,-37,-10,-754,-259,194,166,-195,-210,210,-149,-176,-866,191,176,628,-675,-2330,-521,198,677,-1271,-3956,598,421,523,390,1265,462431
-416,-103,71,133,22,34,-494,-255,44,203,-212,-73,65,6,-82,-647,135,77,490,-412,-1821,-352,191,487,-822,-3315,412,334,423,298,696,462432
224,-19,-97,107,102,96,320,183,-90,307,329,248,-66,114,81,6,-55,-163,-85,231,-53,102,20,-115,359,-776,-146,-42,-30,-86,-554,462433
202,-9,-105,63,58,65,355,153,42,64,265,221,-126,171,37,67,-1,-93,-106,249,97,134,48,-80,377,-497,-108,-22,-46,-98,-349,462434
185,-10,-117,34,40,34,348,81,52,29,293,225,-87,134,90,93,8,-72,-120,254,179,143,56,-88,394,-329,-110,-43,-67,-98,-334,462435
181,6,-100,18,31,33,266,198,42,1,162,214,-167,79,112,88,-35,-91,-180,235,235,104,-1,-149,363,-176,-151,-109,-132,-134,-385,462436
122,-5,-74,9,29,43,50,186,-145,-19,-23,85,-136,95,69,19,-48,-82,-160,146,81,35,-20,-126,214,-362,-117,-106,-129,-124,-296,462437
95,-24,-54,-24,31,68,-87,50,-151,-145,-36,55,-90,-115,-9,-20,-49,-66,-161,97,3,17,-17,-114,138,-457,-109,-115,-141,-122,-248,462438
-108,-55,11,-18,16,51,-291,-83,-169,-3,-174,-68,54,-124,-123,-228,41,44,83,-119,-585,-129,67,120,-256,-1317,115,48,34,44,297,462439
-237,-60,50,36,12,35,-280,-84,-29,8,-394,-116,92,-32,-56,-353,133,143,338,-249,-1049,-220,172,352,-522,-2052,305,233,238,206,641,462440
-278,-53,39,79,7,9,-210,-42,-22,60,-300,-50,-7,-58,87,-393,127,100,363,-273,-1178,-253,171,380,-561,-2295,312,268,292,228,594,462441
-149,-41,-28,75,9,7,25,-38,37,-19,-326,17,-81,-115,39,-257,59,3,199,-103,-766,-119,106,220,-257,-1739,135,168,182,117,178,462442
108,10,-97,64,44,30,373,253,-37,-120,-117,164,-71,3,64,28,7,-66,-28,175,2,122,61,-18,248,-676,-91,29,11,-38,-352,462443
182,36,-97,53,53,31,448,357,-63,-150,-74,221,-115,134,83,137,-3,-78,-122,267,316,209,32,-113,398,-220,-154,-49,-63,-91,-392,462444
104,25,-90,36,33,8,315,149,-42,-19,22,134,-105,204,62,62,-16,-57,-121,177,196,141,-5,-86,263,-367,-111,-62,-73,-82,-146,462445
93,17,-73,45,29,19,258,-66,-103,-126,76,276,-241,12,92,34,-17,-31,-124,143,144,128,-18,-62,221,-426,-96,-54,-51,-65,-117,462446
89,15,-75,55,26,12,280,10,-23,-179,-151,242,-81,-8,-15,37,-49,-70,-151,142,160,134,-41,-84,210,-360,-122,-80,-76,-94,-248,462447
56,11,-53,45,11,11,284,35,-18,-51,-349,84,-93,34,-46,-4,-68,-99,-146,92,100,90,-67,-90,130,-413,-125,-90,-102,-113,-225,462448
-91,-15,-20,29,-2,-8,119,-156,-89,83,-108,6,45,-74,67,-152,-49,-58,-53,-63,-260,-57,-53,-3,-143,-895,-38,-57,-54,-68,85,462449
-213,-28,10,19,-9,-12,-75,-279,49,113,17,10,-18,-136,31,-273,-2,1,77,-174,-603,-148,3,119,-348,-1393,80,19,31,26,270,462450
-194,-28,16,5,6,-5,-139,-34,109,26,72,20,-93,74,-15,-253,16,8,112,-167,-662,-147,19,144,-330,-1497,124,42,67,54,236,462451
-2,-10,-27,20,37,29,20,67,35,33,90,140,30,51,68,-77,8,-15,30,23,-277,-13,6,70,-41,-987,51,1,37,34,35,462452
98,3,-72,26,52,16,129,64,-73,-21,39,186,-8,-10,16,31,-12,-42,-24,122,34,63,8,-4,166,-550,-20,-35,-26,-9,-154,462453
148,29,-52,44,57,32,193,-84,-52,20,-42,74,41,201,42,61,-13,-63,-82,147,166,85,6,-41,236,-344,-60,-54,-65,-44,-187,462454
123,19,-44,26,24,22,253,-2,-57,-45,10,76,49,156,-6,72,19,-48,-84,149,174,86,35,-28,246,-291,-63,-33,-56,-35,-155,462455
39,18,-37,18,0,8,244,83,-81,-38,-62,65,-120,117,7,15,31,-12,-43,88,51,42,52,9,145,-452,-18,-9,-23,-17,-128,462456
-19,26,-25,20,0,10,215,-130,-90,-25,-31,-82,-150,-5,50,-11,43,24,12,45,-64,9,73,51,48,-637,30,18,10,10,-90,462457
49,11,-73,7,-6,-12,258,-46,-134,-238,-87,-83,-96,-39,37,45,-3,-2,-26,84,60,23,26,-16,124,-458,-42,-11,-36,-31,-203,462458
172,37,-103,15,12,-13,283,56,39,-19,-92,-31,-73,108,49,144,-38,-34,-132,167,347,85,-33,-105,286,-15,-113,-72,-106,-81,-293,462459
63,10,-73,-8,-12,-37,55,303,46,-31,3,-84,-48,56,-14,75,16,8,-34,115,143,74,5,0,147,-301,-28,-8,-31,-15,-18,462460
147,21,-50,-10,21,18,129,166,-7,-21,47,93,-61,-119,27,99,-49,-60,-130,159,298,110,-51,-103,219,-63,-127,-90,-118,-89,-264,462461
95,11,-30,-15,19,29,116,78,8,88,361,12,-262,-106,33,-7,-115,-123,-206,57,199,24,-125,-162,89,-139,-168,-173,-216,-154,-284,462462
13,7,-8,-3,8,0,66,9,-79,51,197,-22,-121,-114,18,-41,-34,-34,-97,24,28,16,-49,-55,3,-372,-59,-102,-106,-60,-69,462463
39,15,-26,1,9,8,110,-134,-2,64,51,17,-99,4,94,44,4,-6,-70,83,123,79,-8,-33,107,-241,-44,-72,-66,-41,-121,462464
7,7,-11,-4,6,11,38,-72,22,-47,37,16,-32,14,82,6,-2,-3,-43,52,31,63,8,-5,53,-376,-19,-41,-34,-34,-50,462465
27,-2,-12,-24,5,4,36,14,-57,-129,12,-6,0,-86,-25,-18,-16,-16,-53,42,22,42,-20,-26,63,-381,-35,-60,-40,-53,-18,462466
79,25,-2,29,34,28,118,77,-8,42,91,43,24,-116,21,46,22,10,-14,99,124,102,6,11,166,-257,-9,-20,-1,-12,11,462467
97,35,-18,30,27,16,175,83,86,54,378,34,-16,12,74,81,19,22,-27,126,208,129,2,7,213,-131,-20,-22,-3,-19,-14,462468
242,52,-55,15,37,28,339,162,39,14,157,193,150,100,92,203,-21,-39,-155,253,583,209,-34,-130,451,414,-154,-113,-109,-107,-308,462469
335,49,-88,-17,41,22,382,288,-178,0,178,99,49,113,73,294,-86,-104,-280,327,889,269,-73,-259,621,884,-274,-186,-228,-196,-491,462470
550,79,-157,-34,50,27,608,517,-227,-31,459,283,-91,87,104,565,-160,-183,-510,565,1593,430,-141,-494,1070,1947,-476,-328,-425,-336,-988,462471
463,75,-120,-76,16,14,535,310,-122,48,435,315,-43,-5,115,543,-121,-128,-497,498,1551,397,-136,-449,951,1970,-429,-314,-414,-315,-740,462472
-15,32,36,-67,-24,-13,-47,-48,128,-45,-117,-70,263,-119,-61,62,25,58,-61,-3,256,34,-10,18,52,133,13,-17,-74,-21,233,462473
-30,28,20,-47,-13,-19,-81,-121,40,-90,-65,-104,0,37,-18,-15,-14,-10,-19,-46,105,-26,-38,1,-38,-112,-4,-22,-59,-18,132,462474
-35,21,14,-20,-11,-3,-92,12,-7,-165,55,-149,-208,-70,-18,-40,-34,-34,-37,-73,23,-49,-56,-9,-105,-246,-21,-43,-66,-26,120,462475
-26,-4,2,-18,-22,-10,-61,119,-148,-83,113,-81,-93,-324,-60,-58,-61,-59,-53,-89,-32,-63,-82,-24,-125,-341,-37,-61,-72,-41,32,462476
51,25,8,14,8,13,77,18,-72,-62,63,34,-11,-181,2,23,-40,-42,-44,-1,99,-15,-69,-28,-6,-168,-29,-46,-55,-26,-131,462477
78,25,-23,-4,4,-4,175,69,-4,-8,163,-10,-28,13,-33,65,-70,-81,-144,56,279,6,-97,-118,100,95,-114,-114,-134,-90,-291,462478
443,83,-120,-24,48,41,608,380,-75,66,498,258,-175,164,44,472,-136,-185,-423,463,1317,327,-129,-423,797,1600,-405,-296,-352,-268,-1062,462479
863,133,-213,-80,95,79,1009,576,-127,-77,616,389,-357,333,159,904,-278,-336,-856,870,2591,643,-282,-844,1556,3531,-768,-579,-702,-548,-1744,462480
740,110,-190,-126,46,32,793,368,-226,-191,396,240,-222,258,36,796,-308,-304,-876,686,2413,517,-351,-803,1335,3449,-731,-601,-742,-571,-1408,462481
443,80,-91,-120,7,-9,425,131,-187,-156,176,46,-113,-33,-6,519,-193,-150,-597,378,1681,303,-266,-512,798,2483,-460,-429,-546,-389,-591,462482
-56,27,56,-82,-54,-46,-148,-66,97,-8,18,-174,-49,-305,-83,62,-6,68,-80,-75,341,-17,-90,-2,-57,561,20,-90,-138,-41,352,462483
-140,14,55,-67,-66,-71,-159,-133,94,71,-78,-153,-55,-101,-62,-3,51,99,74,-77,68,-30,-30,124,-127,127,119,11,10,82,331,462484
-93,29,38,-44,-53,-68,-73,-14,9,11,-82,-16,-63,35,78,41,47,63,44,-10,140,21,-12,76,-24,224,58,5,5,64,193,462485
-79,19,20,-32,-34,-44,-110,153,91,78,-28,-78,52,-52,10,8,4,30,-9,-34,120,-8,-43,24,-40,191,5,-38,-40,10,109,462486
-73,24,22,-10,-15,-22,-168,-51,63,226,-89,-128,-144,-96,-57,-38,-19,16,-15,-69,9,-45,-56,18,-107,42,18,-51,-30,-9,144,462487
-50,7,0,-6,-26,-38,-68,-229,136,118,-149,-18,-170,81,-43,2,17,41,22,-32,34,-9,-6,50,-56,63,51,-18,24,31,118,462488
129,33,-30,-3,6,-4,178,2,69,-48,114,3,9,187,7,189,25,28,-51,152,459,151,3,-37,255,640,-38,-46,-31,-14,-192,462489
208,36,-41,-32,18,17,192,-130,-14,-164,-23,4,-74,85,85,228,-46,-51,-156,166,635,152,-67,-162,335,929,-147,-121,-143,-103,-316,462490
355,55,-81,-56,26,22,351,11,-51,-38,115,90,-25,71,94,408,-104,-119,-332,320,1130,273,-126,-339,632,1671,-311,-240,-292,-221,-592,462491
282,49,-73,-92,-17,-13,321,82,-89,63,169,108,-73,56,19,415,-73,-80,-317,306,1126,276,-115,-285,567,1694,-262,-211,-270,-194,-403,462492
-46,17,24,-62,-54,-39,-97,-235,1,-54,44,-92,59,86,25,72,-17,31,-44,-38,239,15,-63,-13,-64,446,-1,-29,-72,-13,137,462493
-38,30,37,-33,-17,-19,-125,-128,79,-11,99,-22,161,-56,-8,5,-45,-1,-44,-84,115,-40,-81,-31,-130,244,-24,-45,-65,-23,56,462494
-46,14,26,-25,-32,-36,-108,-40,29,-17,13,2,89,-67,-26,-28,-49,-18,-56,-94,97,-60,-83,-46,-138,192,-30,-66,-76,-29,74,462495
-30,8,14,-20,-30,-37,-62,-46,-68,27,67,-38,-36,-72,35,-12,-37,-17,-25,-87,85,-42,-72,-22,-118,167,-10,-49,-50,-4,94,462496
-3,5,15,-14,-21,-36,1,88,7,-125,200,30,-42,-68,-39,14,-37,-14,-30,-61,104,-10,-74,-30,-89,189,-11,-53,-56,-9,15,462497
-14,10,28,2,-20,-26,17,-52,-26,-71,32,-29,53,-114,-85,47,9,15,-4,-34,89,14,-33,12,-74,137,21,-3,-9,16,58,462498
59,45,31,3,4,11,97,82,-42,-74,110,90,59,-113,25,140,18,4,-4,77,296,80,12,-17,118,411,-18,8,5,6,-136,462499
323,54,-57,-44,20,27,340,87,-124,-79,308,74,-102,109,24,384,-106,-137,-313,324,1030,255,-101,-320,594,1523,-291,-205,-239,-196,-697,462500
362,60,-77,-56,16,10,356,45,-129,-54,286,-4,-139,157,63,447,-115,-134,-393,372,1249,305,-139,-377,694,1926,-339,-266,-321,-234,-727,462501
237,60,-34,-37,1,-7,194,18,-120,40,278,42,-98,201,30,342,-37,-21,-240,255,955,222,-72,-223,476,1539,-200,-171,-221,-125,-265,462502
-100,9,51,-26,-43,-34,-221,-59,118,-11,84,-146,-97,36,-49,-26,16,68,20,-97,28,-53,-23,44,-142,256,30,-17,-23,42,321,462503
-142,-6,56,-24,-43,-27,-280,-60,130,-9,89,-179,1,-187,-99,-111,18,59,60,-155,-203,-116,-23,83,-248,-86,65,12,39,79,350,462504
-79,-6,32,-20,-31,-14,-178,-247,102,26,100,-100,118,-215,-1,-57,-3,13,7,-100,-101,-81,-50,30,-155,48,32,-16,10,38,146,462505
-72,-9,6,-9,-34,-35,-110,-109,109,112,-143,-123,-24,-150,21,-26,3,7,19,-91,-88,-73,-30,26,-137,46,37,-6,5,41,136,462506
-67,-7,6,-24,-39,-38,-90,-106,56,88,-47,-112,-162,-28,-57,-5,32,30,51,-58,-77,-55,8,49,-104,39,71,29,38,46,218,462507
-24,-6,3,-26,-34,-23,-110,-83,-61,26,407,-130,-248,-74,-137,17,25,26,38,-1,0,1,23,44,-22,128,67,36,46,33,43,462508
97,15,-11,-29,3,19,-20,173,-77,57,-3,8,-83,-41,-47,138,0,-3,-54,133,324,102,-8,-45,219,574,-18,-22,-20,-15,-179,462509
91,18,11,-21,-4,13,-58,58,-33,65,-33,-17,20,58,31,122,-1,-4,-76,85,319,68,-25,-46,178,575,-23,-29,-37,-20,-16,462510
60,8,20,0,-5,-2,-48,-28,-89,8,-85,-11,55,-31,83,101,29,32,-10,57,257,48,4,-2,115,481,11,16,3,14,21,462511
-78,6,48,-8,-34,-25,-85,-131,-28,-104,-183,-36,-3,-84,0,-1,77,89,109,-43,-24,-11,61,110,-73,66,117,103,96,86,227,462512
-64,16,35,-9,-37,-10,-3,-88,-17,-20,-167,-95,-143,-58,41,7,55,54,68,-26,-7,20,31,64,-39,83,70,68,84,60,106,462513
-42,12,17,-10,-25,-18,26,106,-26,12,-104,-52,64,-216,30,44,-6,2,-28,-5,115,35,-35,-33,33,261,-15,-15,3,-7,-76,462514
-82,21,30,15,-9,-7,-29,87,-62,-87,-179,-14,114,-54,-22,8,-15,0,12,-52,33,-12,-52,-10,-69,115,11,-5,0,4,3,462515
-38,24,19,18,-5,-18,28,-24,-82,-34,-22,72,77,-14,14,49,-14,-13,4,-4,136,33,-42,-23,-30,249,-1,-7,-14,2,-32,462516
-67,8,3,-11,-26,-43,-33,-175,37,35,-80,33,79,-2,-22,1,-10,12,17,-42,77,20,-47,-3,-83,187,16,4,-2,19,113,462517
-95,13,33,0,-13,-33,-115,-28,70,177,32,30,83,93,9,-34,50,66,114,-65,-67,6,15,92,-142,-32,111,64,88,99,297,462518
-169,-8,65,-17,-22,-19,-262,-60,54,89,-119,-37,23,127,46,-121,67,88,173,-154,-311,-69,46,150,-278,-388,166,94,131,127,418,462519
-362,-49,100,-18,-51,-40,-525,-488,50,-9,-388,-90,98,69,-47,-339,116,148,349,-350,-910,-233,89,318,-616,-1246,332,198,260,243,633,462520
-322,-56,81,2,-41,-24,-392,-291,82,-8,-221,-138,57,-67,-124,-309,126,157,345,-299,-899,-202,106,298,-565,-1280,316,211,273,241,557,462521
-190,-32,61,46,5,7,-225,-346,-13,108,55,-41,43,-63,-65,-222,101,127,281,-207,-727,-147,108,221,-415,-1066,225,182,233,180,398,462522
41,-16,-10,28,26,31,12,67,-103,76,223,52,-51,82,-58,-45,-9,-39,23,-14,-164,-46,13,-22,-39,-252,-12,4,25,8,-130,462523
46,-32,-27,-14,3,22,-22,45,-8,20,217,-96,41,-154,17,-65,-71,-100,-71,-39,-91,-91,-52,-98,-15,-105,-78,-55,-67,-55,-97,462524
45,-22,0,-8,6,20,-42,46,91,114,63,-122,182,-3,34,-25,-37,-54,-34,-6,-34,-62,-27,-70,36,-20,-19,-19,-38,-10,-112,462525
8,-23,-8,-31,-19,-16,-122,102,52,201,16,3,191,179,-9,-7,-13,-25,-10,10,-31,-58,-1,-40,24,-10,20,-6,-17,9,-23,462526
-2,-18,-11,-47,-27,-16,-188,26,12,-50,70,67,57,188,3,11,17,25,10,31,-30,-32,30,-3,36,-34,28,20,20,37,36,462527
-3,-25,-4,-27,-5,-8,-235,-71,-83,-114,65,-80,9,-13,91,-11,15,8,4,-7,-95,-53,22,-13,6,-121,4,30,22,30,-15,462528
-149,-53,52,-24,-28,-6,-341,-35,10,-81,-115,-147,-9,-233,-29,-164,43,53,132,-173,-515,-172,47,121,-279,-736,122,112,122,98,302,462529
-130,-30,65,26,-9,17,-97,72,148,73,-162,15,52,-143,-12,-150,87,93,186,-134,-547,-120,98,177,-279,-841,191,157,188,143,317,462530
-242,-34,52,54,-31,-10,-108,-198,187,89,-306,-166,97,-288,-51,-269,89,92,252,-240,-822,-198,88,231,-477,-1264,251,190,223,161,463,462531
-236,-18,34,71,-12,-19,-139,-188,62,8,-295,-194,29,-83,-64,-290,60,51,242,-249,-838,-204,80,201,-463,-1315,208,169,195,136,295,462532
113,18,-39,41,39,27,221,180,-196,-25,150,95,-87,42,-44,21,-58,-91,-107,72,74,39,-33,-147,140,-14,-118,-60,-73,-80,-354,462533
101,-13,-53,-12,0,9,206,235,-92,14,238,144,-36,-22,-46,30,-74,-79,-134,47,163,48,-64,-159,137,136,-124,-90,-119,-99,-267,462534
81,-15,-21,-21,14,21,136,161,7,109,50,68,-27,-125,-11,1,-46,-37,-56,-3,97,33,-38,-94,69,43,-60,-41,-84,-61,-158,462535
54,-7,18,-7,41,54,20,-7,115,-229,-131,-95,127,-22,-36,-28,-14,-7,-9,-37,4,21,-18,-57,21,-88,-23,-12,-43,-21,-41,462536
20,-9,32,13,34,52,-45,85,4,-172,-231,-81,214,-17,-20,-54,-13,-12,-3,-59,-67,12,-16,-36,-13,-192,-8,6,-4,-2,54,462537
34,0,14,39,33,48,-11,150,-10,154,-94,-19,123,-207,-76,-40,-16,-29,-26,-44,-17,36,-19,-44,21,-112,-25,-22,-12,-7,-4,462538
-274,-48,85,61,-22,-11,-308,21,72,16,-223,-244,132,-315,-118,-355,69,78,226,-352,-846,-187,61,223,-547,-1292,232,135,176,151,660,462539
-528,-71,143,91,-41,-31,-560,-307,209,231,-207,-238,121,-159,-34,-649,168,181,522,-593,-1697,-406,166,500,-1042,-2573,489,330,434,358,1095,462540
-397,-50,93,95,-12,-12,-408,-155,184,136,-66,-92,21,65,2,-495,189,160,499,-395,-1407,-295,203,445,-741,-2258,437,329,444,350,754,462541
-279,-52,30,68,-16,-22,-262,-206,195,-69,-220,20,8,-61,31,-349,143,102,386,-242,-1069,-204,176,332,-461,-1805,335,280,366,272,480,462542
-10,-24,-36,56,19,5,76,-27,7,9,-208,154,62,112,56,-75,28,-15,92,14,-345,-30,67,36,7,-769,74,95,129,71,-95,462543
79,-19,-54,42,25,14,146,153,-109,90,-145,133,-67,-5,15,-8,-41,-60,-68,48,-97,-13,-7,-109,94,-381,-51,-18,-14,-54,-215,462544
75,-11,-42,45,25,21,133,-74,-92,39,-197,78,26,-43,-10,-34,-59,-67,-78,16,-103,-39,-26,-104,52,-356,-56,-31,-30,-70,-181,462545
95,16,-26,63,36,35,220,-67,-58,23,12,121,-17,-74,57,17,-45,-65,-84,54,-34,-1,-12,-92,79,-242,-50,-28,-37,-47,-260,462546
84,2,-29,21,21,15,265,95,-8,-43,67,95,76,-91,67,43,-40,-64,-118,69,22,3,-15,-129,82,-142,-79,-57,-71,-59,-270,462547
52,-6,-27,1,10,8,205,277,-49,-91,288,22,259,-80,91,31,-16,-48,-70,57,5,-6,13,-111,57,-157,-70,-34,-60,-46,-160,462548
-54,-19,-17,3,-14,-10,48,95,-117,-140,113,-31,-88,-173,-6,-56,1,-24,-9,-20,-188,-57,26,-36,-75,-423,1,8,-22,-10,37,462549
-35,1,-31,9,-10,-20,20,49,-78,-51,-15,32,-86,-113,-44,-30,3,-12,-17,11,-149,-33,3,-46,-36,-373,-16,-15,-14,-6,-38,462550
-1,9,-21,10,1,-12,14,-2,-72,-178,-46,-28,-25,90,6,-17,6,-10,-19,30,-86,-6,7,-37,1,-304,-16,-10,-7,4,-43,462551
-34,0,2,30,15,6,-47,117,29,-115,-139,-78,15,105,1,-80,30,20,41,-37,-204,-27,50,20,-71,-506,40,31,45,28,149,462552
-49,-19,-23,14,-12,-19,-25,62,-3,-1,-85,-27,-18,-10,58,-62,58,36,69,-20,-168,3,81,32,-37,-480,56,45,59,38,141,462553
1,-17,-26,12,-6,-6,-11,25,-5,22,-51,58,91,36,52,-21,69,63,71,10,-114,50,89,40,-3,-433,63,57,70,57,114,462554
91,-6,-23,19,28,15,16,-9,10,-32,6,27,11,102,-2,4,9,20,-4,27,-19,71,25,-36,47,-274,0,-3,9,2,-45,462555
58,-16,-23,18,19,6,28,-168,-1,1,-161,115,60,179,-2,10,5,-4,-32,31,28,71,5,-57,75,-219,-13,-19,-16,-14,-90,462556
34,-12,-18,0,5,8,47,-73,90,128,-87,45,17,59,-4,8,19,15,-18,40,66,65,37,-35,102,-170,-9,-11,-7,-1,-81,462557
37,-1,-1,8,14,24,62,177,35,-60,-95,45,37,111,69,14,21,28,12,37,70,67,48,-16,103,-154,5,24,17,26,3,462558
-112,-23,25,19,-1,-9,-100,-48,-66,-119,-303,-84,60,-66,-14,-147,-6,21,60,-138,-320,-77,-1,46,-169,-672,57,42,28,45,215,462559
-123,-16,27,28,6,-6,-91,-27,-76,142,-42,-105,191,-97,-27,-176,-6,-10,81,-155,-396,-105,-16,60,-204,-791,59,47,44,45,254,462560
-102,-7,33,29,3,10,-93,52,49,189,22,57,223,-103,16,-167,27,8,130,-122,-407,-96,27,93,-183,-824,107,94,96,81,266,462561
-73,-7,18,23,-3,13,-74,131,110,146,75,22,176,-7,38,-127,11,2,103,-89,-349,-65,32,66,-127,-742,95,81,99,69,58,462562
21,-10,-30,15,5,4,43,-168,-72,-96,219,6,13,37,21,-21,-11,-26,-14,21,-87,10,14,-41,38,-355,-3,-2,14,-9,-128,462563
93,-4,-39,28,32,17,112,-42,-77,-207,-57,63,20,138,51,35,-23,-37,-83,64,73,36,-17,-105,107,-97,-61,-51,-52,-69,-238,462564
108,10,-17,27,44,35,120,189,-8,-14,215,89,90,38,-49,30,-23,-29,-71,68,105,18,-17,-98,110,-35,-46,-43,-58,-66,-164,462565
46,-2,5,6,29,22,94,-87,-77,-22,149,-41,-10,-119,-1,-4,-5,-25,-19,39,-4,-10,5,-46,53,-175,-3,10,-9,-27,-85,462566
47,-12,1,-5,32,33,142,11,-31,-276,138,60,-24,-49,32,9,12,-15,-8,56,25,14,18,-23,71,-138,-3,18,2,-15,-54,462567
26,-10,22,-6,36,45,101,25,-113,-116,60,95,24,59,7,-17,-7,-7,-10,4,-31,-36,-10,-20,7,-213,-3,-3,-13,-9,109,462568
37,7,5,16,23,22,92,213,-135,-64,66,106,-59,214,-12,-11,-21,-29,-40,2,-19,-36,-17,-59,10,-178,-26,-21,-32,-35,-32,462569
46,7,-31,1,16,-11,82,149,-138,50,128,28,-16,134,-53,23,-27,-34,-60,49,88,18,-14,-101,70,-49,-73,-47,-56,-63,-145,462570
58,14,-11,-2,18,-1,37,37,-11,20,132,77,-34,47,64,24,-19,-16,-57,60,87,23,-5,-86,66,-55,-66,-45,-49,-54,-154,462571
3,-6,-7,-18,5,3,-51,-153,-31,-59,104,58,80,-48,44,-33,-20,-7,-33,-13,-49,-28,-21,-66,-30,-238,-40,-38,-44,-37,-90,462572
-12,-11,1,-39,17,9,-76,-120,60,-102,-262,119,38,11,-23,-23,27,30,39,-13,-87,-4,26,6,-34,-341,27,1,15,11,7,462573
-43,-32,9,-47,-2,-5,-131,-48,-23,-106,-188,-26,-134,-35,10,-35,51,48,89,-19,-145,21,63,66,-62,-465,70,46,70,64,108,462574
-14,-35,-12,-38,-10,-12,-125,-28,-45,42,-61,-95,-131,-50,38,-16,30,20,37,8,-66,47,48,22,8,-376,16,29,45,40,27,462575
-3,-22,-8,3,9,7,-145,-126,86,134,-12,-114,-65,-217,-70,-61,-9,-11,15,-49,-100,-9,15,-8,-32,-453,-16,28,12,-11,-8,462576
-14,-11,22,18,12,14,-73,50,-18,123,-133,-47,48,-69,-36,-61,15,15,54,-51,-141,-7,31,35,-58,-529,23,51,45,19,-3,462577
-7,-3,9,16,3,7,32,22,35,48,2,-27,-102,241,97,-29,23,23,56,-6,-77,26,30,38,-19,-441,36,49,41,44,-19,462578
-72,-22,3,1,-8,-4,-37,-105,58,-59,-30,-30,-23,160,10,-99,-13,-3,34,-82,-203,-51,-24,25,-127,-580,22,31,3,23,169,462579
-438,-60,111,47,-36,-22,-527,-138,180,-139,-313,-194,16,-257,-66,-509,69,122,360,-489,-1294,-380,59,368,-838,-2141,320,249,256,208,831,462580
-481,-81,112,48,-31,-32,-603,-139,265,131,-368,-110,98,-157,-73,-564,113,151,483,-516,-1555,-405,129,458,-910,-2578,411,316,373,294,860,462581
-368,-72,46,32,-34,-40,-406,-115,204,96,-416,6,87,-41,-45,-395,124,132,422,-320,-1242,-258,150,380,-624,-2175,363,289,380,281,593,462582
27,-13,-68,30,14,-22,128,79,44,96,49,195,89,171,103,49,50,23,120,131,-135,80,96,59,152,-594,59,114,148,73,-210,462583
91,7,-56,23,30,-4,212,196,-132,38,205,116,55,172,121,137,30,2,11,180,137,124,79,-22,264,-155,-21,54,34,-14,-184,462584
15,-5,-7,17,32,18,74,56,-242,-159,-74,-36,-95,72,18,10,9,-9,-9,47,-114,7,38,-5,49,-452,-4,29,22,-23,-38,462585
35,1,9,16,41,57,67,38,-51,-57,-59,-23,-6,19,1,-29,-22,-27,-42,12,-145,-33,5,-42,14,-455,-42,-17,-17,-53,-53,462586
42,-10,10,17,37,49,56,51,-101,154,100,-142,88,22,6,-64,-47,-50,-38,-32,-180,-79,-3,-54,-43,-476,-60,-34,-46,-67,-57,462587
13,-14,14,10,22,20,61,14,-19,114,-153,68,35,259,0,-57,-7,-6,2,-28,-223,-73,24,-11,-85,-528,-9,4,-9,-29,48,462588
-118,-26,9,13,-10,-22,-69,-309,81,95,-128,-15,16,203,-14,-134,33,48,112,-118,-495,-115,36,115,-262,-919,107,89,91,70,270,462589
-328,-58,45,9,-30,-47,-357,-172,56,40,-247,-111,-81,-5,-59,-323,112,131,321,-287,-1023,-240,106,317,-580,-1737,287,226,255,213,599,462590
-393,-66,67,3,-37,-45,-473,-293,131,142,-286,-87,-128,79,-42,-430,118,147,379,-369,-1289,-290,150,378,-723,-2178,323,255,321,242,675,462591
-273,-57,59,32,-2,1,-355,-170,149,-39,97,14,-107,128,21,-346,88,87,303,-269,-1088,-204,121,293,-557,-1975,241,203,272,201,488,462592
-17,-35,-6,50,34,28,-80,99,27,47,271,89,47,121,52,-105,20,0,87,-21,-416,-21,61,59,-104,-1087,29,70,104,54,-37,462593
56,-17,-27,58,42,24,13,36,-43,-31,262,59,11,198,58,-13,12,-16,19,50,-136,56,58,-2,43,-745,-24,31,44,-13,-115,462594
29,-17,-40,32,26,21,30,-22,63,-32,62,61,-72,139,77,-6,16,-9,-14,49,-79,74,50,-11,43,-703,-7,17,45,-24,-115,462595
