21,-3,-69,13,17,2,153,122,-23,-57,-81,133,-174,206,-25,7,17,-12,-22,54,-10,88,49,-23,183,-712,-21,11,6,-13,-87,426772
-148,-17,-3,23,3,6,-98,-75,14,-52,-102,-94,93,155,-10,-173,82,82,144,-112,-520,-63,113,174,-150,-1402,155,139,139,118,328,426773
-218,-53,-1,25,-12,4,-238,-403,-49,-180,-135,-136,-65,185,24,-281,93,75,228,-191,-793,-144,133,226,-302,-1767,208,167,187,154,350,426774
-170,-64,11,25,-2,17,-202,-288,-18,-132,-122,-40,12,106,59,-272,55,27,168,-144,-742,-140,112,155,-245,-1680,138,120,147,100,239,426775
46,-32,-29,30,32,50,64,-61,-26,81,247,132,-130,72,85,-58,-15,-45,-19,99,-197,33,35,-28,141,-895,-32,11,25,-7,-197,426776
174,-5,-67,10,48,61,224,-11,-143,6,259,278,4,153,71,74,-48,-94,-113,241,176,130,9,-137,375,-316,-135,-55,-66,-79,-407,426777
176,2,-83,-5,35,48,224,36,-199,40,108,206,-76,140,30,87,-65,-106,-109,247,240,116,-2,-169,370,-156,-151,-76,-101,-119,-363,426778
143,2,-89,0,23,24,190,-7,-173,117,31,162,-95,185,64,87,-44,-73,-106,257,240,91,14,-137,337,-152,-122,-63,-97,-107,-277,426779
-62,1,-6,-38,-23,-36,-128,-158,-43,64,-278,-40,-170,159,-42,-11,48,65,61,-16,-43,17,45,70,-49,-103,70,36,46,55,214,431632
-59,16,14,-27,-12,-32,-139,-77,83,0,-227,54,-95,96,38,11,66,68,77,22,-13,48,82,77,-12,-70,67,55,63,65,154,431633
-38,3,22,-25,-6,-16,-177,-146,-42,-107,-191,151,-28,122,10,25,53,59,76,36,14,54,82,60,-2,-48,49,51,63,54,128,431634
-9,0,24,-23,7,0,-123,-5,-33,-11,57,145,41,-95,48,41,75,80,110,67,54,84,81,89,35,-13,70,85,88,81,139,431635
11,-3,28,-5,15,27,8,14,-72,20,150,68,-72,-106,69,19,31,24,67,50,61,59,38,41,37,25,19,51,36,29,2,431636
-22,-10,5,5,4,16,16,-92,87,-109,-53,-18,17,-89,-20,-53,-21,-31,8,-29,-45,-21,-36,-11,-52,-85,-39,-17,-30,-23,-43,431637
-40,-15,-2,-8,-8,-17,-23,-172,93,39,60,-67,276,-92,46,-55,-17,-20,-1,-41,-90,-39,-28,-12,-72,-130,-21,-14,-17,-12,-59,431638
-3,-3,4,8,-4,-25,8,-148,162,-1,59,-35,299,-95,128,-18,-14,-15,-42,2,-10,-7,-15,-36,-9,-25,-50,-28,-25,-19,-34,431639
-4,5,19,24,4,-3,13,-94,220,160,-114,-65,58,-122,62,-44,-23,-14,-27,-30,-62,-27,-26,-25,-38,-99,-38,-28,-17,-21,41,431640
-15,7,37,38,9,6,23,-184,21,244,126,-34,103,-229,-29,-75,-20,-8,5,-57,-131,-50,-30,13,-73,-204,0,0,6,6,57,431641
-9,13,0,40,-12,-25,108,61,-24,191,72,-40,-21,-169,8,-31,-6,-3,-9,-16,-45,-14,-22,5,-9,-103,-5,-5,-6,6,-48,431642
27,27,-26,43,-5,-28,173,189,-7,178,248,-50,-148,-141,2,51,15,13,-17,57,100,44,2,-7,95,100,-23,6,-3,20,-58,431643
14,9,-8,36,6,-17,63,25,-83,52,77,-37,60,68,-12,35,11,11,-4,24,76,26,6,-1,64,69,-23,19,-4,9,26,431644
-7,-13,-6,12,1,5,-42,-88,27,-225,-36,-18,146,79,-97,-7,9,6,30,-27,-15,-18,4,18,-24,-87,-3,23,-1,12,91,431645
-3,-8,17,-13,3,32,-58,-49,151,-96,-91,-7,66,152,-24,-29,19,11,52,-49,-69,-38,12,29,-77,-157,14,18,-1,24,43,431646
24,4,33,-2,13,39,-20,46,-27,63,55,0,120,97,61,1,40,29,60,-16,-47,-10,16,38,-26,-128,26,34,20,46,3,431647
-65,-22,26,-11,-16,-12,-95,-32,-118,-41,-127,-84,66,-70,-45,-50,53,63,121,-69,-205,-47,44,104,-132,-360,95,77,77,87,217,431648
-147,-29,30,4,-30,-27,-203,-17,7,29,-200,-151,92,-46,-18,-148,71,79,182,-162,-464,-107,64,173,-289,-723,161,121,123,135,325,431649
-110,-35,14,-4,-19,-18,-179,13,85,-26,-116,-86,-90,71,-18,-147,63,60,148,-122,-430,-98,64,135,-246,-690,138,103,105,104,287,431650
-52,-25,3,12,-4,-6,-110,47,-25,17,-87,-37,-99,-132,-99,-107,47,37,131,-80,-320,-54,69,93,-160,-550,96,84,84,75,186,431651
14,11,6,48,16,14,22,-9,-50,89,131,-45,4,-57,-55,-35,40,20,79,3,-135,7,54,37,-37,-291,47,53,52,41,5,431652
31,21,7,44,22,28,94,-6,-6,32,-44,32,-106,-124,57,-2,18,4,30,50,-18,45,61,-6,42,-104,1,24,14,3,4,431653
-17,-7,8,25,5,20,64,-37,-34,-33,-109,80,-145,-100,31,-24,32,31,43,24,-85,24,53,32,-10,-207,31,40,42,20,111,431654
-53,-11,-3,16,-17,-16,74,-93,-79,128,35,64,-36,39,57,-26,33,35,46,24,-84,26,40,41,0,-215,43,37,40,27,116,431655
-63,-3,-11,-5,-30,-28,68,-80,-81,198,306,58,-165,176,67,-33,-4,-13,-5,23,-39,13,3,-17,16,-134,4,-8,1,-16,90,431656
-68,-2,-9,-22,-24,-19,-11,-139,11,132,194,43,-228,131,118,-35,-3,-6,9,16,-56,7,7,-3,-6,-154,13,12,1,0,47,431657
20,-1,-26,-26,10,15,7,61,-43,-54,193,-13,-26,134,54,14,-11,-20,-40,59,75,43,7,-44,79,24,-33,-22,-43,-24,-19,431658
99,-6,-28,-14,31,29,11,57,-163,-254,-56,-140,-76,-62,-6,48,-7,-29,-81,67,150,47,-15,-77,111,137,-57,-48,-62,-48,-5,431659
89,-1,-43,-22,11,0,41,40,-50,-137,-142,-127,-111,-55,1,71,-16,-27,-88,82,217,70,-21,-82,153,243,-82,-42,-68,-53,-87,431660
50,14,-16,2,10,5,12,53,57,-57,-62,1,-24,-77,25,51,-18,-13,-52,61,166,51,-7,-44,121,176,-35,-13,-39,-24,-7,431661
-15,10,10,6,-7,-14,-88,92,67,42,-60,12,-57,-14,23,-24,18,26,37,-2,-31,5,11,48,-8,-120,47,38,13,38,122,431662
18,10,-6,-9,-8,-12,-3,0,11,115,18,-31,-126,159,12,53,39,33,35,68,94,64,33,36,94,25,33,56,28,45,67,431663
42,3,-4,-17,13,21,52,-100,16,-9,213,-17,-57,132,-47,61,6,0,-15,63,143,74,5,-10,120,99,-13,28,-12,2,21,431664
71,13,6,1,27,35,77,80,-9,-67,154,51,-46,13,-51,60,-23,-30,-56,46,162,54,-31,-46,110,117,-43,-13,-46,-29,-56,431665
83,18,-1,-4,29,30,88,138,-5,33,-184,28,17,-39,-41,56,-34,-54,-86,46,220,41,-45,-92,121,197,-80,-60,-99,-62,-131,431666
100,5,-17,-14,23,30,73,209,-51,179,-49,-40,105,58,10,63,-56,-72,-115,53,260,36,-69,-125,141,274,-107,-85,-133,-79,-135,431667
-61,-37,1,-34,-29,-13,-122,31,82,74,-137,-132,118,88,0,-59,0,21,31,-80,-105,-62,-19,32,-109,-242,47,21,-13,27,133,431668
-24,-13,11,-17,-20,-1,-116,-77,56,62,-188,-108,37,-79,-19,-1,34,41,67,-11,-45,-2,18,55,-26,-160,69,63,34,63,94,431669
13,-1,23,-19,1,20,-150,-118,78,70,-90,-148,-79,-52,-12,10,12,9,-1,11,16,15,-7,2,24,-60,15,23,-4,18,42,431670
-11,-11,19,-30,-3,9,-226,-158,74,-43,17,-23,-19,98,-19,0,27,19,26,3,-21,10,23,27,4,-99,25,32,11,14,64,431671
-27,-10,17,-23,-8,2,-206,-129,62,132,197,104,215,158,63,17,41,27,54,14,-23,30,54,58,-7,-86,52,56,36,46,83,431672
-7,-2,-1,-5,2,-9,-95,156,50,141,13,-2,58,81,86,38,28,19,28,53,79,57,35,22,48,70,21,37,15,27,34,431673
-30,-4,-11,-4,-2,-19,-18,48,69,89,-185,-70,-1,-40,166,18,30,26,13,35,35,37,14,33,20,20,39,33,17,30,27,431674
20,13,4,13,15,5,147,149,18,-62,-5,79,43,98,68,11,5,3,-38,25,48,23,-24,-11,23,69,-4,-17,-14,-8,23,431675
-3,18,2,26,15,2,95,120,63,-74,-44,-111,142,125,-6,-48,-51,-53,-53,-44,-47,-52,-56,-54,-63,-29,-30,-66,-46,-48,36,431676
-12,8,2,12,14,12,30,76,23,-68,166,-178,43,47,-30,-69,-56,-60,-26,-62,-79,-61,-53,-40,-93,-65,-21,-50,-45,-33,82,431677
-8,8,4,11,12,21,68,43,-90,-49,101,-59,-43,60,-38,-35,2,2,6,-34,-57,-15,-19,10,-43,-56,23,-4,1,7,67,431678
-93,10,25,-7,-4,4,18,156,-48,-26,24,-5,-98,40,-81,-75,41,51,72,-71,-221,-44,18,92,-124,-304,105,58,74,66,170,431679
-92,-5,18,-43,-13,-2,3,-88,22,78,249,9,-274,-14,4,-48,63,66,112,-32,-188,-14,53,108,-84,-276,107,81,88,77,171,431680
-61,-20,4,-53,-13,4,-73,-68,45,-15,-61,-40,-189,5,37,-40,43,39,93,-22,-144,-18,39,71,-61,-243,72,62,61,55,159,431681
17,-12,6,-37,22,38,-140,-9,43,-66,-123,-5,-66,-50,-24,-47,-34,-50,-3,-18,-42,-27,-21,-38,-5,-114,-32,-3,-23,-32,11,431682
51,-7,-5,-23,18,26,-88,-100,49,5,-95,82,-77,67,10,-15,-48,-61,-29,21,51,6,-39,-71,62,5,-63,-7,-37,-53,-161,431683
61,8,9,-17,18,21,70,136,-28,71,68,11,9,324,56,63,-2,-3,-27,89,171,69,-4,-37,140,115,-28,5,-18,-19,-95,431684
-5,5,16,-16,2,8,80,-154,45,125,-58,-78,79,79,126,24,29,26,9,44,59,34,33,6,52,-64,11,21,9,14,21,431685
32,20,4,24,12,15,131,-89,117,-122,167,-10,42,25,35,11,-28,-38,-45,38,85,19,-10,-53,51,-20,-55,-25,-50,-33,-122,431686
60,30,-3,56,39,25,98,26,8,-231,-100,-3,63,-248,-1,-5,-60,-76,-75,14,77,-5,-59,-87,39,-31,-89,-58,-90,-66,-105,431687
91,23,-12,61,35,27,113,96,15,-42,66,5,54,-91,20,12,-54,-67,-91,32,133,18,-60,-106,76,78,-90,-53,-92,-79,-133,431688
45,9,5,64,15,13,135,-95,-35,153,106,68,230,7,52,7,2,-11,-22,20,55,12,-20,-30,20,-12,-18,-6,-30,-21,72,431689
17,14,18,62,5,13,143,-62,2,297,-58,30,76,-151,44,6,26,23,50,9,-3,8,29,23,6,-74,29,28,12,20,154,431690
7,6,13,41,8,10,120,90,-19,124,248,10,44,-303,-21,-35,7,4,37,-17,-64,-34,20,9,-35,-128,10,9,-2,2,69,431691
-6,-2,13,30,9,16,70,139,0,99,277,68,15,-204,-8,-64,-7,4,2,-62,-135,-58,0,5,-71,-216,7,6,-7,10,60,431692
19,-9,-22,11,-3,-7,76,60,-47,56,82,-53,6,-157,-29,-2,10,12,-9,-6,-19,-2,9,2,20,-57,-3,14,3,3,36,431693
0,-7,-12,19,5,0,8,-1,-71,-75,77,21,65,-41,-11,-22,32,28,33,-16,-73,-9,26,41,-9,-128,39,49,40,35,55,431694
17,3,-1,22,8,19,-24,134,17,-64,-4,97,-48,43,-9,-16,-30,-22,-50,-16,-8,-13,-44,-32,26,0,-16,-7,-22,-24,-78,431695
11,1,-3,-2,-3,6,-50,170,77,-25,-42,45,12,32,-43,-14,-24,-22,-66,-26,0,-16,-60,-31,35,19,-16,-14,-26,-11,-72,431696
42,18,11,19,12,16,2,158,95,90,68,88,-26,-112,-57,26,20,21,-42,7,41,29,-21,4,61,39,29,15,22,24,9,431697
65,17,-9,12,3,-11,74,176,119,-23,-119,80,-85,53,-35,47,-28,-37,-96,34,141,47,-61,-65,112,198,-38,-43,-36,-19,-73,431698
101,22,-35,5,-2,-10,154,206,-58,-8,-47,38,-164,121,35,98,-55,-72,-141,87,320,76,-69,-143,214,475,-112,-94,-120,-89,-205,431699
106,12,-25,14,2,6,126,325,-111,-59,-53,48,-76,7,36,115,-24,-35,-105,107,345,81,-20,-122,212,493,-82,-63,-103,-71,-222,431700
85,13,-3,10,13,21,61,216,-55,-141,-66,12,-27,6,1,71,-18,-24,-68,72,248,62,-2,-81,133,358,-58,-41,-81,-57,-128,431701
-2,-7,19,-10,-9,18,1,-126,51,-189,-81,-34,201,45,-53,9,0,0,-3,15,57,4,2,-13,2,92,-9,-9,-28,-5,-38,431702
-13,-9,-9,-14,-22,-22,27,-102,122,-131,123,35,111,-8,-3,22,5,5,-4,33,80,10,-1,-19,22,92,-6,-10,-23,-1,-20,431703
12,0,-29,-15,-17,-31,56,90,42,-128,125,58,-85,-69,-50,27,-27,-32,-68,41,125,11,-53,-68,50,156,-51,-55,-65,-45,-139,431704
5,5,-16,-8,-13,-24,23,91,82,-22,139,135,-40,-47,41,14,-17,-10,-56,33,63,5,-49,-35,11,77,-16,-26,-29,-22,-76,431705
-3,-3,-15,-7,-13,-18,10,63,122,-106,230,107,52,-27,51,41,21,24,10,63,92,38,2,2,47,90,25,31,15,7,24,431706
36,14,-20,-6,0,-5,76,-39,66,-53,138,92,-102,-29,29,105,26,22,-2,128,233,104,30,-21,143,273,0,13,6,2,-3,431707
74,19,-6,-1,14,23,90,28,57,45,8,74,-109,-67,24,101,4,-11,-49,118,274,92,-6,-68,162,362,-54,-22,-44,-43,-96,431708
90,29,-1,7,24,42,144,41,39,90,77,140,-67,5,-23,109,-28,-49,-90,109,344,90,-32,-114,196,485,-103,-68,-86,-79,-193,431709
77,40,-7,5,14,12,180,106,-8,5,245,151,149,74,44,120,-14,-26,-73,100,343,93,-19,-90,189,493,-76,-54,-63,-55,-170,431710
55,34,-5,-5,5,-7,171,-90,13,-71,123,-23,145,-75,56,91,-15,-17,-49,74,279,64,-36,-59,134,409,-53,-27,-45,-29,-140,431711
-4,1,15,-3,-9,-7,88,-123,68,-90,-161,-42,56,-103,2,-5,-34,-14,-35,-33,66,-30,-67,-30,0,146,-24,-28,-39,-12,-64,431712
9,-14,6,-14,-11,7,95,-113,7,-21,140,-64,112,-271,-91,-13,-45,-34,-89,-46,56,-52,-91,-69,-4,130,-47,-74,-76,-48,-39,431713
14,4,28,3,10,26,46,41,64,93,45,-200,67,-286,-86,-43,-37,-21,-45,-76,-21,-71,-62,-44,-55,28,-18,-44,-56,-35,41,431714
9,-7,5,-4,1,7,-30,-73,38,-15,-21,-144,-80,-100,-43,-42,-42,-46,-46,-89,-28,-75,-49,-62,-48,29,-37,-43,-53,-39,-34,431715
-3,-9,-15,-13,-8,-18,-93,-74,55,-167,17,-12,34,44,-26,-3,0,-7,-8,-57,-2,-36,-17,-8,-16,32,-4,10,-6,10,6,431716
-6,1,18,-11,-10,-6,-115,143,-48,-35,-127,97,70,321,34,25,33,35,51,-18,-5,-8,27,39,10,11,51,57,44,51,57,431717
47,5,-10,-8,0,-3,-20,14,-143,40,-33,114,8,236,-46,81,11,10,3,46,162,48,17,-27,117,240,-12,16,-7,5,-92,431718
128,4,-41,-13,8,22,77,-18,-139,61,-20,13,10,155,-13,133,-35,-50,-103,103,385,95,-40,-130,233,559,-103,-67,-98,-74,-316,431719
170,16,-38,-25,12,23,116,178,-183,-11,30,97,43,252,32,165,-64,-71,-172,139,514,118,-75,-175,290,768,-147,-112,-133,-115,-373,431720
102,22,-38,-29,-4,-6,83,197,-49,-36,8,92,-40,136,101,137,-23,-38,-126,111,417,98,-48,-120,208,641,-93,-79,-89,-85,-174,431721
-74,-11,0,-25,-28,-28,-84,54,51,-50,15,-70,-28,14,49,6,36,48,32,-38,-5,-12,13,45,-73,69,57,36,40,26,212,431722
-89,-17,20,-14,-28,-18,-118,-86,17,15,-132,-86,26,-91,25,-31,27,41,45,-55,-101,-33,-6,64,-115,-77,72,29,46,36,201,431723
-5,15,9,-2,-14,2,-19,33,30,8,52,-47,19,-221,-26,11,-11,-9,-25,21,73,8,-41,-12,1,131,-5,-36,-17,-11,1,431724
12,19,14,-1,6,7,-10,133,-5,66,-36,-17,24,-132,11,35,-16,-12,-47,36,114,13,-51,-28,38,199,-17,-41,-33,-17,-83,431725
-2,-4,-7,-35,-4,-1,-33,84,-47,-66,-19,-133,-143,-38,4,38,-43,-33,-89,39,157,15,-76,-63,67,254,-55,-57,-53,-54,-26,431726
49,5,-16,-41,-3,-2,47,113,9,-175,-11,53,-6,187,11,87,-34,-20,-96,90,290,78,-45,-84,148,452,-72,-60,-60,-65,-79,431727
41,20,-10,-30,5,4,48,-41,-38,-86,78,67,3,90,-27,65,-35,-28,-99,62,246,46,-42,-74,115,429,-63,-73,-64,-62,-90,431728
102,17,-36,-34,10,-8,138,170,-19,-78,33,24,-52,83,-14,128,-92,-86,-182,116,448,75,-83,-177,227,713,-155,-139,-144,-129,-280,431729
86,22,-51,-18,-16,-42,189,-52,2,-1,40,92,35,14,47,162,-73,-58,-151,116,495,102,-73,-156,237,790,-133,-119,-131,-102,-308,431730
74,37,-38,-8,-10,-33,208,-69,35,-87,124,97,88,88,128,152,-48,-42,-131,99,469,88,-66,-129,215,768,-110,-92,-117,-79,-306,431731
-12,44,4,6,0,-26,89,111,11,-172,-9,21,-55,133,48,58,11,21,-10,9,185,12,-5,-3,53,377,-5,-12,-25,-8,59,431732
20,32,20,-9,6,6,44,4,-56,63,-133,-57,-2,240,-72,52,9,16,-23,-5,139,-10,-12,-4,41,304,-4,-20,-25,-3,47,431733
20,20,16,-9,0,3,-30,-85,-34,111,-31,10,86,-133,-56,-7,-19,-7,-14,-64,41,-49,-26,-3,-44,177,-10,-30,-40,-13,25,431734
-18,10,18,1,-8,4,-116,-56,28,-38,102,-108,100,-197,14,-23,-2,24,57,-67,-37,-49,14,38,-90,60,38,19,7,32,95,431735
-9,-3,22,-19,-6,14,-128,-173,95,6,-92,-13,98,-163,26,14,32,55,85,-32,-10,-15,45,68,-46,81,62,65,41,58,99,431736
-26,-25,16,-25,-16,-7,-153,-249,6,-30,-186,-14,126,-199,-7,-9,42,49,83,-54,-71,-40,38,78,-69,-15,65,57,54,59,115,431737
23,-3,11,-1,-2,-8,-57,-121,64,171,-156,-24,96,-232,75,39,-1,10,10,7,72,-1,0,12,15,197,3,1,4,11,-127,431738
52,27,-6,17,4,0,35,-79,72,149,186,192,112,-63,34,90,-28,0,-31,56,218,52,-14,-31,109,410,-29,-16,-30,-13,-143,431739
82,22,-29,8,7,-6,62,-73,-56,102,189,122,163,-43,-25,97,-74,-66,-130,56,314,46,-76,-113,134,552,-107,-100,-98,-85,-199,431740
82,1,-27,-15,2,-10,28,-21,-83,124,146,7,1,-6,-52,69,-68,-59,-155,31,278,13,-94,-119,86,513,-118,-118,-130,-94,-134,431741
11,2,-12,-26,-15,-16,-6,-39,18,115,-61,36,-5,108,-20,36,-20,1,-83,-10,132,-2,-40,-40,-11,303,-23,-56,-48,-28,-21,431742
-29,11,-13,-4,-11,-28,-13,-56,-58,7,-57,45,118,-5,33,-4,-11,15,-15,-22,39,-17,-13,17,-62,166,14,-22,-8,16,15,431743
-12,14,-26,-8,-18,-41,14,-47,-46,29,-277,82,46,-47,52,11,-33,-14,-38,1,97,-10,-28,-27,-19,260,-35,-52,-42,-28,-62,431744
2,13,-21,-14,-12,-42,19,64,-41,41,-28,-3,-134,84,21,52,-10,-4,-6,35,143,22,-7,-21,24,329,-16,-27,-17,-16,2,431745
-17,4,-13,-32,-21,-44,-18,-12,-104,37,139,-4,-124,164,18,57,20,39,11,51,128,40,8,22,19,306,27,4,13,18,112,431746
-22,7,-5,-36,-25,-28,-8,13,-106,-206,39,7,-282,219,12,74,32,60,15,69,129,48,21,47,34,303,41,29,32,38,70,431747
39,13,0,-31,10,22,15,73,-124,-236,-138,-135,-179,-35,-40,76,-23,-15,-45,73,195,36,-19,-30,72,411,-49,-35,-41,-36,-52,431748
128,13,-15,-47,22,30,108,159,-165,-164,-40,-15,-190,-33,-45,105,-98,-96,-164,102,381,66,-80,-157,177,683,-167,-124,-145,-125,-299,431749
151,14,-30,-51,10,15,196,259,-185,-135,-4,33,-125,5,-19,143,-120,-99,-239,114,512,85,-122,-203,228,892,-196,-170,-193,-149,-350,431750
88,33,-13,-19,1,-3,189,46,2,-37,-172,-3,-66,57,35,129,-67,-39,-169,74,425,72,-92,-121,163,768,-107,-109,-130,-87,-181,431751
-71,18,15,4,-19,-20,-14,-168,46,-85,-266,-60,-25,-89,-19,-46,-13,16,-14,-94,-17,-56,-44,24,-129,145,22,-16,-22,-8,135,431752
-58,15,15,12,-20,-17,-38,59,-66,-278,-76,-7,60,-73,-69,-45,-4,17,21,-92,-60,-56,-19,23,-142,85,35,0,0,12,44,431753
-75,2,15,11,-27,-27,-35,178,-19,-150,65,-49,-61,49,-132,-33,5,0,38,-79,-41,-50,3,21,-124,98,24,4,1,10,57,431754
-69,-5,13,-16,-34,-22,-99,-182,-47,23,-14,-99,-55,-115,-40,-22,2,1,47,-65,-46,-56,10,37,-110,79,27,18,-1,17,87,431755
-14,8,40,-7,-1,5,-84,-182,-2,267,35,-24,15,-91,59,22,20,36,47,-25,2,-17,33,44,-50,134,30,29,9,30,54,431756
-36,-13,31,-30,-18,-3,-84,-230,-73,237,-287,-67,74,68,22,20,25,41,42,-31,4,-26,41,44,-45,133,29,28,5,35,4,431757
62,18,11,-16,20,26,17,-19,-2,241,-130,-49,105,41,10,108,45,43,36,85,208,71,75,19,118,405,6,27,13,23,-103,431758
395,63,-82,-20,55,27,405,-59,-92,55,242,115,67,18,57,438,-45,-74,-266,419,1122,349,-12,-279,707,1692,-276,-157,-209,-165,-675,431759
479,84,-119,-35,47,10,527,214,-140,-18,379,181,-68,48,70,544,-129,-144,-454,495,1505,413,-124,-430,886,2279,-413,-272,-356,-274,-855,431760
412,98,-97,-35,38,7,494,241,-73,-3,317,139,-19,-6,81,512,-137,-132,-464,433,1473,362,-149,-421,779,2305,-387,-283,-376,-271,-744,431761
27,43,16,-25,-21,-32,26,-10,-22,-34,37,-75,-52,-68,-13,143,-8,42,-111,49,460,70,-41,-44,83,939,-33,-57,-108,-37,138,431762
-98,8,53,-43,-20,-18,-172,-56,-91,-57,-263,-88,36,-25,-51,-12,52,93,78,-79,-33,-54,14,114,-184,255,108,44,41,79,262,431763
-21,4,45,-37,9,24,-167,-296,-160,-150,-144,-82,72,-192,-56,-24,-23,7,-3,-68,0,-76,-43,2,-153,327,16,-27,-30,1,45,431764
-18,-29,42,-46,-1,17,-187,-118,-32,-93,-154,-63,141,-123,-190,-45,-50,-22,-44,-84,-50,-96,-73,-30,-174,290,-15,-54,-57,-31,50,431765
-62,-27,42,-48,-30,-17,-183,-15,-30,30,-191,-44,25,-159,-70,-39,1,22,23,-81,-100,-80,-17,37,-168,192,45,-7,10,24,107,431766
-82,-24,18,-45,-53,-52,-118,55,-10,114,150,-156,-34,47,-39,-18,9,27,39,-49,-56,-55,2,47,-108,235,48,18,35,30,12,431767
313,63,-90,-40,19,-16,427,222,-90,46,378,197,-120,310,66,413,-58,-85,-262,402,1046,310,-48,-272,651,1737,-247,-161,-183,-142,-788,431768
1177,200,-314,-103,127,66,1467,855,-429,-140,864,541,-488,472,236,1299,-321,-404,-1080,1265,3545,1012,-301,-1109,2197,5303,-1017,-689,-839,-681,-2405,431769
1378,253,-325,-159,141,91,1588,923,-459,-316,753,388,-296,380,179,1506,-419,-483,-1406,1381,4341,1122,-433,-1370,2492,6567,-1245,-909,-1138,-908,-2536,431770
1063,193,-217,-204,68,73,1115,431,-489,-212,237,77,-132,228,34,1221,-397,-400,-1262,1006,3725,842,-449,-1171,1919,5844,-1063,-835,-1065,-824,-1766,431771
97,45,57,-195,-64,-8,-120,-100,-65,-156,-348,-458,119,-312,-200,245,-153,-53,-426,7,1159,47,-247,-301,161,2345,-249,-322,-448,-291,177,431772
-286,-8,153,-114,-82,-56,-512,-302,-11,-88,-372,-294,34,-147,-81,-111,45,137,127,-292,-70,-193,-31,189,-469,582,188,30,14,96,694,431773
-288,-2,123,-79,-90,-85,-397,-361,95,-132,-360,-176,51,-108,-39,-52,119,199,208,-208,-126,-115,45,256,-375,444,258,114,137,189,633,431774
-298,-12,80,-64,-95,-111,-353,-289,175,65,-245,-244,69,-150,-48,-77,123,181,224,-211,-241,-125,53,266,-396,246,259,139,168,202,557,431775
-216,-8,71,-22,-43,-64,-299,-43,42,155,-220,-203,-117,-124,-90,-103,58,101,161,-196,-222,-128,15,171,-357,249,177,74,113,127,362,431776
-187,-5,66,-10,-26,-46,-305,-121,0,-96,-47,-245,-139,-224,-94,-116,12,54,144,-205,-243,-138,-15,136,-357,225,129,47,92,87,290,431777
-28,23,46,-3,-6,-18,-99,-121,50,-218,218,-101,-92,-80,2,69,32,36,69,-1,156,15,12,36,-43,770,43,28,51,43,20,431778
316,66,-32,-56,32,18,237,157,47,-117,243,170,-36,188,51,412,-94,-118,-301,336,1153,277,-103,-339,574,2191,-300,-234,-249,-200,-669,431779
454,89,-62,-111,42,47,270,136,-34,-36,211,234,-40,236,23,590,-130,-142,-447,489,1660,410,-148,-469,850,2930,-430,-327,-381,-293,-884,431780
493,79,-81,-152,25,16,255,-39,-119,-27,190,228,-46,208,17,674,-131,-126,-483,545,1898,468,-152,-498,971,3320,-439,-337,-420,-320,-951,431781
26,14,62,-132,-35,-38,-291,-142,22,-54,-14,20,-21,-262,-64,168,-15,53,-99,-3,560,35,-66,-50,48,1501,-11,-80,-107,-46,130,431782
-195,4,123,-65,-53,-41,-309,-306,72,-44,-30,-160,-40,-142,-64,-88,46,108,149,-232,-197,-158,-2,183,-372,451,179,84,102,120,442,431783
-146,-3,83,-33,-49,-37,-133,-429,81,92,-145,-186,7,42,-37,-51,25,66,107,-170,-110,-112,9,112,-278,546,112,52,77,89,289,431784
-162,15,66,-5,-46,-39,-155,-308,80,24,-181,-140,79,4,-90,-93,21,49,88,-192,-164,-142,-10,103,-290,442,97,35,57,72,287,431785
-167,15,55,8,-42,-50,-156,-164,-5,38,-259,-50,36,-134,-73,-97,8,34,91,-198,-231,-150,-11,110,-316,340,89,36,65,77,216,431786
-103,1,33,-30,-39,-40,-132,-115,-36,47,-194,-68,-99,-143,-91,-14,-24,1,50,-122,-51,-97,-33,32,-195,570,39,1,14,38,-1,431787
-7,15,1,-54,-16,-35,-49,-230,69,-64,-15,-39,44,170,-21,101,-33,-13,-4,4,240,13,-15,-47,3,963,-21,-47,-44,-10,-175,431788
414,84,-101,-39,53,17,432,288,-161,-128,229,85,96,173,54,498,-113,-150,-351,405,1334,337,-90,-404,714,2504,-363,-261,-296,-233,-912,431789
482,100,-80,-29,67,54,506,243,-125,-192,169,27,-50,-54,40,540,-143,-166,-470,431,1560,360,-140,-486,786,2866,-439,-331,-401,-316,-813,431790
358,87,-33,-11,39,31,380,205,16,-49,204,24,-19,-178,-102,416,-123,-109,-392,294,1243,253,-146,-364,526,2498,-328,-282,-337,-259,-467,431791
26,49,61,16,-15,-27,-1,-44,165,66,222,-66,40,-216,-71,72,-38,23,-70,-58,309,-32,-68,-33,-88,1229,-8,-62,-84,-53,157,431792
-123,23,80,31,-34,-49,-155,-77,199,204,101,-97,35,-104,14,-83,-7,59,95,-185,-145,-133,-18,114,-320,590,112,35,49,61,238,431793
-114,4,85,19,-21,-24,-181,-208,148,90,17,-115,81,79,16,-111,-31,22,58,-193,-207,-148,-38,70,-322,493,68,-1,31,43,198,431794
-104,5,83,24,-4,-9,-140,81,275,29,-134,47,78,-31,-40,-91,-9,30,64,-160,-199,-119,-4,82,-270,488,67,16,60,49,191,431795
-142,-14,81,6,-26,-27,-128,98,90,-11,-8,-8,69,-188,-145,-116,5,30,103,-163,-268,-125,8,96,-308,385,90,30,80,52,246,431796
-138,-7,77,6,-20,-26,-85,30,107,-14,-260,-107,130,-188,-84,-137,-13,9,67,-191,-290,-142,-24,71,-336,342,71,11,65,30,275,431797
-110,1,58,20,-12,-17,-18,-68,248,-209,56,-79,9,-237,-29,-104,-42,-24,38,-160,-197,-130,-42,34,-269,442,33,-15,32,10,152,431798
-93,9,23,18,-21,-44,86,-12,189,-39,245,-57,0,-157,-43,-36,-20,-5,56,-94,-79,-77,-7,39,-174,577,25,8,36,17,95,431799
-78,31,28,55,-8,-43,183,-122,102,-151,-36,-66,7,-103,-63,2,39,48,110,-54,-63,-25,43,85,-129,580,75,66,78,70,110,431800
-109,21,51,49,-6,-16,123,-25,93,-146,-51,-103,-47,66,-3,-72,4,34,110,-132,-212,-92,18,87,-222,372,79,52,78,61,149,431801
-16,13,38,17,20,25,78,-76,-28,-105,-245,-104,148,33,-39,-46,-37,-21,33,-102,-83,-87,-27,-10,-140,543,-15,-24,-2,-19,-18,431802
-12,-3,46,6,22,32,-56,73,-6,-106,-234,-191,167,-52,-108,-53,-40,-23,16,-127,-104,-98,-13,-12,-152,510,-19,-28,-7,-33,17,431803
-13,-19,41,-20,17,28,-100,95,-19,-123,-157,-155,91,-10,-7,-56,-44,-36,-10,-132,-96,-96,-14,-23,-149,527,-27,-33,-16,-35,19,431804
-54,-23,64,-13,1,15,-112,-111,-38,13,-211,-127,73,-127,-8,-98,-26,-12,56,-167,-206,-125,11,34,-217,346,27,14,31,6,58,431805
13,8,62,40,28,20,-14,-148,53,107,127,-10,104,-106,29,-15,15,19,87,-87,-92,-48,47,50,-117,489,49,39,54,41,-12,431806
21,3,31,43,17,-3,10,-40,142,231,185,34,185,-132,7,-19,-7,-14,19,-91,-55,-55,12,0,-101,547,4,5,11,1,-37,431807
-130,-24,53,35,-25,-34,-148,38,169,146,28,49,175,-69,-9,-159,33,51,106,-233,-412,-166,32,117,-348,38,118,79,103,78,336,431808
-187,-6,93,52,-10,-17,-228,-61,246,166,-39,19,168,126,20,-179,132,152,269,-224,-631,-160,126,280,-426,-316,268,207,257,214,481,431809
-100,-8,50,31,5,-3,-146,40,20,77,65,41,-42,153,2,-102,69,73,184,-113,-396,-92,87,165,-246,7,147,138,180,121,263,431810
-112,-21,41,12,6,-9,-205,73,-12,48,91,-61,-72,6,-36,-120,59,67,175,-128,-419,-107,86,152,-267,-45,145,120,160,95,315,431811
-95,-33,40,-5,-6,-14,-220,-33,-49,101,99,-96,55,-105,-13,-100,60,60,161,-99,-391,-89,81,149,-244,-24,138,117,163,99,239,431812
-62,-25,26,-5,-4,-19,-135,-124,15,5,0,-25,-67,-232,-31,-69,13,7,70,-67,-255,-77,23,71,-160,164,56,58,95,41,96,431813
-79,-27,19,-4,-8,-13,-125,-133,11,44,-115,-51,89,143,-120,-73,8,11,54,-70,-251,-83,24,58,-155,169,48,54,80,38,129,431814
-70,-19,12,-1,4,-8,-60,-8,-25,-40,-208,-39,60,86,-90,-65,-5,-8,33,-56,-202,-73,20,30,-122,243,22,26,57,3,65,431815
-79,-2,28,18,4,-12,-28,-27,-22,-38,-39,-46,152,54,-41,-68,-7,5,58,-69,-232,-78,33,48,-145,189,49,39,74,26,120,431816
-79,-5,33,29,4,-14,-38,185,110,62,70,-47,115,61,-24,-84,-7,7,66,-81,-272,-93,28,53,-166,116,56,40,70,28,92,431817
-169,-40,34,12,-28,-27,-168,42,80,12,-155,-17,158,129,-129,-186,14,21,106,-198,-537,-184,27,114,-351,-272,116,74,117,60,303,431818
-248,-44,77,36,-21,-23,-255,-36,68,-49,-148,-81,-46,-106,-53,-288,78,87,260,-287,-864,-242,98,270,-539,-763,247,186,233,164,569,431819
-340,-63,102,50,-29,-32,-317,-132,181,-20,-159,-187,-54,-136,-1,-397,124,139,380,-377,-1176,-313,158,376,-709,-1241,346,271,329,240,716,431820
-356,-54,124,82,-18,-5,-318,-198,42,-108,-278,-105,13,7,-47,-415,141,154,429,-392,-1303,-325,184,417,-736,-1470,385,304,392,279,709,431821
-99,-15,32,87,21,4,0,-112,-48,60,-12,19,13,167,15,-129,70,43,207,-83,-553,-77,125,182,-201,-449,146,166,212,132,125,431822
61,20,-9,73,31,9,108,-143,12,65,190,129,-20,124,40,44,34,13,48,74,-45,56,91,20,97,263,24,60,81,33,-111,431823
11,9,-10,52,12,-10,55,-13,25,16,129,170,-70,146,78,53,64,44,76,60,-16,63,107,54,76,298,73,85,85,67,10,431824
-49,13,13,54,17,-22,18,34,23,-19,191,272,-185,49,84,35,102,98,161,24,-115,61,144,149,0,150,141,152,150,128,117,431825
-18,15,20,47,30,5,-11,34,-50,63,146,75,-2,92,16,6,70,68,117,-1,-126,39,118,106,-16,138,93,110,121,99,86,431826
34,15,32,57,54,30,10,-53,17,34,-17,0,124,3,41,-15,33,28,57,-18,-110,23,84,47,-20,173,42,56,75,46,5,431827
-96,-20,61,49,7,6,-91,-61,18,-12,-95,49,9,-208,37,-137,41,58,113,-141,-421,-88,73,126,-241,-241,122,104,125,83,265,431828
-513,-76,156,58,-57,-38,-553,-369,185,63,-263,-196,252,-264,-8,-522,182,227,504,-526,-1531,-406,195,529,-938,-1842,497,357,432,344,1049,431829
-563,-87,147,65,-51,-36,-625,-315,202,85,-375,-126,250,-42,-108,-591,210,225,622,-545,-1782,-433,238,602,-1003,-2259,555,424,515,411,1043,431830
-436,-83,95,61,-30,-21,-546,-243,168,25,-277,-39,81,-54,-43,-503,169,155,524,-420,-1560,-347,218,491,-800,-1996,443,363,455,335,702,431831
-86,-51,-10,35,14,10,-168,47,-25,48,-73,156,-9,-32,54,-160,65,18,198,-64,-640,-76,132,154,-191,-753,138,150,211,124,-22,431832
54,-18,-33,11,27,24,31,-5,81,47,177,222,-14,38,50,2,23,-17,42,81,-163,32,81,0,69,-86,13,47,75,14,-95,431833
-5,-15,-19,5,20,12,-3,52,-45,66,26,115,-14,50,67,-45,4,-18,43,19,-239,-21,65,14,-15,-170,23,46,57,6,-73,431834
8,-8,-9,35,25,23,27,30,-89,-36,-11,72,113,141,41,-63,-8,-38,27,3,-216,-34,44,-17,-21,-142,-6,13,31,-17,-119,431835
-23,-11,-31,32,8,7,58,26,-71,-147,-117,39,111,189,67,-46,6,-21,44,14,-193,-22,55,13,-7,-104,20,44,45,9,-35,431836
-19,10,-18,40,21,27,72,-11,114,-192,219,112,-72,31,51,-21,34,10,68,36,-190,-3,85,49,10,-104,64,75,74,41,78,431837
-111,-30,10,19,3,3,-90,-15,-53,-13,97,30,15,113,33,-175,6,22,95,-121,-520,-133,36,105,-229,-560,110,83,99,65,275,431838
-350,-82,67,35,-30,-18,-374,49,22,67,-153,-121,144,97,-16,-453,49,77,290,-396,-1230,-349,59,304,-680,-1578,289,196,256,182,573,431839
-420,-89,89,61,-38,-15,-426,-18,164,121,-345,-135,194,-69,-30,-562,79,96,381,-490,-1573,-433,107,388,-860,-2071,360,253,341,236,732,431840
-472,-91,92,92,-46,-29,-443,-40,168,213,-332,-187,78,-257,-57,-608,106,117,443,-524,-1751,-462,132,446,-932,-2375,407,290,395,276,816,431841
-81,-16,-8,95,19,12,37,70,46,245,139,90,37,83,98,-182,31,-7,140,-63,-640,-85,70,103,-161,-899,91,102,160,90,7,431842
149,13,-42,67,51,43,201,295,-57,40,360,204,29,116,80,54,-15,-63,-63,145,39,110,18,-89,222,33,-76,-17,0,-40,-304,431843
150,23,-35,62,48,46,200,426,48,45,293,163,-10,94,2,110,20,-13,-36,161,145,142,44,-48,246,195,-46,18,5,-16,-168,431844
82,13,-50,40,21,31,178,124,77,14,236,48,-82,225,30,76,37,9,25,119,88,125,77,6,184,141,3,52,30,21,-69,431845
73,3,-49,13,12,26,136,19,82,-64,227,90,-20,36,-3,33,4,-13,1,80,56,81,53,-27,122,133,-18,6,5,-11,-72,431846
114,17,-21,34,52,48,125,107,18,28,121,121,262,-114,24,47,18,-7,-26,98,95,84,50,-39,137,197,-37,-9,-17,-13,-72,431847
-257,-50,64,36,-24,-1,-343,11,146,102,-198,-177,147,-395,-74,-328,78,92,208,-309,-861,-232,87,240,-520,-1127,225,144,161,131,629,431848
-920,-156,239,78,-104,-56,-1149,-650,449,173,-669,-426,248,-622,-173,-1013,260,332,827,-970,-2796,-775,260,890,-1699,-3904,823,552,663,546,1843,431849
-977,-192,251,112,-87,-49,-1210,-648,364,225,-553,-282,252,-342,-145,-1128,276,327,972,-1009,-3219,-837,300,976,-1808,-4596,888,651,797,637,1748,431850
-739,-153,165,125,-39,-27,-855,-227,290,103,-377,-94,147,147,-6,-892,264,252,858,-721,-2682,-617,327,801,-1339,-3968,729,585,733,553,1267,431851
-120,-52,-15,108,52,36,-34,-84,85,0,156,245,17,351,136,-221,139,62,360,-33,-992,-73,220,268,-169,-1684,230,282,368,248,13,431852
200,4,-89,67,83,90,287,230,-86,-93,14,234,-15,165,132,76,11,-59,-2,242,-37,148,80,-68,357,-334,-81,55,51,-13,-441,431853
149,-4,-63,48,69,84,184,308,-10,24,16,203,109,-63,82,-9,-35,-83,-12,131,-124,54,23,-66,204,-408,-72,19,7,-53,-321,431854
125,3,-37,50,61,80,149,152,-111,75,13,234,35,144,62,1,2,-36,17,132,-103,49,61,-26,175,-382,-16,35,27,-24,-160,431855
107,2,-50,33,36,51,149,44,-21,32,33,101,119,196,67,61,79,27,32,170,-37,92,141,14,214,-288,14,63,51,16,-96,431856
89,1,-62,28,27,35,135,-125,-32,67,144,183,186,130,59,51,72,24,9,157,-29,84,114,0,191,-277,13,50,27,9,-102,431857
-50,-15,-30,19,6,8,-23,12,-84,106,13,50,18,55,36,-108,32,22,64,-16,-361,-57,47,70,-65,-711,67,72,57,40,176,431858
-319,-60,48,33,-26,-5,-342,-172,-86,40,-434,-169,89,71,-12,-382,118,132,335,-295,-1153,-282,120,348,-565,-1839,327,258,280,222,663,431859
-349,-66,55,58,-17,8,-332,-27,47,122,-181,-128,138,9,-12,-430,142,148,402,-324,-1321,-309,159,405,-625,-2119,375,301,345,272,694,431860
-366,-79,46,59,-13,-2,-319,-20,158,30,-84,-169,245,-136,-18,-464,142,129,427,-343,-1420,-324,176,403,-668,-2292,374,302,352,276,644,431861
-4,-29,-60,66,38,38,140,208,14,-68,102,128,-111,130,59,-115,35,-25,129,39,-441,-17,98,65,-1,-956,53,112,115,62,-173,431862
162,5,-94,37,49,55,267,280,55,89,45,321,-146,136,117,70,-35,-101,-81,186,139,115,17,-132,315,-125,-130,-30,-63,-87,-424,431863
200,19,-72,31,69,82,219,321,-81,8,104,151,-6,1,80,92,-69,-108,-160,184,259,115,-33,-174,341,87,-168,-82,-121,-124,-380,431864
164,10,-52,27,65,76,146,125,-200,-34,41,-5,97,-62,44,48,-60,-84,-144,127,156,79,-26,-136,247,-14,-119,-75,-95,-96,-200,431865
153,5,-57,16,41,65,194,69,-96,-133,-82,-83,160,-34,-28,50,-50,-85,-151,130,209,79,-27,-146,267,69,-130,-80,-116,-115,-201,431866
150,23,-45,24,39,55,219,90,-118,-24,-13,73,-74,58,4,68,-27,-59,-132,153,249,107,-14,-109,291,136,-109,-62,-94,-92,-253,431867
-101,-21,29,25,1,31,-105,-88,-72,62,-421,-143,31,-167,-44,-165,32,43,70,-104,-392,-98,19,114,-151,-757,97,75,66,47,356,431868
-524,-88,119,55,-58,-20,-596,-432,85,44,-380,-256,34,-192,-75,-566,162,212,492,-497,-1567,-419,143,527,-884,-2435,478,347,399,325,1117,431869
-560,-104,91,63,-74,-51,-612,-472,194,102,-395,-211,158,-18,-107,-601,182,216,572,-492,-1765,-434,189,577,-939,-2769,523,396,482,379,1017,431870
-401,-75,43,69,-39,-24,-395,-141,62,67,-145,19,170,49,48,-432,156,146,460,-300,-1380,-296,188,434,-621,-2304,395,324,401,311,641,431871
-108,-33,-56,59,9,13,-11,76,-17,81,-22,157,-20,257,110,-125,99,46,201,9,-567,-36,141,171,-67,-1223,139,171,207,145,102,431872
106,-6,-79,32,42,47,197,271,-85,-59,71,102,2,285,97,55,12,-40,-31,180,1,96,53,-56,243,-418,-67,5,4,-22,-251,431873
102,-10,-60,13,34,49,111,106,-64,-204,-41,78,-126,47,77,19,16,-34,-28,130,-40,57,51,-41,176,-465,-51,11,-1,-26,-153,431874
153,-10,-60,-10,35,45,157,-92,-126,-78,171,-24,-100,68,66,84,15,-30,-36,178,107,110,31,-49,259,-268,-55,7,-14,-30,-220,431875
145,-1,-71,-7,24,33,169,-115,-8,-30,115,99,-225,332,56,99,14,-21,-43,176,149,110,5,-38,267,-204,-40,4,-20,-21,-215,431876
110,-4,-58,-4,18,29,125,12,-34,102,150,141,-103,263,50,67,-3,-30,-57,150,123,82,-8,-49,228,-217,-52,-15,-34,-35,-159,431877
46,6,-36,19,26,35,27,1,-169,172,-106,39,-100,99,33,11,52,20,-15,92,-21,46,55,16,127,-418,10,19,8,5,-32,431878
-120,-29,6,11,-10,9,-182,46,-58,-97,-110,-24,-74,-61,3,-152,96,78,97,-78,-458,-87,80,147,-164,-1022,141,89,106,92,316,431879
-170,-42,20,6,-15,3,-250,-125,-54,-160,85,-5,-43,75,32,-214,56,39,110,-133,-602,-152,39,143,-251,-1201,137,73,106,86,297,431880
-123,-36,6,3,5,3,-248,-68,-72,-58,82,27,-19,57,16,-180,38,12,108,-77,-493,-106,38,111,-160,-1052,99,67,86,68,153,431881
17,-24,-50,-21,17,7,-135,204,-28,-212,184,21,-205,97,22,-34,-7,-52,-19,66,-76,16,24,-31,107,-477,-36,-10,-15,-20,-156,431882
99,-19,-84,-56,8,-1,-67,172,-120,-91,120,114,-134,287,20,81,4,-49,-83,169,209,112,27,-78,285,-57,-93,-26,-57,-52,-237,431883
124,-2,-82,-73,-5,-11,-10,232,-75,105,44,187,-100,309,43,182,80,36,-32,248,348,208,93,-17,390,151,-35,36,9,9,-174,431884
153,1,-61,-58,13,19,-29,238,20,85,20,126,-93,103,134,155,46,14,-91,206,334,164,39,-62,340,162,-70,-15,-31,-28,-200,431885
101,-11,-23,-32,27,48,-71,201,119,128,-93,113,32,-84,50,12,-61,-85,-172,60,148,31,-86,-133,173,-36,-133,-102,-122,-111,-154,431886
40,-21,-26,-2,18,44,-52,141,-25,24,-106,42,-205,-229,-62,-77,-84,-96,-123,-22,-26,-52,-114,-95,41,-257,-105,-98,-97,-97,-7,431887
72,16,-29,58,31,44,84,71,-106,60,91,24,-101,-37,-43,-25,-34,-45,-34,30,22,-2,-40,-33,76,-217,-51,-48,-45,-39,9,431888
-220,-40,41,59,-28,-5,-227,-196,1,67,-164,-61,-51,-75,-22,-297,49,59,210,-244,-736,-216,42,213,-422,-1283,189,111,135,116,534,431889
-311,-53,66,68,-24,-9,-333,-355,210,190,-7,-22,-63,-170,87,-395,110,121,347,-331,-1097,-291,98,352,-592,-1840,319,214,271,234,672,431890
-210,-45,42,65,2,17,-158,-136,78,142,86,28,-47,-61,26,-330,58,62,270,-234,-924,-233,69,254,-428,-1622,218,162,208,182,378,431891
7,-4,-38,63,28,29,193,225,-25,44,-15,97,-70,179,-82,-87,15,-15,95,13,-297,-23,37,38,14,-771,20,55,57,44,-162,431892
137,26,-74,66,34,23,358,277,-80,107,68,16,-67,201,-60,88,-4,-38,-68,170,177,117,19,-90,292,-129,-95,-27,-49,-54,-388,431893
68,21,-55,56,28,5,247,234,-82,154,186,15,-120,18,4,52,36,5,-22,126,82,93,42,-20,195,-268,-34,6,-6,-8,-147,431894
42,17,-21,38,28,30,155,24,-74,51,231,52,-115,28,2,10,42,16,3,77,-31,57,32,29,107,-422,3,23,16,23,-34,431895
88,1,-33,19,34,45,142,-83,47,-120,-92,72,-223,-125,20,-15,-39,-61,-95,58,23,20,-57,-71,107,-335,-94,-64,-70,-54,-175,431896
112,11,-24,11,37,48,171,82,-100,-26,71,-22,-243,31,-3,11,-33,-56,-101,76,98,52,-49,-87,141,-228,-107,-70,-79,-67,-184,431897
87,20,-18,16,38,50,171,1,28,56,55,1,-173,41,59,30,-4,-20,-49,92,117,70,-5,-58,150,-188,-69,-51,-64,-40,-131,431898
4,16,7,26,22,45,20,-127,141,162,-23,-7,-44,36,7,-50,28,17,28,-1,-122,-5,32,29,-13,-512,19,-1,0,18,46,431899
-12,8,6,21,18,43,-55,32,37,132,-160,-95,27,-79,-22,-72,42,25,48,-33,-233,-32,27,71,-71,-670,59,27,32,41,115,431900
-4,-7,-19,26,14,19,-27,-80,95,177,-76,49,104,39,-36,-75,44,23,47,-29,-225,-23,21,73,-52,-659,55,40,47,52,54,431901
72,-4,-55,29,9,14,159,-75,28,140,58,52,118,-65,-49,-10,-6,-46,-40,53,14,40,-25,-44,110,-315,-58,-34,-20,-29,-176,431902
99,-1,-58,28,9,21,315,-88,-68,174,27,46,-79,-70,-32,31,-55,-92,-143,95,178,68,-72,-135,191,-68,-140,-106,-117,-109,-280,431903
125,19,-47,40,22,20,375,-102,-15,134,263,55,-175,-105,24,39,-62,-81,-177,114,234,68,-74,-158,208,43,-165,-140,-142,-135,-304,431904
118,22,-54,30,12,14,334,-96,-127,-25,169,16,-6,-57,-24,62,-44,-61,-157,118,248,70,-60,-136,224,81,-139,-121,-116,-113,-306,431905
127,20,-63,9,5,-2,291,136,-40,-27,20,-36,-135,75,42,97,-42,-58,-160,138,315,107,-72,-140,262,201,-135,-91,-120,-112,-317,431906
129,19,-57,-21,1,-2,242,209,-42,52,7,-51,57,202,115,129,-34,-55,-139,164,378,135,-48,-129,293,284,-119,-81,-115,-91,-271,431907
3,0,-19,-47,-19,-10,-17,76,38,101,-16,22,32,313,32,27,11,1,-19,41,77,37,-2,-12,66,-138,-2,-10,-22,-14,41,431908
-434,-78,86,-32,-65,-50,-653,-341,205,-13,-457,-155,27,-15,-165,-439,122,151,348,-425,-1181,-331,103,378,-741,-1882,350,229,271,227,883,431909
-543,-114,93,-6,-72,-62,-774,-280,161,5,-318,-275,-57,-160,-68,-550,180,205,507,-500,-1586,-391,169,532,-914,-2519,476,336,417,346,1015,431910
-389,-89,74,16,-40,-30,-538,-303,18,43,-113,-86,-95,-128,-41,-384,192,195,463,-300,-1253,-233,197,459,-621,-2161,411,332,407,338,714,431911
-48,-32,21,37,20,29,-39,-67,-104,44,102,26,-175,113,92,-64,110,74,200,40,-399,47,145,172,-33,-1011,148,169,205,171,29,431912
156,4,-71,34,39,29,324,-64,-64,133,141,84,-59,228,66,107,-36,-100,-134,193,244,166,-4,-156,305,-78,-144,-66,-67,-72,-473,431913
135,16,-79,27,20,11,287,70,-79,52,38,46,-85,131,67,83,-55,-101,-197,139,264,126,-48,-171,249,-42,-156,-111,-123,-110,-317,431914
85,12,-63,8,19,-1,177,149,-103,-80,114,-4,-197,-167,43,49,-43,-56,-140,85,143,80,-46,-107,155,-192,-99,-67,-96,-74,-181,431915
70,11,-27,17,32,10,105,200,-89,84,242,17,55,-266,50,8,-61,-46,-119,43,73,49,-57,-97,90,-287,-87,-61,-89,-70,-172,431916
44,9,-28,15,11,-6,98,137,-189,-30,226,30,51,-12,49,18,-17,-10,-54,45,54,57,-14,-45,93,-317,-42,-23,-54,-29,-109,431917
8,4,-36,11,-11,-15,95,-312,14,-93,-2,99,-35,8,-5,45,29,26,-3,76,65,79,35,10,108,-320,10,22,0,18,-68,431918
-173,-18,44,28,-6,4,-205,-442,160,-25,-237,42,-97,-231,-19,-164,99,113,185,-129,-509,-72,112,216,-254,-1126,203,163,170,153,494,431919
-233,-41,79,40,10,24,-340,-366,125,-55,-133,-122,11,-179,-14,-258,126,134,279,-201,-778,-130,144,304,-377,-1535,270,217,252,213,516,431920
-138,-28,39,40,18,32,-177,-88,-81,-118,-172,-37,21,97,37,-154,111,100,213,-83,-543,-35,129,223,-201,-1227,198,181,207,164,242,431921
26,11,-14,45,27,39,109,-85,-92,-58,-26,45,-14,133,34,1,55,36,53,81,-123,83,66,70,86,-627,59,76,94,77,-15,431922
92,28,-35,45,40,27,300,-31,103,111,129,10,-221,115,88,59,-18,-16,-73,129,100,101,10,-61,197,-256,-52,-41,-34,-20,-161,431923
90,19,-49,31,23,3,333,68,49,82,136,58,-133,42,42,40,-64,-76,-126,100,151,75,-28,-136,188,-147,-118,-102,-116,-104,-281,431924
70,20,-38,30,18,-11,259,252,107,-89,25,90,-63,-8,64,40,-32,-46,-92,93,128,77,-3,-98,172,-177,-93,-67,-90,-91,-220,431925
124,34,-44,33,30,2,230,129,12,118,31,80,-112,151,71,99,-18,-35,-110,160,261,132,4,-108,259,7,-92,-63,-86,-72,-310,431926
143,13,-55,-15,6,5,238,3,-12,32,215,177,-97,137,42,110,-80,-91,-211,163,382,132,-62,-190,310,190,-166,-135,-157,-136,-343,431927
109,8,-34,-42,8,12,161,74,-106,3,239,122,15,109,43,96,-56,-70,-192,139,331,124,-49,-163,258,153,-154,-119,-144,-119,-194,431928
135,20,-57,-33,15,-4,207,250,-146,-117,285,152,152,44,31,159,-22,-49,-161,191,447,174,-15,-155,336,309,-147,-92,-128,-95,-293,431929
208,44,-80,-23,22,11,341,285,-71,-27,98,135,-137,0,103,254,-33,-68,-208,268,690,253,-18,-218,477,664,-201,-132,-181,-130,-491,431930
222,44,-64,-38,18,22,305,22,-44,42,-60,-13,-198,145,71,240,-55,-71,-239,234,693,226,-56,-226,435,696,-207,-151,-201,-149,-408,431931
98,24,-11,-36,16,11,31,132,-68,58,-434,-35,85,72,52,63,-50,-32,-137,39,279,70,-53,-102,126,128,-94,-105,-130,-88,-93,431932
17,2,-2,-39,1,-10,-67,-110,0,12,194,123,-89,11,30,31,-2,7,-53,3,107,55,-11,-26,49,-117,-7,-40,-45,-13,61,431933
37,6,-9,-29,8,-4,-27,-139,18,-19,203,68,-273,30,59,68,11,16,-41,46,178,93,3,-29,104,-40,-14,-31,-45,-11,-15,431934
56,19,-6,-14,12,3,25,232,65,24,42,38,-51,153,58,58,-19,-17,-72,58,211,85,-10,-67,105,15,-59,-60,-82,-46,-135,431935
42,10,-4,-9,12,3,21,201,-84,-244,94,-46,93,2,14,24,-46,-38,-89,31,171,61,-43,-84,62,-8,-69,-71,-91,-60,-150,431936
39,-4,-5,-17,5,9,7,165,13,-4,-70,-140,-21,37,-2,9,-68,-61,-93,4,154,41,-58,-98,42,-2,-104,-88,-103,-73,-171,431937
97,3,-12,-21,12,12,72,46,12,-28,59,-83,75,53,-22,71,-63,-69,-98,80,289,97,-41,-115,137,171,-124,-87,-115,-77,-336,431938
328,43,-80,-35,42,18,362,194,-88,-77,302,45,61,158,19,312,-134,-154,-300,321,961,285,-103,-340,559,1136,-330,-232,-297,-219,-741,431939
356,64,-74,-44,35,11,375,71,-47,69,170,201,5,96,-25,371,-116,-136,-326,351,1105,329,-96,-356,629,1377,-336,-240,-316,-229,-707,431940
383,57,-72,-65,32,18,406,245,-74,90,16,183,-199,-57,-20,411,-129,-143,-402,372,1243,340,-129,-395,697,1611,-376,-279,-357,-273,-702,431941
131,29,22,-39,10,19,90,48,4,76,-133,-59,79,-176,41,165,-57,-29,-184,99,565,118,-70,-151,225,692,-138,-134,-188,-120,-133,431942
-26,12,58,-2,1,11,-78,203,-55,-49,-203,-216,234,-328,27,-29,-2,27,-14,-55,23,-16,-28,23,-83,-65,35,-17,-25,16,127,431943
0,7,18,-1,-5,-10,-5,101,-36,-110,46,-196,51,114,-43,-18,-42,-24,-84,-32,55,-6,-87,-40,-42,-27,-34,-71,-66,-27,2,431944
-67,-3,9,-15,-33,-33,-37,26,26,163,41,-118,-27,151,-22,-30,9,17,-16,-42,-47,0,-33,20,-97,-195,8,-25,-11,9,143,431945
-61,18,12,-22,-20,-33,-30,-66,-74,109,13,36,-66,117,20,15,60,80,47,23,-23,41,34,82,-54,-185,68,36,56,53,178,431946
-70,13,-6,-32,-23,-37,-60,-113,1,-69,-11,-59,-101,163,36,-6,17,47,31,-1,-38,17,-2,55,-57,-202,37,20,27,28,72,431947
197,36,-86,-42,15,-21,236,-49,24,-56,347,96,-158,286,73,223,-73,-90,-197,239,617,207,-89,-207,389,732,-201,-139,-165,-134,-580,431948
684,111,-193,-70,78,36,807,296,-189,-108,527,274,-90,363,119,687,-246,-307,-698,673,1981,567,-258,-707,1214,2680,-654,-472,-560,-465,-1482,431949
689,132,-140,-76,88,66,779,510,-250,-236,434,183,-11,140,75,687,-269,-302,-772,616,2107,544,-310,-747,1169,2944,-673,-520,-638,-518,-1269,431950
489,85,-114,-87,21,4,530,373,-155,-113,228,-48,-12,-6,-8,539,-213,-210,-640,438,1723,411,-268,-588,857,2498,-524,-441,-549,-422,-913,431951
92,42,5,-75,-37,-28,13,-235,35,-151,178,-203,-2,-181,-63,189,-90,-35,-286,81,743,121,-147,-210,198,1156,-170,-209,-270,-173,-54,431952
-96,10,70,-59,-47,-33,-249,-370,27,-57,-96,-166,217,-119,-5,-3,-7,40,-1,-91,138,-9,-54,34,-123,307,45,-20,-57,8,279,431953
-120,-1,66,-37,-39,-30,-216,-193,38,-40,-17,-127,177,65,-12,-31,-29,15,4,-114,56,-29,-76,33,-140,193,40,-23,-40,9,190,431954
-151,-20,55,-44,-47,-41,-215,-46,214,82,-263,-2,-3,101,-71,-76,-53,-4,-18,-154,-39,-71,-91,1,-183,65,14,-54,-52,-7,147,431955
-118,-5,47,-36,-45,-34,-199,-58,134,200,-109,-30,-27,44,32,-25,22,57,81,-99,-42,-17,3,78,-131,33,76,41,32,56,241,431956
-122,-10,35,-24,-47,-35,-171,-224,64,90,-117,-51,0,-33,-26,-32,27,58,107,-93,-56,-9,14,97,-119,-8,85,69,56,67,222,431957
-105,-6,29,-37,-43,-40,-110,50,-66,-88,71,-2,28,-54,-50,-26,-19,14,34,-85,-21,-22,-23,30,-98,45,24,14,15,20,63,431958
143,24,-37,-59,-3,-17,184,23,-219,22,50,57,-47,9,-50,224,-79,-84,-171,183,661,189,-82,-204,356,1015,-196,-137,-154,-127,-350,431959
230,30,-51,-57,25,13,176,71,-122,-131,-65,19,-127,117,9,268,-78,-96,-219,217,812,216,-84,-247,423,1248,-243,-165,-201,-159,-420,431960
211,29,-27,-42,23,20,117,-62,-15,-108,80,61,-80,62,19,216,-68,-62,-217,155,687,168,-68,-208,306,1105,-203,-155,-190,-145,-230,431961
12,14,43,-13,-10,-7,-30,133,15,75,27,133,15,-56,31,61,17,59,-11,-13,175,43,3,13,-24,401,20,-12,-20,10,194,431962
-109,-10,70,-12,-22,3,-168,124,71,-92,47,-73,108,-127,-27,-78,10,51,81,-143,-191,-80,-4,81,-233,-122,86,31,53,59,247,431963
-72,-22,55,-16,-13,32,-144,-32,-21,-156,-49,-170,8,-176,-61,-82,-54,-26,18,-136,-159,-110,-58,2,-194,-110,3,-18,-4,-11,115,431964
-81,-13,35,-17,-23,-1,-102,-35,-30,-140,24,-86,26,-19,-34,-79,-50,-23,12,-118,-158,-104,-51,6,-178,-138,2,-17,-13,-9,82,431965
-78,-4,7,-18,-37,-32,-64,-77,-56,-290,64,-47,-107,76,25,-26,22,36,87,-57,-127,-49,11,64,-134,-129,62,41,51,49,211,431966
42,19,-10,-19,-9,-20,45,-91,-10,-304,119,-37,58,63,42,125,60,54,55,96,173,86,61,25,102,260,27,38,36,38,-33,431967
137,17,-26,-34,10,-10,120,51,35,-202,156,-19,-107,-17,73,189,-21,-22,-123,167,460,133,-19,-117,253,675,-105,-75,-91,-82,-303,431968
414,70,-84,-30,54,36,467,311,-146,-28,271,83,-189,101,81,461,-107,-125,-355,438,1227,354,-110,-364,726,1766,-337,-230,-282,-228,-839,431969
512,89,-122,-59,41,28,622,257,-287,-92,251,164,63,283,-8,607,-146,-164,-501,549,1674,468,-153,-496,947,2459,-457,-323,-404,-329,-950,431970
345,71,-89,-61,8,-10,389,15,-122,-4,61,78,153,45,-58,457,-142,-139,-434,353,1351,326,-166,-410,670,2071,-377,-304,-368,-296,-688,431971
34,20,17,-59,-25,-35,-61,-48,134,69,29,-76,-19,-226,-24,114,-96,-56,-222,-12,506,42,-145,-160,79,942,-135,-172,-200,-151,-39,431972
-135,-15,76,-45,-39,-25,-320,-12,128,17,-162,-61,-110,-233,14,-78,-17,36,14,-175,-72,-95,-62,63,-253,125,47,-9,-10,7,325,431973
-69,-9,64,-47,-30,-20,-234,-116,112,65,122,-11,-52,-47,-21,-34,12,46,60,-107,-16,-40,-20,69,-160,176,50,29,28,37,228,431974
-51,-6,46,-29,-35,-31,-180,-241,100,28,216,-3,71,48,-24,1,21,37,52,-76,35,4,-11,65,-104,237,41,28,39,37,147,431975
-60,4,48,-18,-28,-23,-146,-8,114,166,-9,-14,31,85,-72,24,58,69,88,-42,52,38,24,104,-70,232,83,58,80,86,171,431976
-84,-6,52,-11,-20,-28,-191,-1,43,6,-712,-32,220,-187,-8,-7,70,81,117,-69,-45,9,47,117,-126,84,118,84,107,103,220,431977
-69,-15,53,4,-11,-10,-229,7,-14,7,-722,-140,120,-186,29,-59,33,49,105,-109,-138,-34,9,115,-175,-32,97,69,92,89,215,431978
-87,-26,41,-12,-29,-27,-199,225,-37,-23,-150,-135,14,-75,9,-67,-11,18,78,-120,-142,-65,-16,79,-180,-28,53,33,50,48,109,431979
-145,-23,30,-6,-51,-60,-159,81,-87,50,87,-1,2,-36,-24,-76,17,50,136,-117,-198,-69,18,122,-201,-122,95,68,94,81,179,431980
-246,-32,66,-7,-47,-55,-287,-235,89,120,-92,-116,242,38,-99,-178,56,81,233,-218,-501,-154,61,214,-380,-566,185,133,164,143,456,431981
-206,-48,60,-37,-28,-31,-307,-242,42,-23,-156,-160,-40,4,-104,-158,62,77,218,-188,-512,-152,64,198,-351,-603,154,135,167,130,341,431982
-85,-17,6,-30,-23,-33,-147,-164,40,-98,-57,19,-120,206,19,15,84,79,186,-8,-152,-5,105,146,-84,-142,111,140,165,114,94,431983
-18,6,-45,-27,-27,-50,-41,-92,-11,32,-199,101,53,248,90,113,81,73,101,110,98,90,83,84,90,204,68,115,119,93,-3,431984
-24,8,-10,-1,-3,-31,-63,-79,-102,159,-172,59,-59,155,-26,42,16,20,28,44,18,8,22,24,-1,127,24,43,40,29,17,431985
-30,-6,12,-16,-7,6,-52,-59,-121,63,-234,31,-9,13,-105,1,-33,-41,-35,-12,-28,-55,-13,-40,-49,104,-47,-35,-24,-40,-79,431986
11,-5,24,-25,8,31,-12,-42,-83,-41,-80,116,-143,-129,-70,23,-25,-24,-39,0,-3,-43,-26,-41,-23,151,-56,-42,-27,-40,-142,431987
-93,-5,51,-1,5,17,-146,-86,-10,-1,-51,-94,36,-102,-113,-90,22,52,95,-132,-323,-128,19,99,-239,-316,87,54,77,53,246,431988
-540,-81,172,20,-65,-26,-740,-429,130,1,-320,-336,197,-206,-140,-568,122,183,456,-604,-1581,-501,116,482,-1066,-2125,442,284,364,279,1078,431989
-588,-97,195,57,-37,-16,-891,-354,215,-22,-315,-171,92,-330,-95,-663,156,196,552,-633,-1888,-535,161,565,-1176,-2644,514,353,470,356,1023,431990
-433,-96,114,55,-29,-15,-752,-268,257,-67,-223,85,114,-213,-37,-491,134,154,472,-440,-1504,-362,148,449,-874,-2193,403,300,413,305,670,431991
-204,-68,28,22,-10,6,-501,-93,153,-118,-69,89,60,137,-39,-250,95,72,308,-184,-856,-143,112,250,-421,-1346,216,202,276,195,238,431992
65,-36,-29,8,27,30,-47,184,-23,-62,-103,119,-121,215,44,47,75,38,128,99,-81,106,102,71,80,-305,51,106,131,79,-130,431993
51,-7,-27,41,11,11,193,-62,-73,59,-23,75,49,31,13,55,61,36,85,94,3,106,82,51,92,-179,30,83,92,56,-51,431994
30,8,-28,54,19,9,229,-151,-136,144,-277,-8,-18,-15,11,29,36,14,54,59,1,85,72,19,79,-141,-4,40,52,30,-18,431995
-11,-11,-27,18,4,11,109,-116,-178,-43,-207,-21,-240,67,-28,-53,-10,-35,3,-26,-80,10,28,-15,-14,-233,-45,-21,-1,-21,-101,431996
-7,-16,-5,2,18,32,9,80,10,-5,-26,-16,-270,-34,-1,-68,-12,-38,-5,-57,-130,-19,15,-16,-64,-304,-31,-26,2,-22,-110,431997
-34,-22,7,2,5,15,-75,248,51,55,192,24,16,42,31,-81,26,7,71,-74,-207,-14,51,51,-92,-434,32,46,69,38,131,431998
-132,-27,34,49,0,-3,-147,176,79,61,46,10,68,18,31,-175,67,52,185,-168,-476,-91,90,162,-268,-831,127,125,156,115,286,431999
-144,-25,23,68,-18,-11,-53,85,120,120,-289,81,-94,-128,4,-199,25,17,155,-164,-510,-123,39,130,-290,-872,104,98,131,94,250,432000
-217,-42,39,58,-30,-11,-127,-125,212,159,6,-16,-2,-129,-38,-276,18,28,211,-235,-711,-205,41,169,-417,-1158,152,118,161,125,421,432001
-107,-24,11,36,-3,-9,-29,52,73,243,205,-4,56,180,-26,-168,-7,-16,124,-120,-475,-126,32,75,-227,-808,61,60,100,68,105,432002
26,0,-35,23,15,-8,87,3,-49,178,214,128,49,130,9,-20,-7,-36,-1,16,-123,-22,27,-21,6,-304,-33,8,22,-4,-171,432003
79,8,-25,30,36,20,36,-110,-73,61,-13,94,130,-25,68,8,-17,-40,-47,42,-30,-25,17,-55,54,-135,-70,-16,-13,-46,-147,432004
21,-14,-3,34,31,36,-58,-176,73,-29,-144,8,51,36,-49,-80,-42,-50,-34,-53,-219,-120,-16,-34,-96,-358,-40,-10,-7,-37,-62,432005
-16,-18,-9,38,6,17,13,-60,90,17,-55,22,-12,81,-21,-62,-11,-11,9,-57,-268,-117,11,22,-114,-423,18,27,34,4,32,432006
3,10,-15,68,6,-1,72,-47,19,85,-88,86,109,111,-32,20,50,41,60,22,-164,-38,76,62,-40,-315,64,73,80,39,86,432007
-44,17,1,63,-1,4,1,-37,-27,-8,-249,72,84,-52,65,-22,54,51,100,-13,-245,-61,92,89,-108,-438,91,89,104,45,135,432008
-673,-103,151,41,-96,-67,-794,-348,234,-14,-623,-305,-42,-249,-113,-666,193,254,589,-656,-1933,-569,196,618,-1211,-2813,576,396,471,363,1353,432009
-974,-175,224,71,-115,-79,-1114,-634,363,91,-747,-474,65,-282,-168,-1006,313,366,961,-935,-2960,-798,341,961,-1749,-4368,872,644,784,617,1853,432010
-860,-160,198,128,-61,-39,-846,-512,340,100,-376,-234,166,-225,-65,-961,302,317,964,-831,-2871,-697,361,906,-1563,-4400,800,642,803,599,1524,432011
-342,-86,41,158,13,18,-127,-157,100,181,155,110,-87,-83,7,-527,131,75,517,-367,-1643,-313,217,406,-694,-2789,334,340,453,297,318,432012
242,22,-93,136,102,77,502,368,-15,96,365,224,-82,130,94,23,-58,-151,-69,153,-51,113,45,-167,270,-593,-189,-30,-12,-103,-629,432013
169,-1,-82,69,58,38,272,336,-3,84,26,193,-41,21,10,15,-33,-97,-67,110,7,108,50,-121,207,-535,-144,-12,-17,-91,-382,432014
131,-3,-78,42,34,29,197,113,21,-42,144,110,-88,-67,25,38,-4,-51,-35,111,51,129,42,-83,217,-490,-97,7,10,-43,-252,432015
139,17,-68,63,41,41,224,146,29,68,101,230,-24,114,61,55,-15,-55,-53,124,134,144,18,-89,253,-369,-105,-18,-17,-42,-185,432016
126,19,-60,56,38,36,195,47,8,70,375,226,-44,63,44,44,-2,-33,-53,117,136,135,23,-67,230,-362,-74,-15,-20,-29,-174,432017
-46,-8,-27,46,14,21,-6,17,-20,132,368,12,-214,-186,18,-120,25,8,61,-56,-259,-13,29,58,-65,-891,44,53,60,38,227,432018
-685,-114,136,62,-82,-36,-774,-563,146,150,-428,-275,-123,-522,-51,-769,183,230,601,-721,-2046,-556,172,625,-1227,-3401,569,405,482,386,1408,432019
-1014,-173,204,101,-117,-74,-1134,-715,298,11,-563,-431,162,-277,-114,-1082,333,390,1011,-990,-3104,-788,354,1014,-1771,-4981,936,689,835,672,1885,432020
-981,-159,170,145,-95,-66,-1028,-548,266,-19,-366,-313,145,-76,-55,-1034,379,393,1078,-884,-3153,-716,425,1037,-1660,-5146,951,758,921,726,1676,432021
-411,-98,-4,129,-3,-6,-328,-250,19,46,-15,7,-181,130,-22,-517,190,126,562,-308,-1746,-296,278,479,-663,-3203,419,407,528,369,353,432022
189,-16,-110,89,78,80,323,-68,-61,21,394,337,-142,276,43,27,-2,-91,-23,206,-170,97,91,-83,276,-963,-93,27,50,-34,-559,432023
324,8,-117,50,85,96,431,368,-66,28,433,336,-143,32,104,162,-31,-103,-166,308,239,165,50,-191,451,-298,-175,-51,-76,-126,-573,432024
228,8,-90,24,66,71,319,327,-82,30,351,150,98,-81,108,96,-29,-69,-117,224,102,80,40,-122,297,-396,-102,-29,-57,-92,-378,432025
181,5,-57,36,68,88,234,88,-26,120,272,36,34,7,75,32,-59,-92,-123,132,-9,6,6,-112,181,-482,-106,-43,-71,-99,-353,432026
180,-1,-65,44,63,81,240,229,11,236,185,109,-13,-53,96,24,-66,-103,-157,135,15,-1,-12,-146,172,-380,-130,-71,-104,-127,-307,432027
16,-19,-17,37,22,51,90,242,3,152,-71,82,-25,-199,-11,-126,-55,-62,-86,-35,-339,-124,-10,-57,-97,-854,-43,-40,-67,-82,41,432028
-550,-95,129,62,-46,-6,-567,-261,299,225,-443,-175,82,-316,-125,-677,126,171,440,-595,-1864,-551,170,495,-1089,-3062,462,312,351,267,1183,432029
-735,-118,173,121,-45,-12,-758,-410,367,210,-455,-176,99,-194,-86,-888,213,249,751,-766,-2551,-676,283,742,-1425,-4173,678,495,590,456,1426,432030
-532,-87,129,138,5,30,-474,-248,165,60,-303,-149,-70,-80,-17,-732,193,175,671,-565,-2174,-503,279,616,-1076,-3803,547,443,545,406,989,432031
-88,-50,-31,109,47,47,118,198,-73,147,124,105,38,122,30,-277,87,23,306,-81,-955,-101,180,222,-244,-2198,164,219,277,164,16,432032
292,24,-131,74,88,79,530,609,-164,67,292,249,12,230,-8,139,-43,-117,-119,303,258,231,41,-188,482,-534,-205,-56,-61,-111,-601,432033
231,23,-97,50,71,82,322,381,-84,-171,106,247,22,197,56,109,-21,-84,-119,242,260,213,44,-140,397,-548,-162,-43,-82,-100,-409,432034
170,10,-98,43,46,55,216,251,-129,-156,208,173,109,79,27,71,11,-48,-64,196,189,189,58,-88,314,-655,-95,1,-32,-58,-318,432035
120,10,-83,43,36,35,221,155,-86,-68,167,86,-64,112,30,60,19,-29,-68,172,162,170,52,-80,260,-697,-89,-10,-29,-52,-291,432036
114,8,-70,27,32,39,206,113,2,-103,224,61,-99,226,66,32,-25,-59,-95,126,122,129,7,-107,206,-712,-117,-41,-74,-79,-273,432037
139,8,-50,23,59,66,180,175,72,-113,19,128,17,116,47,7,-58,-95,-122,90,102,84,-48,-133,164,-706,-141,-90,-119,-114,-238,432038
-24,-28,-5,11,25,49,-80,17,81,-82,-95,9,199,4,-25,-197,-56,-67,-22,-129,-391,-100,-46,-9,-184,-1361,-13,-27,-40,-52,59,432039
-143,-40,14,12,-14,11,-217,-120,111,103,166,-1,243,-39,23,-257,16,20,153,-176,-640,-145,41,146,-306,-1735,133,94,100,70,232,432040
-112,-22,-10,21,-5,2,-176,-72,-13,54,31,-58,-69,-1,66,-183,41,22,161,-78,-509,-87,63,126,-180,-1549,114,104,104,76,51,432041
8,-10,-52,16,14,6,-52,-35,-7,-79,21,163,-23,173,79,-45,45,12,71,83,-183,29,81,39,71,-1077,34,76,54,29,-155,432042
108,-2,-62,-2,21,13,124,55,-69,14,88,144,-15,245,88,52,-6,-32,-73,175,98,93,21,-69,230,-617,-70,-14,-50,-59,-208,432043
146,14,-59,2,30,27,310,103,-29,94,216,145,-43,109,66,106,-56,-88,-191,194,256,95,-41,-161,293,-282,-156,-98,-134,-127,-279,432044
95,6,-40,10,35,40,206,140,-76,-157,146,41,-71,-15,27,38,-64,-81,-162,106,96,20,-53,-119,158,-428,-121,-88,-126,-119,-180,432045
154,22,-37,27,62,51,176,9,7,-108,145,47,154,-24,58,62,-45,-63,-169,157,175,48,-33,-122,197,-282,-116,-82,-124,-109,-241,432046
179,30,-58,35,43,26,247,125,-92,180,39,110,39,169,14,92,-81,-92,-221,184,283,60,-70,-175,240,-87,-159,-125,-160,-132,-372,432047
150,24,-62,14,23,18,242,193,-118,33,2,103,153,176,17,73,-88,-99,-200,141,259,39,-75,-169,207,-97,-159,-126,-175,-134,-278,432048
208,40,-68,15,38,35,338,188,-97,-85,-136,105,-42,199,114,156,-36,-72,-171,230,444,128,-25,-160,360,134,-149,-102,-151,-110,-340,432049
240,47,-88,6,28,20,423,240,-118,-122,27,78,-123,150,100,228,-32,-60,-191,287,638,200,-26,-183,470,363,-172,-102,-159,-107,-328,432050
206,49,-64,-1,26,30,394,290,-76,-18,174,20,-252,79,33,214,-20,-37,-175,266,605,212,-28,-153,440,319,-152,-83,-132,-91,-173,432051
46,24,-31,-7,2,3,204,116,-110,-40,111,-23,-127,-128,-54,68,-1,6,-81,94,229,81,-20,-41,171,-240,-48,-26,-54,-38,52,432052
45,31,-29,-4,9,6,123,105,-64,-55,134,-85,80,-120,-17,28,-16,-16,-82,70,158,53,-34,-59,127,-365,-48,-52,-70,-46,-45,432053
44,9,-12,-17,20,43,-24,131,-11,-51,-19,-70,117,-61,21,-5,-33,-29,-84,36,86,34,-42,-66,74,-477,-51,-59,-66,-51,-93,432054
67,1,-8,-22,20,28,-15,147,-52,-43,-34,29,90,-26,42,6,-36,-37,-101,43,112,35,-55,-89,85,-448,-67,-61,-84,-73,-127,432055
61,0,-30,-17,-3,-2,50,-18,38,18,72,97,140,-173,110,14,-63,-60,-98,46,145,15,-63,-111,85,-390,-94,-88,-118,-102,-194,432056
67,20,-55,6,-16,-27,138,97,-39,143,292,83,-11,150,36,60,-45,-52,-81,98,246,66,-31,-98,159,-253,-99,-81,-110,-89,-99,432057
146,44,-59,26,9,-5,270,64,70,104,406,166,-90,167,23,193,-5,-22,-113,221,490,175,9,-124,338,72,-115,-77,-108,-92,-315,432058
345,73,-101,-6,45,36,474,-30,-52,106,247,190,21,300,53,393,-51,-80,-301,421,1023,331,-57,-297,678,860,-268,-187,-249,-197,-611,432059
427,63,-128,-62,49,42,519,113,-88,-42,291,46,-78,325,71,442,-145,-161,-476,446,1280,349,-159,-450,780,1317,-414,-313,-399,-322,-814,432060
467,64,-121,-70,41,47,518,316,-187,-25,239,93,-287,38,75,447,-179,-182,-543,428,1375,340,-209,-489,786,1512,-451,-358,-453,-363,-806,432061
261,44,-65,-42,6,17,244,113,-16,-119,33,-56,-119,-255,122,270,-91,-67,-353,225,874,190,-133,-272,419,838,-237,-226,-297,-219,-276,432062
15,12,-5,-32,-28,-17,-32,-53,-27,-130,-356,-224,40,-164,8,44,-36,-5,-133,7,256,4,-75,-73,28,15,-60,-96,-151,-88,144,432063
30,26,17,-32,-9,1,17,214,46,-78,-167,-92,-45,80,-61,79,-23,-3,-45,49,284,37,-26,-46,80,63,-33,-58,-110,-45,-5,432064
44,25,-4,-63,-25,-17,45,98,3,34,84,39,18,35,40,126,5,25,-17,101,358,93,-12,-14,149,155,-15,-28,-67,-2,-59,432065
39,19,-8,-55,-19,-34,-15,29,44,-82,302,11,106,-38,17,94,16,39,7,89,303,96,-21,20,114,71,21,1,-35,26,-20,432066
9,15,-5,-39,-12,-22,-87,148,28,-53,86,-177,-82,-45,-21,46,10,16,7,33,204,53,-16,16,73,-52,15,-3,-39,14,1,432067
146,19,-38,-35,3,-3,146,-62,-20,98,62,-97,-79,93,78,202,2,-25,-101,205,591,190,-25,-97,338,485,-99,-69,-102,-44,-303,432068
593,98,-162,-47,51,28,796,303,-143,26,567,257,-185,278,195,685,-97,-145,-468,684,1865,568,-116,-475,1174,2282,-444,-289,-379,-263,-1128,432069
740,139,-214,-97,34,25,1005,314,-282,-238,618,299,-208,404,100,876,-184,-220,-706,799,2461,683,-221,-704,1453,3223,-632,-456,-594,-432,-1334,432070
569,129,-154,-107,24,17,745,279,-328,-249,165,66,-184,270,8,687,-193,-202,-659,586,2081,490,-236,-624,1120,2819,-541,-441,-581,-410,-982,432071
141,73,-3,-88,-12,1,152,-169,-13,-261,-298,-164,-9,-102,-59,230,-90,-50,-315,124,895,98,-158,-234,296,1221,-186,-225,-312,-187,-6,432072
-151,6,54,-79,-74,-43,-224,-533,-97,-263,-266,-295,84,-304,-76,-68,-32,21,-39,-138,35,-148,-108,18,-207,43,52,-72,-91,-16,242,432073
-123,0,40,-63,-68,-47,-248,-280,-70,-198,-189,-244,95,-190,-76,-64,-18,17,5,-121,-52,-147,-80,29,-189,-51,57,-48,-54,10,143,432074
-102,9,32,-49,-50,-44,-264,-139,-143,-191,-54,-85,-13,-96,-85,-29,23,54,66,-77,-63,-105,-17,85,-143,-103,105,18,11,51,191,432075
-59,8,29,-46,-23,-36,-272,21,-97,-50,6,-96,44,-9,-30,34,55,71,72,1,12,-39,18,88,-38,-35,108,59,38,61,244,432076
-109,-5,38,-55,-42,-43,-344,-141,-7,-88,-127,-136,118,-72,8,9,40,64,22,-26,-58,-63,4,67,-80,-118,83,20,17,20,270,432077
-100,-13,13,-64,-60,-63,-268,-66,-46,-40,-190,-141,-19,7,-13,53,40,69,-7,14,35,-25,0,26,-6,8,62,7,8,9,52,432078
186,46,-49,-53,-17,-34,234,165,15,-66,220,62,-161,233,40,378,2,2,-180,343,839,246,-29,-175,539,1114,-131,-89,-138,-110,-444,432079
279,67,-65,-76,10,-5,362,191,-194,-181,170,97,-83,153,66,458,-47,-52,-311,410,1134,308,-81,-290,668,1549,-246,-178,-243,-204,-540,432080
320,53,-55,-117,16,26,293,219,-210,-213,-59,49,-28,162,50,417,-74,-68,-342,353,1141,284,-119,-313,596,1571,-268,-208,-284,-230,-523,432081
159,35,14,-63,4,29,114,6,9,-301,-291,-106,17,-187,-38,186,-50,-23,-164,106,592,106,-100,-131,189,808,-118,-127,-177,-119,-65,432082
18,35,32,8,-6,3,40,-12,-39,-20,-159,-174,99,-433,-10,26,-26,9,-8,-29,210,10,-74,-7,-57,223,-9,-49,-76,-23,161,432083
-24,24,9,10,-28,-42,6,-80,-71,-60,-117,-207,83,-164,-26,20,-17,3,30,-37,210,45,-61,-2,-45,138,-4,-30,-56,3,47,432084
-25,19,15,-1,-36,-65,-20,-56,79,34,-126,-157,26,-175,8,31,9,19,37,-36,226,72,-36,19,-32,66,6,-22,-39,16,107,432085
-53,5,-2,-14,-52,-72,-30,180,44,109,-113,-5,-154,-167,27,29,10,21,53,-43,210,79,-29,20,-35,1,5,-11,-19,31,50,432086
-51,11,12,-17,-36,-43,-22,-3,0,-113,113,-3,-218,-98,106,31,22,38,76,-35,194,88,-18,51,-24,-52,30,15,0,73,16,432087
90,35,2,-26,7,2,141,-135,44,6,243,77,-48,-74,54,152,-19,-23,-52,95,515,180,-70,-66,202,403,-86,-68,-87,5,-206,432088
444,96,-95,-46,48,40,568,105,-139,-7,540,293,-66,96,61,521,-126,-165,-394,467,1533,455,-155,-423,862,1899,-410,-287,-339,-220,-920,432089
581,107,-141,-94,41,22,631,281,-284,27,422,199,34,166,66,665,-194,-218,-619,586,2009,521,-234,-603,1108,2716,-561,-426,-512,-364,-1172,432090
536,102,-105,-98,39,29,345,350,-215,45,130,85,56,-31,16,549,-245,-248,-673,453,1806,363,-311,-621,902,2614,-551,-474,-580,-418,-971,432091
138,35,17,-94,-17,-22,-165,65,19,-119,-205,-176,137,-210,-24,178,-148,-95,-352,63,758,11,-224,-274,191,1310,-211,-268,-336,-211,-54,432092
-208,-9,98,-50,-66,-58,-365,-214,173,209,-141,-136,70,-104,-53,-87,64,129,122,-182,-214,-192,-6,175,-332,-11,203,63,61,116,605,432093
-160,8,82,3,-43,-46,-136,-272,139,211,109,-186,48,-67,-12,-61,60,103,135,-136,-260,-182,15,166,-268,-35,186,69,84,110,440,432094
-160,4,74,12,-26,-34,-104,-67,78,284,5,-293,172,-131,35,-104,21,63,87,-168,-377,-243,-7,125,-320,-159,139,31,56,57,381,432095
-130,-6,81,3,-12,-10,-110,-193,6,4,-103,-275,-14,-198,-70,-129,9,36,59,-189,-449,-264,-30,104,-339,-229,114,24,40,25,324,432096
-63,-7,50,-5,-15,4,-19,-147,-44,-131,0,-159,-141,-354,-95,-109,-18,-7,1,-142,-353,-230,-56,40,-258,-98,48,-19,1,-19,225,432097
61,21,30,14,6,23,106,45,55,-33,-39,-23,99,-183,-36,4,-24,-19,-60,-21,-78,-120,-36,-39,-63,246,-22,-43,-37,-55,-49,432098
446,74,-83,-9,57,34,544,291,-46,-139,390,233,86,153,100,439,-108,-144,-407,416,1115,260,-115,-411,702,1893,-372,-265,-305,-287,-874,432099
582,110,-126,-40,52,42,728,600,-159,31,279,254,-97,86,97,615,-189,-228,-635,559,1702,391,-216,-618,979,2743,-556,-418,-505,-439,-1124,432100
539,114,-101,-47,38,14,686,426,-190,-24,392,213,-47,-145,53,589,-233,-236,-673,482,1762,371,-268,-644,898,2826,-567,-465,-566,-484,-945,432101
131,58,6,-49,-28,-28,163,199,-77,24,13,-103,87,-265,-77,198,-150,-103,-351,39,794,66,-215,-308,175,1439,-251,-274,-345,-281,-50,432102
-214,3,100,-31,-61,-53,-334,-201,94,-24,-247,-242,51,-260,-125,-142,20,71,72,-289,-214,-147,-52,103,-450,-101,105,0,-5,16,540,432103
-190,-1,101,-20,-36,-15,-373,-335,58,34,-220,-211,147,-121,-118,-148,60,107,175,-271,-264,-73,14,165,-436,-382,157,74,84,90,437,432104
-172,-17,97,-22,-33,-1,-324,-150,192,50,-267,-103,-10,-31,-82,-136,65,92,174,-253,-216,-30,27,139,-388,-448,137,80,84,85,387,432105
-170,-16,80,-26,-46,-13,-256,-45,85,29,-141,12,-77,-30,-41,-109,52,67,157,-226,-141,5,25,106,-314,-434,89,53,68,73,285,432106
-167,-13,83,-24,-31,-35,-235,-82,62,21,-9,-93,106,61,-1,-98,66,90,186,-210,-120,31,44,137,-277,-503,118,85,96,108,349,432107
-74,-11,21,-30,-32,-53,-149,-61,72,-36,31,-133,23,11,39,-18,40,46,113,-129,76,79,19,63,-119,-220,46,51,51,57,149,432108
572,88,-138,-27,54,15,614,380,-272,70,551,257,-106,131,134,596,-160,-217,-463,505,1717,535,-170,-540,990,2191,-504,-323,-384,-329,-1246,432109
1155,180,-263,-80,120,83,1337,683,-372,65,882,409,-19,246,182,1198,-376,-450,-1128,1076,3468,939,-389,-1159,2009,4872,-1063,-756,-921,-776,-2261,432110
1015,186,-224,-127,63,35,1219,680,-314,-71,681,320,86,295,176,1140,-363,-376,-1134,952,3391,794,-405,-1097,1807,5004,-985,-755,-957,-778,-1831,432111
264,92,-16,-123,-50,-43,268,178,-103,-24,-273,-22,138,111,34,420,-161,-82,-517,180,1424,151,-231,-416,464,2492,-332,-361,-501,-370,-174,432112
-411,-28,147,-83,-119,-98,-609,-411,175,-34,-487,-281,88,-188,-95,-272,41,149,152,-483,-614,-424,-21,237,-758,-253,262,55,48,79,938,432113
-350,-34,141,-48,-74,-55,-519,-254,140,1,-329,-277,121,-297,-62,-256,59,129,195,-418,-729,-401,8,234,-689,-385,262,83,122,117,761,432114
-285,-24,136,-25,-52,-22,-396,-87,233,114,-263,-231,-31,-208,-71,-219,52,102,191,-343,-708,-352,15,224,-590,-350,242,91,138,113,631,432115
-302,-45,106,-25,-63,-41,-361,-108,103,131,-240,-247,103,-175,-86,-259,33,84,188,-353,-811,-377,-6,221,-594,-484,245,103,156,94,581,432116
-258,-32,87,-5,-36,-32,-267,-218,76,-78,-71,-109,216,-241,-91,-226,46,84,197,-300,-785,-340,10,220,-520,-466,243,122,176,105,458,432117
-146,-11,59,18,-16,-20,-123,-263,-9,-169,104,-85,30,-26,-46,-126,46,66,151,-179,-539,-231,32,155,-332,-160,182,114,143,87,231,432118
380,66,-74,-3,62,52,466,255,-146,-91,243,145,-65,149,67,393,-83,-129,-310,349,889,209,-82,-326,568,1796,-269,-191,-207,-218,-782,432119
731,108,-137,-56,112,102,799,456,-265,-120,364,252,-92,136,86,700,-234,-295,-715,626,1926,461,-246,-722,1118,3265,-640,-480,-560,-509,-1405,432120
933,152,-178,-83,126,100,1053,620,-332,-85,538,357,-105,169,67,949,-332,-371,-980,822,2741,663,-358,-968,1523,4436,-876,-676,-802,-685,-1753,432121
411,91,-42,-108,6,7,415,388,-137,-52,370,31,224,45,-4,501,-217,-169,-611,296,1653,293,-295,-537,635,2909,-462,-446,-552,-435,-548,432122
-335,1,142,-39,-87,-85,-530,-144,271,-40,-120,-218,177,-259,-72,-210,81,178,208,-402,-403,-225,-18,266,-678,-138,273,83,92,132,805,432123
-283,-8,98,-26,-75,-81,-462,-143,73,-58,-36,-87,191,-160,-94,-171,102,175,267,-308,-354,-111,44,255,-546,-282,246,110,159,169,574,432124
-245,-15,92,-31,-65,-56,-370,-212,95,1,-19,-118,243,-1,-71,-124,122,177,295,-237,-252,-28,85,244,-431,-324,237,138,189,192,508,432125
-235,-34,82,-47,-69,-58,-310,-165,-5,34,-53,-155,33,93,-46,-129,96,135,263,-233,-222,-16,58,214,-375,-372,195,123,164,175,434,432126
-217,-35,66,-41,-54,-55,-297,-123,19,-115,-205,-127,-58,11,-71,-125,89,110,239,-225,-199,-6,36,200,-344,-417,167,119,161,148,351,432127
-14,18,29,9,7,-6,-122,26,-60,-229,-31,-28,-243,-26,-128,21,15,29,88,-50,219,113,-29,33,-33,164,19,19,44,51,-94,432128
636,110,-111,13,115,89,636,385,-216,-49,424,175,-66,129,25,623,-198,-253,-518,565,1870,551,-229,-588,1055,2618,-562,-385,-431,-353,-1312,432129
1082,187,-211,-33,144,118,1223,673,-349,184,707,442,-42,363,175,1119,-333,-395,-982,1027,3255,882,-355,-1017,1884,4767,-943,-683,-813,-654,-2038,432130
1063,197,-227,-111,85,46,1265,551,-317,36,781,429,-29,369,168,1215,-337,-366,-1078,1050,3543,885,-381,-1059,1959,5409,-958,-746,-911,-720,-1947,432131
348,96,-42,-132,-44,-48,371,3,-170,-77,296,-33,173,-24,38,559,-155,-86,-541,340,1780,293,-229,-448,720,3173,-365,-393,-508,-351,-521,432132
-313,-6,132,-78,-106,-99,-494,-273,184,-62,-303,-267,86,-204,-89,-112,56,162,119,-306,-203,-250,-29,228,-473,504,235,54,35,112,685,432133
-284,-5,116,-44,-73,-76,-428,-298,219,18,-338,-118,-67,-168,-71,-113,61,139,178,-251,-345,-246,-9,245,-433,348,240,90,106,148,608,432134
-231,-14,102,-26,-57,-43,-342,-300,197,-36,-191,-127,120,-302,-60,-105,39,97,143,-203,-355,-240,-19,196,-374,368,203,67,107,127,509,432135
-183,-13,111,-18,-31,-16,-271,-171,179,-89,-117,-101,95,-206,-102,-91,49,96,116,-184,-378,-218,-20,176,-354,369,198,69,124,132,420,432136
-166,-20,110,-17,-24,-7,-245,-256,174,62,-103,-65,4,-147,-96,-135,3,52,129,-226,-455,-260,-62,146,-402,269,178,52,94,102,307,432137
-171,-11,93,-8,-23,-7,-242,-234,-3,117,-325,-196,-59,-53,-98,-200,-33,6,136,-256,-545,-308,-71,132,-450,147,169,19,79,70,269,432138
100,15,14,-3,8,2,54,298,-127,39,66,-107,-120,-26,-92,86,-76,-74,-67,39,186,-41,-92,-99,66,1107,-49,-109,-68,-62,-340,432139
497,99,-59,4,71,39,525,488,-168,-84,524,236,-108,79,53,520,-128,-159,-372,451,1348,327,-136,-406,815,2673,-344,-283,-297,-237,-891,432140
593,131,-104,-17,66,31,671,515,-130,-56,532,219,11,80,154,673,-172,-197,-552,567,1879,451,-191,-556,1060,3421,-487,-390,-450,-351,-1021,432141
162,58,12,-60,-9,-22,90,115,-70,61,92,68,58,23,-8,265,-78,-57,-239,121,906,139,-133,-224,313,2028,-168,-186,-239,-169,-170,432142
-197,-10,118,-55,-48,-36,-404,-56,77,-25,-154,-72,-17,-66,-108,-101,52,106,164,-241,-128,-106,-15,164,-349,454,182,64,77,103,483,432143
-123,2,92,-30,-28,-18,-266,-152,143,-66,-72,-12,-10,-91,42,-23,59,101,162,-152,11,-2,-6,137,-232,481,143,69,92,122,314,432144
-119,8,89,7,-6,7,-227,-339,-6,-211,-229,15,51,-107,-68,-32,93,124,204,-137,10,49,34,167,-230,339,157,106,125,152,330,432145
-100,2,87,7,-9,3,-203,-242,16,-108,-313,-75,140,-97,-136,-23,88,108,203,-124,47,66,47,153,-199,293,131,99,118,145,350,432146
-90,-14,68,-14,-22,-10,-190,-257,35,-91,-69,-38,346,-95,-77,-28,54,72,173,-118,64,54,18,108,-191,279,88,55,89,105,240,432147
-52,-14,50,-27,-26,-15,-169,119,-35,-26,-101,71,205,64,-71,13,32,66,129,-68,155,73,2,66,-116,414,59,39,61,93,133,432148
-67,-5,43,-28,-18,-28,-250,-34,-50,-20,-149,-151,136,34,-57,-13,33,61,130,-75,71,33,6,75,-129,379,78,51,59,79,127,432149
-138,-18,61,-26,-14,-36,-350,-260,25,97,-153,-126,-3,-119,-46,-95,17,51,156,-159,-175,-82,7,111,-245,124,115,56,73,84,290,432150
-333,-58,111,-12,-56,-53,-480,-298,186,-53,-139,-185,145,27,-60,-236,106,154,347,-297,-718,-216,68,341,-532,-582,326,210,267,248,620,432151
-214,-27,70,23,-40,-31,-180,-162,65,-4,67,-16,62,55,-55,-83,116,129,350,-109,-462,-94,114,302,-261,-173,282,228,280,239,368,432152
22,26,11,50,16,9,125,129,-13,23,178,57,-122,71,-32,96,11,2,93,84,97,40,21,40,128,704,35,49,80,64,-63,432153
-29,14,8,17,4,-17,49,180,28,6,-70,57,-54,88,-68,51,-16,0,31,37,59,-21,-22,10,63,703,13,5,34,25,-8,432154
-82,4,41,7,-7,-20,-15,-41,77,-187,-195,75,-60,147,-54,20,18,38,80,0,-87,-67,18,70,-5,569,83,47,77,64,70,432155
-112,0,37,-5,-24,-33,1,-60,127,-31,-188,61,-102,77,-6,11,29,54,112,-6,-137,-75,38,98,-27,538,124,62,106,100,89,432156
-100,10,27,-4,-13,-38,67,-106,58,-120,-228,131,203,182,25,60,54,71,109,45,-54,-26,50,97,34,647,127,79,118,123,96,432157
-99,-8,23,-32,-12,-24,-26,-242,87,-180,-282,99,175,136,-49,-6,33,33,97,-20,-158,-67,19,94,-50,505,105,60,92,96,218,432158
-125,-29,28,-9,2,-6,-246,-231,24,-149,-328,-111,-84,-172,-85,-167,-3,12,125,-183,-480,-197,-8,131,-285,53,126,60,106,97,379,432159
-248,-40,85,60,-1,-7,-376,-330,181,-108,-201,-206,-58,-163,-127,-286,65,113,303,-303,-859,-275,54,304,-512,-547,297,184,258,219,630,432160
-464,-76,137,74,-37,-23,-576,-592,259,86,-250,-309,69,-213,-118,-472,162,195,537,-474,-1428,-397,154,526,-837,-1442,496,340,443,381,965,432161
-305,-62,88,47,-6,5,-387,-347,125,267,-126,-154,-4,-50,-60,-332,112,108,395,-296,-1032,-254,116,359,-540,-1011,336,239,350,296,465,432162
4,-36,-22,-2,13,8,-5,174,-41,36,33,18,-97,311,-21,6,7,-7,75,29,-81,40,30,24,78,235,27,41,95,74,-162,432163
72,0,-38,-10,11,0,89,9,15,-141,114,114,-247,186,26,130,17,-3,-3,129,274,150,26,-42,246,649,-20,3,27,28,-214,432164
18,10,-12,-2,15,22,-55,-266,-157,-76,-10,42,-151,173,66,76,20,23,37,67,198,125,34,-6,152,502,20,16,46,56,-97,432165
62,-15,-13,-25,38,40,-132,-39,-173,-78,-206,-4,34,160,48,66,-28,-28,-36,65,286,119,-12,-79,168,602,-59,-45,-34,-12,-143,432166
122,-9,-12,-30,42,66,-61,-88,-28,-44,-405,-16,94,-17,-8,104,-46,-50,-91,80,391,135,-43,-130,221,764,-96,-83,-73,-47,-182,432167
28,-1,11,6,23,33,64,-84,19,-11,-80,-10,21,47,15,41,24,31,56,22,168,77,43,1,78,456,34,21,30,37,36,432168
-361,-52,79,30,-45,-63,-270,-16,71,-132,-300,-138,94,-174,-141,-334,127,179,385,-335,-875,-235,130,356,-580,-980,346,231,284,261,756,432169
-432,-58,109,69,-34,-46,-383,-160,213,-113,-321,-181,-80,-275,-146,-472,127,160,456,-443,-1272,-344,120,423,-763,-1515,395,280,362,316,863,432170
-402,-47,115,88,-7,-16,-349,-391,221,109,-207,-82,-51,-272,-86,-445,139,155,484,-391,-1300,-327,158,438,-716,-1568,397,309,409,333,702,432171
-118,-16,46,80,44,27,-42,-31,221,193,164,91,-82,25,-67,-165,83,49,265,-81,-567,-91,112,198,-178,-567,169,169,254,195,127,432172
157,13,-51,29,44,30,229,127,76,-71,-75,208,-47,197,0,127,-24,-55,-38,204,256,125,3,-82,330,615,-73,-26,9,-7,-358,432173
136,9,-72,-27,13,1,142,126,-72,-40,-7,196,14,188,-11,130,-40,-41,-78,183,312,110,-17,-91,298,728,-78,-44,-32,-27,-308,432174
108,-6,-59,-28,9,-2,52,24,-33,-7,193,181,-63,283,-31,112,-21,-23,-53,151,283,94,-15,-61,266,720,-49,-21,-25,7,-233,432175
100,-5,-47,-20,10,16,-9,32,-13,-101,141,161,45,189,-38,102,-26,-36,-52,144,281,89,-11,-59,248,746,-53,-25,-36,8,-197,432176
66,-7,-14,-24,18,14,-80,223,-91,-12,-207,31,92,244,21,95,20,19,3,117,193,79,32,3,188,618,20,35,29,59,-114,432177
-22,-31,0,-37,-6,-21,-94,127,-136,63,-416,42,158,81,22,55,40,50,31,74,70,50,31,51,111,457,57,49,62,89,28,432178
-277,-44,88,-22,-41,-30,-325,-302,19,101,-248,-45,60,-16,-25,-189,103,145,260,-170,-586,-145,95,279,-310,-474,268,184,220,240,557,432179
-543,-90,139,-6,-69,-52,-716,-617,181,78,-438,-188,86,-7,-82,-472,187,235,551,-450,-1398,-362,185,546,-795,-1659,509,365,440,414,1092,432180
-701,-110,163,44,-72,-68,-895,-573,318,-109,-647,-329,18,17,-79,-651,283,303,782,-597,-1997,-488,293,749,-1092,-2570,688,523,634,557,1279,432181
-261,-57,47,65,5,-18,-263,-141,177,-83,-146,-123,-144,127,-10,-259,169,135,454,-162,-1005,-153,222,379,-331,-1254,341,321,404,345,290,432182
171,-10,-68,18,53,36,351,215,-66,-15,87,48,-113,115,-23,138,-37,-90,-62,220,247,156,21,-129,435,525,-111,-11,1,-18,-553,432183
202,5,-70,7,58,33,422,190,0,3,-55,6,-148,50,27,137,-110,-164,-201,191,412,122,-80,-239,466,827,-209,-124,-128,-133,-570,432184
139,7,-61,33,39,14,292,227,-1,-11,-59,8,-65,-105,6,33,-142,-168,-204,73,247,17,-131,-225,298,665,-200,-158,-157,-141,-379,432185
123,30,-44,75,53,26,252,102,77,146,152,-70,149,-216,2,9,-99,-120,-144,39,131,-14,-94,-170,201,532,-126,-119,-111,-99,-253,432186
159,41,-42,69,37,21,358,190,62,278,316,-17,-1,-173,-47,78,-57,-90,-129,115,255,48,-37,-163,297,748,-126,-96,-93,-81,-329,432187
50,21,-15,50,20,19,210,-30,140,51,113,62,98,8,-21,33,6,-13,-24,59,79,14,30,-56,168,490,-29,-14,-14,-6,-62,432188
-361,-47,82,20,-45,-23,-349,-246,288,-25,-424,-184,92,82,-88,-346,112,157,323,-336,-990,-290,122,327,-557,-1043,340,210,276,241,859,432189
-706,-108,164,44,-83,-58,-799,-338,252,-175,-723,-253,-81,-277,-118,-714,225,281,675,-664,-2045,-561,215,680,-1191,-2625,671,450,577,491,1427,432190
-674,-122,165,96,-48,-29,-793,-376,205,5,-583,-245,-52,-441,-69,-734,251,267,756,-638,-2182,-535,271,719,-1186,-2938,682,517,645,534,1314,432191
-274,-61,55,98,21,3,-301,-70,116,127,137,-44,-206,-90,52,-369,142,99,415,-237,-1198,-216,176,355,-494,-1686,319,301,398,324,352,432192
177,5,-69,63,65,34,311,105,-148,168,257,105,-115,172,113,120,3,-75,-50,240,170,172,41,-98,351,166,-96,14,28,25,-505,432193
146,7,-56,36,42,26,308,2,-53,202,314,58,-74,121,34,119,-29,-83,-93,213,272,165,7,-124,329,291,-106,-21,-36,-19,-417,432194
162,-8,-63,15,33,23,270,75,-81,149,342,34,-3,136,0,83,-80,-119,-152,157,301,114,-53,-185,278,340,-171,-95,-115,-81,-427,432195
220,20,-48,20,62,46,237,-18,-64,-46,170,-5,21,-34,9,103,-64,-87,-164,155,372,127,-33,-181,288,418,-178,-96,-127,-74,-320,432196
205,15,-29,15,52,55,181,66,74,-2,31,-46,-122,-50,19,127,-18,-35,-104,168,394,163,31,-116,288,419,-129,-41,-78,-26,-275,432197
98,-2,-15,20,31,30,93,65,74,35,93,-3,-14,-272,36,65,-13,-20,-61,103,247,98,25,-74,177,202,-80,-20,-47,1,-114,432198
-303,-52,64,38,-46,-52,-294,-155,150,142,-231,-62,73,-296,-17,-317,54,72,211,-295,-744,-227,63,218,-473,-1166,199,142,157,172,626,432199
-660,-93,126,78,-97,-103,-642,-281,194,319,-629,-116,114,-257,-76,-650,190,234,558,-605,-1774,-483,199,588,-1060,-2642,545,393,461,425,1287,432200
-900,-143,181,93,-119,-119,-955,-383,353,104,-797,-261,192,-205,-173,-917,308,347,854,-837,-2651,-679,306,873,-1507,-3902,819,600,724,632,1696,432201
-425,-75,81,115,-3,-11,-422,-112,162,68,-455,40,19,50,-11,-533,186,161,571,-385,-1707,-359,230,507,-738,-2591,465,397,510,418,558,432202
223,-4,-84,47,71,62,368,179,-175,164,169,271,82,204,67,84,-76,-147,-98,226,95,105,-10,-174,442,41,-155,-37,-22,-50,-644,432203
262,2,-81,23,63,57,371,294,-55,241,237,152,46,67,80,126,-99,-169,-229,212,260,85,-59,-233,487,453,-196,-99,-117,-127,-580,432204
199,5,-51,34,57,40,282,224,81,323,207,69,-23,90,95,72,-90,-132,-213,119,123,7,-45,-197,369,430,-145,-92,-106,-129,-404,432205
171,16,-41,49,50,36,272,240,29,86,108,122,-94,-182,63,74,-58,-92,-191,118,88,-6,-26,-160,348,494,-106,-69,-85,-110,-270,432206
130,27,-28,52,34,29,225,272,-13,76,185,106,-11,-8,34,47,-31,-48,-131,97,-15,-19,7,-91,276,401,-42,-16,-30,-61,-144,432207
27,-12,-29,0,-9,-14,54,192,-29,118,149,54,-24,-86,44,-36,-28,-47,-125,-1,-183,-93,-6,-68,133,180,-15,-26,-24,-69,55,432208
-710,-124,185,11,-94,-61,-901,-328,196,104,-579,-272,98,-424,-65,-757,171,228,508,-757,-2136,-667,179,600,-1188,-2668,603,391,461,353,1456,432209
-1265,-229,320,67,-138,-86,-1550,-617,431,57,-779,-548,190,-460,-198,-1330,389,446,1184,-1255,-3841,-1059,414,1206,-2200,-5296,1135,816,986,782,2353,432210
-1123,-221,248,121,-98,-65,-1356,-535,329,174,-628,-303,49,-326,-111,-1244,397,413,1219,-1084,-3732,-918,469,1165,-1987,-5432,1068,839,1034,802,2000,432211
-457,-129,64,123,7,5,-557,-239,118,43,-346,48,-140,116,35,-640,224,173,683,-429,-2104,-380,327,583,-871,-3396,513,503,642,458,746,432212
271,-21,-124,74,98,70,356,198,-168,32,417,354,-170,222,91,73,-11,-118,-36,277,8,204,111,-152,399,-576,-163,15,53,-34,-658,432213
268,-13,-122,40,71,47,347,50,-244,85,457,190,-206,134,84,106,-21,-112,-120,253,243,215,77,-198,400,-320,-196,-27,-44,-94,-537,432214
232,16,-94,48,71,42,316,158,-158,56,62,148,-183,177,111,111,-6,-66,-82,236,289,231,72,-145,350,-332,-152,-5,-36,-59,-408,432215
177,1,-105,31,42,17,262,179,-120,104,-302,111,4,145,54,89,-48,-93,-115,200,328,200,27,-168,308,-326,-188,-54,-85,-102,-457,432216
200,3,-89,28,31,17,255,303,-75,111,57,44,13,-64,49,107,-52,-97,-157,212,420,218,11,-181,347,-215,-211,-68,-113,-119,-408,432217
163,20,-67,38,33,12,209,329,-54,24,437,112,-23,51,55,112,-12,-39,-116,195,383,214,31,-138,311,-271,-159,-29,-76,-65,-262,432218
-340,-44,43,25,-46,-61,-322,-215,218,134,-191,-61,171,-118,-43,-329,128,150,294,-273,-836,-157,143,304,-496,-1952,275,250,239,216,715,432219
-749,-120,124,48,-96,-97,-787,-588,225,172,-339,-300,124,-316,-79,-746,276,299,749,-653,-2093,-485,304,735,-1220,-3722,672,546,594,501,1314,432220
-753,-139,123,74,-77,-70,-790,-621,20,64,-348,-119,-49,78,-86,-781,281,294,828,-644,-2339,-520,338,783,-1239,-4067,716,601,681,551,1328,432221
-391,-82,33,102,0,-12,-340,-430,-48,68,-104,103,-123,120,11,-452,189,167,501,-279,-1544,-268,254,465,-606,-2883,431,394,480,365,603,432222
96,-12,-96,75,63,33,211,-1,-48,0,79,207,-18,206,62,-15,10,-68,-36,148,-292,22,88,-54,212,-928,-47,38,70,-3,-298,432223
182,-13,-101,44,61,50,261,276,-216,195,59,151,149,208,-53,43,-39,-106,-208,176,-69,5,24,-173,340,-356,-143,-61,-56,-116,-398,432224
175,-8,-85,18,38,33,306,305,-160,203,248,228,65,107,14,61,-60,-108,-240,168,-37,-27,-4,-165,362,-95,-127,-71,-82,-140,-389,432225
162,20,-70,12,39,26,351,103,-56,-5,345,270,-50,190,113,87,-48,-92,-210,175,-31,-26,0,-136,378,72,-95,-59,-59,-123,-375,432226
159,31,-65,24,60,29,304,36,-89,-229,63,204,-128,126,124,102,-51,-95,-217,173,14,-35,13,-156,385,232,-110,-58,-67,-138,-300,432227
144,13,-61,-7,50,43,175,-77,-92,-9,-97,31,-124,19,155,71,-78,-117,-237,126,13,-55,-20,-169,331,258,-133,-103,-112,-165,-224,432228
-464,-83,105,12,-39,-13,-614,-453,263,141,-285,-102,31,-80,-17,-532,109,137,321,-504,-1596,-503,136,418,-792,-2138,406,275,314,202,1042,432229
-829,-150,184,58,-75,-54,-1023,-471,284,162,-421,-262,283,-159,-144,-898,279,322,784,-814,-2699,-710,307,845,-1430,-3950,784,588,695,530,1618,432230
-614,-124,114,80,-32,-29,-724,-328,143,124,-384,-140,79,-183,-123,-735,231,233,674,-581,-2246,-504,294,674,-1076,-3597,610,498,617,459,1099,432231
-254,-83,-12,49,9,1,-271,-193,-40,40,-160,23,10,-30,-41,-365,136,100,360,-194,-1224,-155,200,330,-433,-2421,281,297,370,250,218,432232
194,-33,-112,19,55,39,265,81,-181,-107,269,148,-142,202,87,81,-4,-77,-56,240,100,233,85,-111,346,-758,-130,27,28,-41,-533,432233
250,-10,-93,26,66,64,319,283,-77,-106,237,229,-277,105,108,141,-17,-89,-141,262,398,277,52,-187,415,-453,-199,-36,-74,-117,-484,432234
200,15,-66,25,66,70,279,221,-36,91,235,128,-181,-2,115,105,-26,-75,-143,207,380,251,13,-164,329,-573,-191,-56,-99,-114,-450,432235
163,17,-60,36,64,48,257,166,-104,51,413,157,-8,-7,107,88,-31,-75,-143,172,376,233,6,-157,272,-637,-184,-56,-111,-108,-349,432236
135,13,-72,24,37,20,211,165,-88,163,511,205,-118,-67,71,69,-34,-64,-134,147,362,210,4,-153,239,-666,-181,-71,-118,-106,-294,432237
94,14,-66,21,20,14,135,28,-34,162,440,131,-59,-51,85,49,-9,-23,-77,112,273,173,37,-83,176,-813,-112,-19,-54,-50,-204,432238
7,2,-27,13,5,5,37,24,3,60,198,90,-2,0,90,-30,22,20,2,36,29,96,56,12,17,-1112,-16,37,9,21,18,432239
-31,-29,-15,-15,-2,12,-18,44,95,-95,27,108,-66,34,24,-112,-9,-23,-18,-30,-157,-3,16,2,-82,-1277,-32,8,-3,2,1,432240
97,-13,-38,-14,30,31,131,244,76,77,176,237,55,89,90,13,-46,-60,-140,91,139,56,-17,-112,150,-755,-132,-54,-67,-76,-183,432241
64,9,-41,-3,13,12,137,147,-49,0,63,240,118,103,96,64,22,-7,-74,137,151,90,63,-43,227,-590,-57,25,-2,-21,-131,432242
65,33,-28,20,28,28,112,-7,-56,73,189,185,-112,60,91,61,25,-1,-92,140,82,35,62,-41,229,-457,-44,15,-3,-25,-51,432243
85,10,-31,7,31,35,70,-13,-94,-30,-83,115,-103,-53,38,28,-24,-52,-156,107,-25,-57,5,-88,202,-318,-85,-39,-54,-87,-83,432244
158,14,-57,-26,35,12,196,250,-49,-12,134,166,-66,-30,1,109,-25,-68,-217,183,94,-42,-12,-119,323,87,-107,-59,-87,-121,-163,432245
102,26,-57,-27,0,-18,229,132,-59,-60,127,126,-158,278,30,132,31,1,-129,184,27,-30,41,-24,302,139,-15,27,1,-46,-88,432246
69,19,-58,-14,0,-26,166,92,37,-22,194,132,-148,232,55,95,-6,-24,-145,158,-15,-62,6,-55,254,172,-21,7,-20,-76,-149,432247
120,12,-67,-32,-1,-18,115,226,-60,7,198,90,-147,123,-2,99,-89,-90,-277,157,112,-50,-83,-174,288,391,-142,-113,-139,-173,-329,432248
67,0,-18,-34,10,29,-29,44,-75,15,-130,96,8,75,55,11,-70,-81,-207,55,-39,-86,-70,-129,123,84,-96,-89,-117,-138,-140,432249
115,9,-22,-33,27,47,31,131,-57,41,-147,141,108,55,91,60,-65,-78,-193,94,123,-9,-59,-139,189,118,-126,-96,-116,-127,-186,432250
185,21,-51,-40,24,23,166,244,-38,-65,109,76,108,277,115,148,-82,-91,-259,170,429,106,-99,-212,332,346,-191,-156,-173,-160,-326,432251
119,14,-50,-43,2,8,108,64,-60,-39,-324,0,144,91,54,94,-70,-63,-210,92,352,105,-88,-169,206,54,-158,-138,-158,-132,-210,432252
62,16,-2,-21,22,17,16,262,-20,60,167,-25,146,-133,85,18,-11,-3,-73,23,176,89,-28,-64,66,-374,-76,-46,-70,-50,-72,432253
67,11,-6,-12,15,15,14,86,-51,-154,209,-30,11,-22,42,26,1,-4,-49,25,217,114,-8,-50,74,-448,-79,-37,-57,-35,-32,432254
28,11,-8,-15,0,-2,4,136,-94,-209,-177,-22,58,-96,59,13,38,25,24,14,169,121,37,2,32,-651,-39,18,-11,7,48,432255
47,21,-19,-3,4,3,87,179,-22,-32,132,87,91,37,87,46,38,23,29,44,261,166,26,-14,89,-626,-46,22,-10,15,-23,432256
41,25,-29,3,-6,-11,112,-127,-3,158,10,137,69,-3,24,35,19,0,-2,35,277,151,-3,-37,81,-647,-78,-3,-39,-11,-23,432257
41,20,-38,0,-8,-16,109,-67,-79,-75,-82,69,-10,1,3,55,26,6,-11,46,297,150,9,-30,100,-614,-77,7,-34,-8,-77,432258
382,62,-125,-37,44,37,500,162,-153,-120,439,111,-102,283,139,411,-52,-90,-290,415,1194,422,-51,-319,714,702,-339,-156,-223,-172,-735,432259
649,96,-169,-73,74,60,813,447,-242,-62,612,175,-116,203,73,655,-191,-230,-652,644,1983,558,-202,-646,1154,1961,-630,-404,-504,-414,-1173,432260
722,126,-164,-70,65,61,863,427,-296,39,666,270,72,52,78,724,-272,-283,-802,678,2267,567,-287,-762,1265,2546,-729,-514,-644,-512,-1281,432261
383,84,-79,-69,-2,7,413,256,22,-143,201,15,113,-95,34,419,-160,-153,-549,342,1438,274,-195,-466,688,1595,-449,-341,-451,-355,-574,432262
-36,30,36,-29,-41,-37,-132,-50,62,-117,16,-124,42,-130,57,23,-11,27,-161,-39,201,-89,-64,-44,-35,90,-55,-86,-109,-76,206,432263
-73,16,38,-23,-49,-43,-164,-64,-9,-12,274,-16,-17,40,37,13,14,45,-43,1,-3,-125,-9,32,-60,19,11,-12,-11,-13,230,432264
-79,18,24,-38,-39,-41,-122,90,-11,-30,88,35,4,32,10,25,27,43,-26,36,-80,-136,14,42,-37,88,35,22,24,-11,172,432265
-93,-11,1,-62,-47,-41,-128,-109,0,-52,-56,-81,-105,-54,-3,5,-5,23,-64,26,-141,-168,-16,9,-39,153,11,-10,0,-33,79,432266
-86,-20,12,-51,-28,-11,-165,0,-74,-7,-444,-41,-129,17,-45,-6,-3,11,-57,19,-207,-184,-25,27,-64,120,22,-17,5,-28,119,432267
48,2,-12,-46,-5,2,22,150,-4,-55,-52,-14,-88,-1,-19,85,-46,-51,-132,124,88,-81,-60,-92,133,523,-80,-78,-71,-99,-187,432268
437,61,-132,-56,23,-1,565,253,-188,-25,461,183,-229,73,40,500,-143,-191,-491,520,1256,282,-152,-477,867,2093,-442,-325,-364,-336,-993,432269
839,154,-214,-63,85,42,1042,471,-289,95,497,363,-267,371,147,955,-206,-267,-842,905,2537,691,-219,-819,1588,3771,-771,-541,-654,-537,-1554,432270
757,141,-190,-112,57,31,895,339,-226,-181,492,208,-213,171,50,886,-235,-258,-866,773,2551,641,-286,-814,1441,3721,-762,-563,-702,-552,-1378,432271
354,83,-44,-95,1,24,333,82,-53,-137,125,-28,59,-90,-43,445,-165,-127,-531,284,1512,301,-239,-458,653,2182,-434,-362,-484,-348,-430,432272
-96,22,81,-50,-45,3,-241,-139,174,15,-269,-200,152,-183,-69,-27,-20,59,-59,-186,219,-39,-118,22,-179,232,-5,-63,-105,-23,425,432273
-86,20,81,-24,-33,5,-209,59,42,57,-351,-157,200,-59,-13,-34,9,78,26,-173,112,-11,-81,75,-176,-42,28,1,-13,44,351,432274
-91,13,62,-22,-31,-27,-177,-36,-16,37,-156,-37,49,-146,2,-9,51,104,68,-138,114,42,-22,98,-144,-150,52,49,35,84,356,432275
-129,-3,52,-39,-57,-37,-190,-174,78,-52,-55,-66,-116,4,37,-19,67,99,107,-136,69,40,10,118,-152,-310,64,69,69,101,296,432276
-111,-2,33,-40,-44,-34,-162,-160,24,-120,-30,-100,-30,177,-30,-21,42,64,78,-137,79,22,-18,75,-132,-333,23,36,42,68,198,432277
-86,5,35,-31,-35,-26,-139,-193,78,-52,21,-132,-55,220,-29,-25,41,50,78,-132,71,22,-13,78,-124,-356,19,44,42,59,184,432278
68,14,3,-35,-1,17,40,-38,-99,-170,-66,2,-72,234,57,115,-12,-10,-66,32,432,126,-50,-74,138,192,-128,-47,-51,-34,-143,432279
123,22,-3,-46,17,27,49,10,18,-209,-49,58,-12,118,42,181,-38,-35,-168,92,596,149,-89,-144,233,497,-184,-102,-117,-92,-276,432280
110,20,-4,-69,4,19,-27,-86,-1,28,-134,-24,-31,-165,-88,155,-88,-73,-230,74,591,91,-129,-193,222,609,-230,-156,-178,-138,-330,432281
-48,-25,24,-83,-31,-17,-307,-281,2,32,-60,-159,62,-166,-103,21,-48,-15,-108,-60,194,-49,-87,-47,-25,156,-86,-65,-67,-54,92,432282
-95,-27,30,-77,-40,-30,-370,-169,122,-139,-197,43,-41,-65,32,8,20,51,4,-40,-5,-73,-18,60,-82,-21,32,27,51,42,186,432283
-37,-2,29,-39,-22,-20,-222,-56,80,-231,147,87,-124,205,69,81,36,61,-17,84,100,-20,17,33,40,252,17,21,48,31,83,432284
-83,-8,20,-27,-40,-30,-132,-78,26,-148,-42,-111,-146,113,14,-2,-12,11,-41,24,-74,-128,-35,-2,-73,148,-22,-25,6,-27,58,432285
-30,-2,-5,-2,-26,-32,41,-51,51,-80,-145,-66,97,61,-45,-10,-57,-50,-96,30,-37,-142,-55,-68,-57,276,-92,-95,-55,-90,-12,432286
-22,-2,-5,1,-21,-16,25,-119,92,-69,164,-62,21,-64,-25,6,-25,-24,-92,51,-33,-123,-42,-51,-41,312,-73,-86,-46,-80,23,432287
3,16,22,12,7,17,-7,-140,27,-94,-1,-83,52,-8,-82,55,17,18,-66,85,16,-65,-12,-10,-8,355,-40,-36,3,-35,30,432288
-134,-26,32,-12,-29,-16,-181,-183,-38,-165,-40,-79,156,33,-64,-54,48,78,60,-55,-266,-129,15,118,-220,-100,73,42,94,45,264,432289
-197,-18,54,15,-38,-24,-212,-340,-20,-55,-2,-58,153,164,21,-111,99,137,190,-122,-472,-135,73,234,-335,-505,186,136,193,145,420,432290
-215,-11,66,44,-29,-6,-165,-337,70,-21,-145,-146,147,108,-117,-161,112,127,216,-183,-580,-149,82,239,-396,-775,186,155,211,164,484,432291
-207,-7,70,66,-5,4,-117,60,66,69,-26,-89,94,-92,-56,-205,84,79,204,-234,-603,-153,56,201,-409,-893,139,128,172,132,376,432292
-55,-2,-6,45,-3,-7,61,-27,101,-8,-283,-54,190,-42,-45,-77,-27,-39,34,-108,-165,-43,-43,8,-110,-333,-46,5,9,-3,-43,432293
5,9,-15,28,-8,5,122,-106,-55,-130,-172,-97,415,-12,-6,-24,-62,-59,-54,-70,30,-3,-85,-70,9,-87,-101,-45,-53,-50,-133,432294
1,6,-13,14,-7,-13,102,-239,30,-52,82,-53,308,71,-8,0,-25,-28,-43,-62,83,13,-51,-42,36,-77,-70,-27,-28,-22,-61,432295
-13,3,-7,8,-4,-23,62,-91,18,-49,198,-29,-28,49,-116,-2,39,37,35,-67,36,34,13,38,17,-175,1,49,33,41,114,432296
13,20,-1,33,24,10,76,78,-13,-139,-122,11,-143,34,-62,16,24,32,13,-53,56,46,17,30,42,-141,-16,46,31,41,75,432297
12,2,14,40,28,41,48,221,-9,112,-310,-118,-91,49,-17,-31,-20,-20,-25,-83,19,0,-37,-14,2,-162,-60,6,-12,-11,39,432298
-97,-16,61,49,14,35,-145,13,-59,118,-195,-162,-12,-138,-130,-178,-4,3,79,-224,-350,-145,-29,85,-250,-652,25,43,46,33,315,432299
-311,-57,98,51,-20,6,-400,-186,58,69,-455,-232,92,-257,-93,-385,52,68,270,-431,-962,-319,60,265,-621,-1510,194,155,186,156,659,432300
-329,-74,112,43,-14,16,-354,-19,130,-69,-239,-282,263,-96,-88,-413,88,83,292,-410,-1076,-318,101,282,-652,-1682,198,179,238,182,584,432301
-198,-56,71,34,9,25,-108,143,117,-93,-56,-184,-51,34,-58,-263,87,67,255,-230,-788,-187,118,235,-414,-1313,136,168,226,150,332,432302
61,-7,-39,18,23,21,292,112,0,-6,139,77,-52,78,18,21,11,-24,39,87,-13,48,63,0,78,-258,-82,35,51,5,-197,432303
97,18,-62,15,22,1,317,6,53,-41,100,99,-189,54,85,83,-43,-70,-89,148,215,75,-9,-108,178,125,-171,-57,-50,-84,-257,432304
36,7,-29,23,25,-2,36,-11,-20,-109,34,-5,36,27,49,-7,-61,-83,-128,50,45,-21,-54,-110,10,-75,-165,-89,-78,-106,-114,432305
66,-19,-21,-2,11,24,-52,186,-108,54,-60,-27,115,52,-6,7,-61,-70,-132,76,106,5,-55,-106,22,-5,-142,-89,-77,-92,-98,432306
59,-20,-33,-30,-6,3,34,92,-140,169,179,82,15,153,23,70,-16,-10,-73,139,204,77,-11,-50,92,122,-100,-46,-39,-35,-159,432307
35,-5,-18,2,-8,-13,85,62,-56,11,152,142,133,149,32,85,12,11,-65,149,224,92,4,-28,92,142,-83,-31,-25,-19,-91,432308
11,0,-2,14,-3,-25,80,-51,8,-2,-7,-20,-19,-12,-8,38,0,5,-73,85,148,45,-13,-34,33,40,-91,-42,-29,-37,-27,432309
-2,13,5,43,-1,-7,93,-10,37,-112,131,-68,-129,-68,24,1,-11,-16,-46,23,54,11,-12,-29,-11,-55,-87,-33,-25,-42,-4,432310
7,8,12,47,10,25,36,-14,-7,40,43,15,-47,-124,70,-28,-5,-12,-7,-21,-38,-17,0,7,-65,-161,-47,-9,-14,-23,14,432311
-35,-8,33,44,15,30,-61,-1,-51,173,-46,-38,-90,-174,42,-74,20,23,65,-83,-187,-59,35,78,-145,-368,22,39,43,33,148,432312
-21,-5,7,12,4,17,-16,-67,-157,115,-150,14,-1,-147,-11,-55,3,4,2,-67,-131,-54,6,19,-95,-282,-26,0,9,6,-10,432313
24,7,4,16,16,22,41,-72,-60,85,-58,18,92,-34,-67,-12,-15,-8,-48,-30,-17,-27,-17,-17,-1,-93,-58,-36,-34,-23,-70,432314
51,-3,-7,20,15,23,39,34,12,41,-190,5,51,-44,-139,-9,-35,-39,-53,-26,32,-23,-13,-51,36,24,-92,-53,-54,-52,-115,432315
72,-4,-3,8,11,36,33,204,23,118,-190,-42,-191,-188,-54,-10,-57,-47,-88,-31,66,-31,-32,-84,69,113,-119,-85,-87,-78,-190,432316
32,-2,20,15,17,33,-2,219,-13,102,-45,-148,-20,-23,10,-31,-57,-38,-77,-78,-18,-67,-60,-53,19,15,-78,-73,-70,-44,11,432317
11,-1,18,9,8,4,-5,101,4,-9,104,-54,47,-100,-34,-20,-29,-14,-56,-62,-28,-48,-33,-26,34,-6,-51,-37,-36,-23,74,432318
9,-6,-10,-1,1,0,6,72,17,-1,36,-18,108,-16,-48,-1,-2,-10,-44,-30,1,-13,-6,-26,62,29,-59,-16,-25,-23,-50,432319
3,13,-8,12,-4,-3,-17,244,-107,164,2,-154,105,-42,-27,-6,7,10,11,-31,-29,-7,25,7,35,-27,-34,14,2,-4,-48,432320
-19,7,-8,28,-6,4,-53,156,-47,26,-12,-157,-214,-50,4,-48,14,17,62,-55,-123,-16,26,47,-36,-179,-6,29,25,24,96,432321
3,-5,-24,28,-4,-10,11,-23,-20,131,181,-88,-144,-46,-11,-34,4,17,43,-30,-93,-3,14,25,-39,-181,-11,9,18,21,113,432322
26,0,-14,33,-4,-9,71,-13,-119,275,70,-134,40,-86,-45,11,17,6,36,16,24,40,18,19,2,-101,-36,8,11,11,22,432323
83,16,-25,20,-3,12,112,63,-102,152,-153,-9,117,-101,-15,92,-6,-26,-35,101,257,112,-7,-48,122,147,-118,-43,-41,-33,-141,432324
15,-14,-8,-8,-23,-1,-30,-9,27,-145,-17,-6,-10,-39,-23,59,16,18,21,70,192,105,30,-4,36,-33,-69,-9,-13,4,-12,432325
3,-11,28,-11,-1,22,-87,-9,20,-50,248,-45,-78,-18,-51,18,8,13,4,49,126,82,20,-10,-32,-158,-60,-25,-12,1,-1,432326
26,2,33,16,12,44,-3,-51,-177,-9,231,-57,4,-59,-35,-20,-26,-8,-55,4,81,41,-16,-56,-84,-237,-98,-67,-44,-39,15,432327
68,24,7,36,23,52,133,-122,-110,-37,114,-42,-59,-157,-40,39,3,2,-30,59,161,78,-1,-38,-19,-143,-90,-41,-24,-14,-44,432328
136,36,-27,37,22,31,242,134,-7,74,281,55,-82,-90,-26,132,-2,-9,-59,147,380,146,-1,-70,144,198,-137,-53,-59,-42,-155,432329
13,6,-14,17,-3,-4,56,21,0,-3,160,-47,90,-85,-36,18,-10,5,-17,21,116,36,-8,-15,-29,-81,-61,-29,-30,-24,-52,432330
-27,-4,2,4,-5,-3,-57,55,-83,71,-75,-56,58,19,-34,-17,-15,2,0,-21,26,3,1,4,-66,-115,-45,-13,-25,-13,-24,432331
-49,-8,9,-3,-23,-18,-57,-125,-65,24,12,-8,2,67,1,9,23,31,46,0,4,2,33,49,-36,-65,2,26,25,26,25,432332
-31,-5,-7,-11,-34,-24,2,-39,13,-158,22,51,-43,195,-24,61,47,52,45,39,52,36,52,54,33,80,22,43,45,38,95,432333
23,2,3,-16,-2,5,15,-46,49,-223,-121,76,-82,53,41,50,33,36,13,41,59,32,43,32,43,145,-3,25,27,24,49,432334
-1,-8,6,-13,-10,1,-10,-41,-2,-287,20,18,-76,116,-19,5,-5,10,-14,-10,-38,-27,-12,18,-23,102,-8,-12,4,2,43,432335
-26,2,3,-10,-13,-1,-30,-166,-134,-164,-59,10,-60,218,10,-18,-29,-10,-36,-31,-78,-56,-36,0,-43,120,-13,-31,-19,-12,-6,432336
-12,-14,-3,-15,-15,18,-52,-2,-115,-315,-120,-99,-104,63,8,-28,-45,-32,-50,-31,-58,-57,-27,-26,-36,178,-48,-53,-42,-40,-80,432337
-6,-17,-3,-15,-1,12,-76,-12,46,-175,32,-110,-56,17,-31,-42,-43,-29,-52,-55,-90,-61,-24,-29,-62,157,-44,-64,-52,-40,-52,432338
46,5,0,10,3,10,-13,154,120,-54,41,-40,102,-58,-36,-15,-55,-53,-99,-21,29,-27,-41,-78,15,311,-81,-86,-84,-65,-147,432339
109,31,-10,31,11,13,116,4,71,84,114,12,-26,166,55,77,-42,-43,-108,67,228,60,-33,-87,146,556,-94,-80,-86,-60,-225,432340
118,20,-24,8,6,8,170,52,-56,132,151,74,-142,-46,95,114,-29,-26,-81,101,297,101,-26,-77,181,610,-81,-69,-76,-54,-123,432341
82,5,-15,-7,0,5,114,-50,-135,119,172,13,-58,-235,57,48,-55,-43,-69,34,210,53,-53,-80,80,412,-99,-78,-98,-63,-54,432342
8,6,12,16,4,4,39,-45,-14,9,49,-48,27,-351,-40,-36,-10,5,40,-56,-8,2,-14,12,-88,-21,-15,-10,-26,-5,0,432343
91,27,-8,32,29,23,147,123,90,10,99,13,88,-186,6,55,1,13,14,34,173,89,5,-4,30,60,-35,-9,-29,9,-126,432344
93,17,5,20,21,36,117,-61,32,56,124,-77,68,-121,-10,82,9,20,0,45,235,115,-9,-3,38,0,-38,-8,-25,26,-21,432345
56,24,23,23,15,29,8,15,25,33,230,17,30,-86,56,71,18,26,8,22,200,114,-19,3,3,-167,-29,0,-15,33,11,432346
49,22,-3,-1,-3,-9,1,-113,34,-20,78,26,210,-34,34,57,-26,-19,-46,8,230,99,-56,-51,9,-176,-80,-45,-51,-4,-54,432347
33,7,-27,-15,-13,-31,43,-212,-74,-11,3,60,127,39,50,67,-39,-21,-59,15,250,96,-70,-56,19,-142,-83,-53,-62,-17,-100,432348
53,28,-2,15,17,1,55,-44,48,-10,-3,-43,28,-86,32,46,-31,-18,-23,16,196,72,-63,-37,-5,-130,-44,-30,-46,-8,-126,432349
101,7,-12,-29,11,23,54,83,17,-20,-11,-82,-14,-192,-92,37,-124,-114,-145,17,286,28,-131,-161,31,156,-162,-131,-152,-118,-297,432350
111,-11,-12,-65,-7,5,13,347,-26,61,-38,-18,83,-152,-32,72,-100,-90,-145,44,316,48,-102,-144,78,338,-145,-117,-140,-115,-265,432351
51,-8,0,-64,-16,-19,-37,26,123,-54,100,17,201,-26,15,45,-48,-34,-74,20,199,2,-50,-65,8,323,-64,-69,-79,-61,-168,432352
6,6,36,-34,5,-3,-71,84,33,43,116,81,120,-50,73,-7,8,7,7,-25,17,-47,32,3,-105,179,9,-18,-15,-5,-1,432353
-18,-2,20,-22,3,-2,-70,314,104,108,115,73,-144,-63,95,-10,2,-7,-3,-24,-11,-45,26,-7,-128,231,10,-33,-18,-15,-11,432354
-44,-22,7,-30,-17,-8,-88,90,87,-39,225,60,-105,11,24,-45,-15,-10,-6,-49,-104,-81,-10,-2,-172,217,11,-40,-14,-20,15,432355
-26,1,23,-7,7,13,-78,119,-18,41,237,-51,174,-3,48,-17,6,18,25,-29,-103,-56,9,26,-147,279,38,-10,11,3,43,432356
-22,-1,33,-8,2,11,-81,-89,65,239,296,36,127,-150,67,-19,40,34,78,-3,-114,-31,57,56,-138,294,70,29,42,21,29,432357
-38,-13,25,-17,-6,7,-77,-240,6,6,26,143,105,-95,26,-48,7,7,49,-22,-140,-55,18,29,-165,279,43,-6,23,1,-50,432358
10,-4,6,-11,3,11,-10,-100,-47,24,-23,41,-63,-11,6,1,-19,-12,-28,17,-17,-22,-20,-20,-77,427,9,-48,-22,-28,-91,432359
94,14,-10,-10,5,13,107,183,-106,44,94,71,-156,-10,2,93,-12,-15,-68,110,218,69,-20,-63,93,700,-39,-61,-45,-41,-134,432360
183,53,-21,9,19,16,248,95,56,-134,55,186,-93,122,86,203,-1,1,-98,187,478,164,-14,-88,248,978,-55,-66,-68,-52,-230,432361
103,47,-9,18,4,17,179,136,86,-145,-214,196,128,13,70,108,-21,-12,-61,83,310,89,-41,-69,93,670,-27,-62,-82,-43,-168,432362
-29,16,47,32,2,17,3,8,48,161,-76,-112,62,-42,-44,-57,-16,15,39,-98,-81,-34,-24,15,-181,10,47,-18,-31,8,134,432363
23,9,8,9,4,14,77,30,-90,211,-181,-126,34,-65,-64,-9,-15,-7,28,-59,50,19,-10,-14,-94,-19,-7,-22,-49,5,-50,432364
43,19,4,6,0,18,120,122,-44,146,-162,-10,-25,73,-43,66,39,40,77,4,182,88,49,25,-16,-40,24,30,-8,45,-23,432365
45,15,2,-2,-1,4,69,-50,-8,-14,-86,-34,-94,43,26,83,40,38,81,20,229,105,47,12,13,-93,10,31,-27,39,-121,432366
66,23,16,0,4,8,27,69,104,8,-36,-32,40,-14,39,86,1,3,49,9,253,93,4,-22,9,-136,-25,18,-65,7,-148,432367
93,28,5,-14,7,10,68,245,63,112,-98,-9,-80,36,92,88,-21,-14,9,20,317,92,-25,-57,45,-46,-52,-18,-98,-16,-151,432368
124,27,-18,-17,14,14,132,185,15,50,38,4,-35,118,121,118,-32,-39,-47,66,400,97,-23,-104,108,159,-79,-58,-127,-45,-228,432369
307,43,-63,-33,37,33,327,151,34,91,146,151,-39,113,115,288,-107,-135,-256,251,914,212,-104,-307,430,1028,-264,-205,-283,-199,-589,432370
295,55,-52,-47,21,25,291,127,-35,89,59,169,-140,240,111,305,-100,-120,-261,257,971,219,-110,-293,447,1274,-248,-206,-275,-203,-520,432371
121,15,-12,-73,-16,-8,69,-61,10,-105,10,46,-192,145,0,168,-56,-41,-157,110,561,98,-95,-148,168,894,-93,-128,-163,-115,-214,432372
-73,-4,59,-34,-13,-12,-137,-148,128,44,-225,-35,-194,-71,13,-13,47,80,73,-42,-22,-31,-9,95,-166,216,133,32,43,62,144,432373
-114,-10,29,-20,-38,-37,-156,-45,111,264,-258,-84,-261,-39,-46,-58,14,34,57,-77,-134,-73,-28,63,-214,189,101,11,30,27,209,432374
-95,14,37,3,-18,-13,-145,-138,-22,238,-77,-122,-92,-60,-34,-60,18,35,65,-64,-180,-67,-12,89,-218,215,110,41,57,34,183,432375
-67,17,50,21,0,4,-115,-306,-1,78,41,-80,52,-142,6,-49,11,21,45,-54,-176,-69,-37,88,-209,290,101,22,58,31,155,432376
-81,-13,20,4,-22,-16,-115,-317,95,-9,-45,-27,28,23,-53,-55,30,37,78,-47,-202,-57,-23,88,-207,299,117,15,71,40,111,432377
-77,-9,14,-14,-31,-23,-105,-187,81,-92,-135,18,-67,35,13,-23,38,63,103,-12,-165,-22,3,112,-159,374,136,39,92,65,118,432378
126,27,-30,-11,2,2,155,45,-18,-79,93,88,7,151,86,178,-18,-18,-65,186,376,144,-45,-60,205,1104,-32,-55,-31,-45,-297,432379
228,43,-53,-33,22,15,280,119,-97,-89,293,58,208,180,34,278,-61,-66,-195,267,701,215,-92,-188,375,1551,-144,-146,-142,-139,-406,432380
219,51,-56,-43,10,-2,275,-16,-43,-32,263,88,61,146,-35,313,-46,-55,-176,275,788,231,-63,-177,375,1609,-124,-138,-158,-124,-397,432381
117,47,-14,-15,2,16,103,-19,12,-10,96,-25,60,298,-67,190,-28,-22,-72,137,533,133,-51,-95,155,1158,-37,-93,-124,-69,-237,432382
-21,18,47,-5,-2,26,-106,-22,99,-118,-139,-171,-17,186,25,16,13,32,81,-43,89,-9,-6,40,-147,387,84,-1,-32,22,86,432383
-16,8,46,-4,8,33,-77,-21,0,-192,12,-135,52,-101,-9,-2,14,26,96,-65,58,-11,9,26,-169,125,75,3,-43,41,-7,432384
-12,11,38,-9,-4,27,-5,-201,16,-43,-145,-110,44,-31,-49,11,-2,15,94,-70,106,6,-1,21,-145,-10,54,10,-49,35,-59,432385
-47,9,28,-18,-10,-3,-45,-258,25,-12,-302,3,-109,147,0,5,35,49,173,-77,21,4,37,98,-162,-288,103,85,26,84,79,432386
-68,-11,25,-27,-23,-20,-138,-56,132,-31,-227,-80,30,33,8,-5,63,62,196,-83,-19,-4,47,113,-176,-449,130,100,44,108,176,432387
-23,-7,19,-31,-10,-17,-183,114,37,4,-116,-49,54,-59,8,38,76,74,167,-37,62,37,86,97,-87,-383,112,102,53,102,74,432388
159,26,-45,-53,0,-8,-40,230,-135,-175,184,125,102,66,32,239,33,-1,-20,182,576,200,55,-80,272,422,-48,-5,-69,-9,-368,432389
223,25,-70,-102,-16,-21,2,181,-135,-215,269,180,-118,288,66,338,-17,-45,-173,277,886,258,-18,-207,443,1006,-151,-109,-189,-107,-517,432390
163,17,-43,-98,-13,-9,68,-111,22,-66,258,84,-82,211,93,286,-45,-51,-204,219,798,183,-71,-209,355,1089,-137,-145,-200,-126,-381,432391
66,10,-7,-57,-6,19,142,13,7,-130,34,-135,39,50,25,95,-92,-88,-184,38,423,27,-117,-177,91,793,-111,-160,-192,-147,-95,432392
-89,19,54,20,-3,14,-10,-206,24,-65,-109,-227,2,-88,-66,-122,-39,-23,11,-162,-176,-138,-66,21,-262,137,56,-32,-28,-33,245,432393
-107,12,31,25,-13,-8,-44,-178,47,-76,-178,-186,-32,-96,-128,-103,8,18,66,-133,-234,-114,-8,71,-255,153,99,18,43,25,245,432394
-150,-6,33,19,-27,-22,-139,-259,-1,-5,-379,-185,-25,-133,-57,-152,11,18,82,-167,-344,-145,-4,88,-310,81,118,24,50,36,218,432395
-96,9,50,26,1,-6,-63,-313,-1,64,-180,-154,228,-71,-106,-94,30,30,104,-102,-272,-89,11,103,-241,250,132,39,79,49,191,432396
-82,2,36,6,-6,1,-8,-189,-34,49,-74,-54,205,-55,-97,-48,42,37,102,-46,-201,-56,30,101,-184,403,141,47,97,57,141,432397
-110,-12,39,-8,-12,11,-35,-124,-18,56,-61,-25,23,43,15,-69,41,31,124,-67,-240,-77,37,106,-221,356,147,54,90,55,203,432398
-61,3,24,16,1,6,7,-68,3,19,60,19,-86,-11,-9,-44,37,17,129,-48,-159,-50,45,93,-167,445,120,43,78,47,62,432399
-22,28,-8,38,6,2,51,-203,12,-126,140,139,-12,171,-6,-5,25,7,88,-6,-46,-18,31,50,-101,546,87,20,44,29,17,432400
-18,7,-9,12,1,2,39,-231,-122,-112,-106,48,-39,64,-16,-10,9,-8,48,-19,-30,-29,9,17,-103,490,58,-1,12,-5,29,432401
-67,-7,28,-5,-2,15,-42,-142,-85,-77,-156,-47,71,44,-83,-59,1,-4,72,-75,-148,-71,-14,61,-193,217,79,12,30,12,-7,432402
-42,-3,28,-12,1,21,4,26,59,-360,-62,9,142,159,-54,-28,-6,1,90,-51,-91,-39,-26,70,-146,123,83,45,41,50,-45,432403
-42,1,13,-11,-3,7,70,-28,-3,-65,29,47,76,176,-30,6,11,28,102,-25,-21,11,-20,74,-99,25,96,61,40,70,22,432404
1,12,-32,0,0,-22,109,26,-43,86,-74,4,-117,58,-29,51,1,15,32,2,109,34,-15,12,-33,24,46,16,-21,29,-51,432405
22,32,-34,42,15,-26,80,61,16,60,-181,-18,0,-153,26,46,5,14,12,-19,86,14,-2,13,-66,-156,38,6,-20,31,-11,432406
12,22,-23,28,-5,-26,123,186,-23,148,-55,44,-143,-24,65,49,-1,10,42,3,108,17,-19,22,-50,-200,30,17,-13,38,-136,432407
121,33,-14,20,11,11,250,219,-22,121,151,17,110,122,22,121,-34,-27,-6,80,343,79,-25,-60,89,110,-36,-15,-80,-7,-241,432408
-89,-3,42,20,-10,13,5,-170,-44,-41,-249,-152,149,-93,-92,-104,-12,11,109,-156,-220,-114,-9,74,-310,-587,105,55,12,58,219,432409
-135,-10,57,35,-7,15,-31,-212,35,7,-258,-120,176,-169,-105,-184,-2,20,148,-211,-449,-164,-5,127,-406,-782,146,69,63,78,278,432410
-123,-1,73,49,15,20,-118,-149,133,-9,122,-49,181,-228,-92,-229,18,26,164,-228,-574,-194,11,144,-446,-848,168,73,100,87,294,432411
-120,-1,63,49,9,8,-247,89,106,-10,-4,-87,37,6,-69,-205,50,62,185,-197,-592,-161,46,180,-407,-776,206,110,149,124,426,432412
-46,-14,17,14,2,1,-180,-18,77,-63,140,-60,-62,224,32,-72,41,37,116,-50,-273,-35,36,107,-150,-219,142,74,117,78,152,432413
-17,-24,-15,-26,-2,-3,-99,-323,53,11,220,54,75,238,14,2,10,-4,28,22,-49,20,5,27,10,208,74,14,51,8,-64,432414
-42,-11,10,2,8,10,-104,144,246,214,-92,-33,-49,-27,44,-32,46,19,71,-26,-143,7,41,76,-59,137,126,49,80,37,79,432415
-31,-22,-10,21,-11,-18,-59,249,164,141,-234,-8,-35,14,-31,-51,37,0,40,-32,-152,-4,40,47,-76,207,94,19,66,2,25,432416
-42,-13,-8,14,-24,-40,-28,78,-42,124,-170,23,16,148,-23,-41,41,18,46,-23,-138,6,31,50,-58,267,100,16,64,15,103,432417
-52,3,8,25,-4,-28,-25,143,-29,199,-62,77,102,79,-19,-48,41,16,64,-33,-166,-8,25,62,-80,243,101,30,71,24,81,432418
-185,-22,61,34,-3,-13,-256,-115,81,99,-120,-52,77,-228,-58,-234,21,22,156,-230,-602,-174,10,149,-409,-383,179,59,110,62,350,432419
-457,-95,122,44,-31,-33,-621,-327,173,-155,-415,-178,34,-422,-104,-555,66,94,405,-529,-1426,-423,57,385,-937,-1614,389,201,273,211,821,432420
-430,-82,127,79,-18,-23,-544,-123,171,-16,-237,-84,237,-265,0,-508,131,138,485,-465,-1447,-375,135,449,-870,-1776,448,292,361,295,723,432421
-327,-63,75,86,-14,-23,-353,-52,151,-19,78,17,-28,-81,23,-360,159,139,437,-307,-1167,-241,179,388,-625,-1511,392,285,352,275,538,432422
18,-17,-32,55,30,2,48,154,41,105,66,231,-125,217,83,-19,55,11,123,44,-237,37,89,61,-24,-338,71,83,103,69,-68,432423
112,-10,-61,22,24,-1,123,188,-58,115,171,113,-228,185,38,59,-10,-45,-17,97,86,76,11,-70,124,7,-49,-6,-26,-33,-242,432424
108,-4,-54,12,23,-3,129,142,-114,-29,302,8,-77,-5,131,58,-27,-35,-14,77,100,47,-7,-51,92,-54,-29,-1,-42,-27,-244,432425
106,1,-34,1,25,9,182,76,-166,-16,118,-4,11,100,46,50,-34,-43,-35,73,129,41,-20,-61,90,-50,-34,-7,-63,-29,-198,432426
119,2,-28,6,42,31,160,116,-13,21,133,68,-111,-91,-23,38,-24,-41,-45,63,116,29,-1,-65,65,-80,-44,-22,-81,-45,-163,432427
123,15,-15,15,51,46,167,102,92,-86,94,13,-85,-59,-37,40,-39,-46,-47,54,141,26,-9,-78,66,-55,-61,-37,-89,-51,-159,432428
-126,-26,47,22,2,8,-81,-246,53,113,-145,-51,-104,-84,-84,-190,17,39,129,-196,-476,-159,34,142,-334,-900,131,90,63,78,339,432429
-263,-36,59,66,-12,-30,-176,-362,17,-52,-201,-133,-123,-233,-68,-285,121,133,316,-271,-882,-220,124,328,-518,-1450,314,228,244,220,617,432430
-260,-33,32,90,-14,-44,-189,-201,51,-192,-163,-88,-68,-189,-75,-269,130,135,333,-221,-885,-178,143,325,-469,-1430,318,238,269,228,510,432431
-195,-25,17,77,-9,-33,-251,-16,-79,56,-242,98,-89,-74,-50,-207,115,95,275,-147,-721,-104,132,258,-334,-1184,255,199,231,179,356,432432
-35,-8,-35,49,5,-19,-115,113,-43,-31,56,99,-6,143,-27,-29,63,25,112,39,-246,49,71,99,0,-473,111,96,106,73,12,432433
44,9,-22,25,20,-4,-16,88,-74,-137,268,162,99,194,56,68,59,29,51,123,7,101,72,49,151,-97,68,65,51,35,-80,432434
24,2,1,6,14,1,20,82,10,-44,323,215,192,109,128,47,73,41,75,98,-25,82,93,66,104,-122,102,81,72,51,19,432435
19,-4,-9,11,9,-2,68,188,65,-88,-146,159,-146,110,83,-1,22,-14,7,63,-44,44,52,1,74,-105,49,11,11,-8,60,432436
29,9,-14,31,25,11,33,216,22,-37,-148,10,-188,-31,56,-36,-43,-76,-78,16,-48,-10,-14,-64,35,-78,-30,-61,-53,-66,-57,432437
30,9,-10,23,21,17,-32,188,-78,64,-222,-92,-29,38,-30,-28,-13,-49,-28,8,-58,-14,25,-37,31,-96,-11,-22,-42,-51,-65,432438
88,3,-20,-11,14,18,45,185,-71,93,-29,-40,-43,75,-3,84,1,-41,-48,123,181,89,49,-73,193,224,-45,-29,-61,-60,-186,432439
67,1,8,-17,26,31,61,-38,-97,195,65,85,65,34,51,82,-6,-18,-35,109,178,87,16,-43,158,223,-14,-13,-35,-45,-130,432440
36,2,-24,-15,4,-10,97,59,-103,231,32,-19,86,105,17,37,-52,-49,-52,66,135,46,-43,-70,114,166,-33,-37,-57,-65,-110,432441
35,-4,-46,-6,-5,-49,121,-4,-96,55,98,-37,58,21,37,33,-37,-37,-102,54,132,44,-50,-68,101,162,-45,-59,-79,-50,-55,432442
21,1,-32,-4,-4,-34,55,-127,-145,65,-43,-29,81,-40,-44,21,0,2,-85,26,64,27,-26,-16,36,51,0,-38,-42,-16,-55,432443
93,18,-14,19,31,7,92,-162,16,-189,118,57,156,-58,41,81,-4,-9,-45,82,198,99,-7,-25,133,229,-13,-7,-22,-20,-82,432444
98,23,-3,14,37,17,96,-131,88,-166,224,167,82,-78,21,65,-29,-23,-32,67,213,99,-36,-26,129,253,-20,-11,-36,-21,-81,432445
17,7,0,8,10,21,63,89,-18,-6,174,110,190,-38,-88,-23,-55,-31,-28,-25,53,14,-63,-28,-3,66,-13,-28,-48,-18,-13,432446
13,17,11,19,31,33,49,52,-124,-168,13,-2,-14,75,-104,-66,-71,-58,-44,-68,-11,-23,-56,-44,-61,-8,-39,-63,-67,-43,-47,432447
-11,-7,-12,8,1,6,72,-49,-111,-86,30,-29,-52,28,-27,-77,-89,-94,-79,-83,-27,-40,-86,-67,-70,-9,-67,-94,-95,-78,-95,432448
152,30,-26,10,31,30,292,84,-5,-78,55,25,-76,-34,46,105,-82,-81,-159,108,378,105,-94,-152,220,552,-132,-127,-133,-102,-347,432449
157,36,-38,6,22,8,318,185,-37,-103,165,82,5,-91,45,146,-45,-48,-145,142,430,133,-52,-129,254,631,-113,-100,-108,-72,-300,432450
124,41,-41,23,17,6,261,229,-73,-32,54,25,66,-83,-5,149,-8,-13,-97,147,374,132,-1,-81,237,563,-68,-42,-75,-46,-160,432451
59,43,-18,22,10,5,126,-16,-60,151,264,60,3,-153,-10,97,27,15,-35,90,206,65,37,-8,127,309,-9,3,-33,-12,40,432452
-28,5,-3,-9,-21,-9,-18,58,-20,51,-25,7,80,-174,-9,-19,-6,-7,8,-20,-56,-34,12,23,-39,-58,27,4,-10,-7,88,432453
1,7,25,8,8,15,11,192,-73,33,49,1,178,-151,5,-23,-14,-17,34,-11,-92,-57,-4,24,-52,-150,29,10,-7,-6,26,432454
-48,-8,10,-6,-17,-1,-17,-35,-76,33,-5,78,133,56,-24,-56,-28,-13,55,-23,-162,-91,-6,23,-97,-269,32,6,-5,1,77,432455
-49,-15,-11,-22,-29,-16,-68,5,87,87,-5,51,-61,30,-10,-30,-9,-9,63,-5,-134,-65,12,10,-72,-276,31,12,8,12,46,432456
-1,-7,-12,-12,-2,-21,-39,56,75,51,-16,34,-12,-63,82,-6,-19,-27,19,14,-65,-47,6,-13,-28,-199,8,-15,-29,-22,-13,432457
26,4,-1,20,16,-5,2,18,52,-6,110,69,38,-89,45,-4,-18,-27,10,21,-53,-49,5,-21,-11,-211,4,-25,-37,-28,-66,432458
99,16,-23,12,19,-1,145,9,1,-35,13,185,-94,103,31,105,-9,-17,-24,133,195,47,13,-67,159,108,-39,-27,-48,-31,-145,432459
243,48,-45,-9,27,11,315,180,45,55,118,144,-77,175,40,282,-24,-37,-143,291,645,205,-3,-172,432,741,-130,-85,-122,-91,-401,432460
241,48,-54,-32,22,19,249,105,37,46,148,-35,-119,296,32,272,-73,-78,-227,268,734,194,-76,-242,457,931,-192,-145,-193,-155,-548,432461
171,31,-30,-44,18,12,129,70,6,48,29,34,-39,21,54,188,-68,-67,-207,167,582,139,-85,-196,331,779,-156,-127,-169,-135,-297,432462
-62,-6,0,-40,-33,-28,-149,12,15,-95,-181,-21,-10,-218,-58,-47,-41,-26,-58,-90,19,-44,-70,-35,-49,61,-10,-54,-55,-47,89,432463
-11,7,-6,-26,-31,-34,-70,-20,-38,-46,-102,-8,-46,72,-18,-8,-38,-28,-86,-34,117,15,-69,-40,31,229,-26,-77,-41,-48,26,432464
15,12,3,-23,-9,-28,-28,153,-42,82,-31,61,87,22,7,27,-8,7,-72,-1,173,79,-31,-26,75,383,-19,-55,-23,-22,20,432465
19,15,17,-6,-7,-13,3,179,17,30,260,66,90,-46,-14,38,20,28,11,4,175,107,10,16,83,434,15,-5,18,10,1,432466
32,15,1,-10,-10,-21,26,-41,-55,-63,76,-33,135,75,-29,25,-17,-10,-27,-3,200,94,-31,-13,100,519,-6,-34,-14,-16,-84,432467
77,21,-8,-13,-1,-15,86,-41,-135,38,9,83,-145,42,-19,56,-48,-41,-116,33,307,115,-113,-82,166,710,-62,-93,-76,-59,-185,432468
56,3,9,-16,-1,8,60,15,37,63,65,0,-140,-12,-3,37,-56,-31,-121,3,233,88,-142,-72,117,601,-57,-79,-62,-51,-88,432469
147,27,5,4,40,48,187,171,-2,197,19,19,164,-49,32,144,-35,-32,-128,121,438,157,-114,-100,269,824,-87,-64,-55,-50,-238,432470
120,32,-23,-9,8,15,152,169,-138,158,-8,59,-3,2,-33,138,-49,-42,-146,118,428,126,-134,-110,257,789,-110,-73,-80,-79,-236,432471
58,28,3,-11,7,4,45,79,-12,-69,66,43,78,36,-65,99,-30,-9,-90,79,271,56,-110,-51,155,519,-43,-41,-36,-31,-109,432472
-21,-5,18,-25,-20,-17,-62,-69,-6,38,79,38,119,-57,-74,7,-40,-1,-50,-8,31,-51,-103,-13,-20,107,-7,-24,-20,-10,-41,432473
-4,-12,15,-16,-24,-10,-30,17,27,-7,37,-40,-16,-64,17,-17,-57,-32,-53,-15,-10,-80,-83,-40,-49,2,-25,-56,-47,-30,-11,432474
16,14,31,-6,1,5,-9,-17,-47,4,288,-45,84,200,84,24,-5,9,8,32,-9,-58,2,-10,-28,-42,14,-10,-9,-3,10,432475
-39,2,42,-26,-6,4,-118,-55,59,-50,344,16,122,44,84,3,31,50,74,4,-132,-86,69,60,-89,-281,56,39,45,41,112,432476
-22,-8,34,-11,2,-1,-116,89,105,-95,124,61,129,52,-28,-10,16,25,72,-6,-137,-81,46,52,-81,-352,51,46,39,36,8,432477
-2,14,30,21,16,12,-62,25,70,34,115,-85,29,23,-41,-12,8,28,58,-5,-138,-67,22,46,-84,-385,62,33,46,45,67,432478
18,22,17,4,8,-2,9,57,26,20,-35,-58,-7,-5,-37,38,18,40,24,46,-27,-26,13,31,-18,-250,46,19,35,43,103,432479
-12,-16,14,-26,-25,-21,-35,21,20,-51,-31,-166,-223,-55,-24,40,53,55,43,31,-37,-22,56,47,-29,-268,41,40,47,36,78,432480
15,-2,30,-16,2,3,-47,76,48,-106,44,-12,-167,88,-28,62,49,45,15,57,41,20,53,12,36,-136,10,27,37,26,39,432481
-24,-3,25,-21,1,5,-86,35,79,29,37,12,-94,184,-12,32,41,46,28,23,-11,1,34,26,2,-160,33,38,54,39,186,432482
-42,-3,20,-12,-10,0,-62,-54,5,139,310,9,-73,-9,62,26,34,29,12,18,14,24,28,25,24,-29,36,10,51,25,155,432483
31,12,8,4,3,6,-19,8,-33,-64,40,42,45,20,57,51,-3,-18,-73,57,167,69,6,-55,121,309,-48,-53,-12,-35,-107,432484
17,9,36,2,6,24,-58,-57,9,-31,38,65,-11,66,4,14,8,-16,-64,13,125,74,9,-41,104,361,-42,-42,2,-32,-25,432485
13,-15,20,-47,-11,14,-50,-9,130,16,-20,-40,25,102,-68,16,-1,-22,-65,12,154,89,-15,-41,128,496,-40,-47,-5,-41,-46,432486
34,-2,6,-48,2,15,-61,-38,30,-67,-160,-87,13,100,-17,32,-10,-13,-49,15,174,93,-14,-37,143,600,-26,-36,-3,-27,-35,432487
7,-6,-8,-35,-7,-5,-82,0,30,-65,-158,16,-131,167,2,36,19,13,10,16,132,79,46,-9,120,567,6,-11,19,-8,68,432488
-73,0,19,-15,-17,-19,-177,177,66,-19,-115,1,63,196,8,-24,77,68,126,-45,-61,15,122,78,-5,246,86,58,91,47,234,432489
-109,-8,16,2,-25,-38,-199,98,-71,72,-113,28,56,192,-29,-45,82,76,144,-56,-161,-25,117,115,-53,9,104,92,127,79,228,432490
-84,-11,-7,-7,-32,-37,-97,-103,-20,-27,-103,-7,-181,183,61,-6,53,44,96,-9,-83,-24,86,73,-4,36,65,82,86,53,106,432491
-64,-21,-3,-14,-28,-17,-15,-136,-27,-35,-12,-77,-99,-15,23,-25,16,17,54,-19,-80,-57,44,32,-37,-25,27,34,27,17,-35,432492
-61,-5,9,10,-4,-10,12,-67,-53,-29,114,-5,-130,-133,-25,-29,53,33,100,-32,-153,-85,66,51,-95,-238,49,56,62,45,66,432493
-10,18,20,29,7,4,85,123,20,3,43,12,-63,-137,19,23,48,44,69,13,-47,-31,71,25,-33,-179,25,53,57,42,74,432494
-4,8,14,17,9,1,23,-23,-46,-62,105,-54,-12,-97,-34,15,5,8,8,15,-39,-45,20,-5,-43,-211,-19,21,21,8,-9,432495
-16,-3,5,-23,3,6,-78,-83,-88,-122,145,-1,1,-41,73,7,-17,-4,-2,7,-31,-75,-19,-18,-28,-243,-29,13,-4,-3,-35,432496
-55,-2,8,-30,-14,-4,-122,-73,-19,-124,238,-16,-44,48,32,24,24,46,61,19,-53,-50,26,46,-36,-317,42,74,41,55,78,432497
-68,-3,-14,-42,-41,-40,-166,3,-19,-200,336,68,-289,22,-6,81,67,84,70,67,6,15,77,80,20,-271,81,100,97,91,166,432498
27,1,-53,-53,-35,-45,-75,146,-42,-206,139,180,-120,273,120,204,88,85,42,206,295,149,108,32,250,124,41,102,84,77,-49,432499
109,8,-74,-78,-13,-21,4,274,-61,-206,56,234,21,248,97,270,47,31,-67,273,561,203,54,-76,409,553,-62,22,-5,-2,-183,432500
152,7,-17,-88,29,48,33,0,-44,-249,-111,62,135,74,9,209,-15,-17,-146,199,520,135,1,-135,313,575,-126,-57,-87,-73,-198,432501
138,10,6,-66,37,65,121,112,-90,-203,-225,19,91,-25,-53,128,-33,-32,-115,116,378,74,-15,-130,189,450,-112,-71,-94,-90,-159,432502
2,2,9,-23,2,11,26,-35,-126,-165,-101,-114,162,-75,-83,-27,-50,-38,-61,-32,57,-35,-44,-71,-18,101,-51,-63,-57,-73,-61,432503
-24,11,25,19,8,3,21,130,-23,-64,-140,-152,135,22,-77,-41,-31,-28,-47,-34,-4,-28,-30,-52,-26,98,-32,-54,-23,-40,-10,432504
7,7,28,23,8,13,55,40,2,72,-138,-40,-63,82,-39,-3,-18,-17,-66,4,72,15,-19,-65,39,265,-43,-72,-21,-45,25,432505
-28,6,38,25,2,14,-17,-179,79,59,-223,-1,-81,-130,-20,-27,13,15,-27,-17,-26,3,17,-7,-5,174,11,-27,28,-14,55,432506
-45,-10,23,8,-6,10,-30,-156,50,-71,-138,-41,126,-66,0,-12,18,20,-36,-9,-15,11,13,-12,25,211,13,-8,47,-16,7,432507
-18,1,25,14,9,22,-43,30,-49,-85,-7,-39,186,-109,-20,6,14,3,-38,11,16,7,13,-8,49,258,6,1,56,-21,8,432508
165,27,-46,-5,32,13,194,332,-128,-100,-27,66,254,-8,26,179,-75,-95,-222,188,514,131,-52,-204,376,958,-179,-125,-93,-145,-406,432509
282,56,-65,-16,32,7,325,324,-127,-57,151,102,95,260,70,284,-113,-121,-309,274,837,207,-91,-312,530,1414,-270,-199,-205,-211,-502,432510
269,65,-32,-21,31,19,321,117,-53,-59,226,42,99,194,78,268,-96,-98,-279,240,833,179,-75,-289,456,1378,-240,-200,-212,-194,-391,432511
156,39,-12,-21,17,3,236,120,18,-145,169,-34,142,33,43,183,-76,-52,-202,138,598,100,-52,-207,261,1014,-169,-152,-157,-135,-238,432512
-31,16,31,4,-4,-20,38,-77,32,-35,-32,-144,-1,18,-30,10,8,51,-11,-49,77,-45,-3,-2,-80,238,18,-7,-2,3,187,432513
-33,-1,17,-4,-13,-30,14,-329,9,-17,-182,-124,-156,2,-49,-29,-15,11,-6,-74,6,-58,-33,-8,-100,109,-1,-3,2,-7,115,432514
-28,-13,20,-10,1,-19,-31,10,11,109,-269,-117,-179,-193,-37,-49,-50,-19,-33,-100,-23,-66,-80,-32,-119,55,-39,-33,-24,-28,84,432515
-14,-7,30,-6,8,7,-38,83,31,145,-101,-38,-55,-107,-70,-33,-34,-3,-3,-86,-27,-55,-75,-1,-116,20,-32,6,5,-10,72,432516
18,-1,40,6,19,33,1,-50,1,92,-36,-82,34,-39,-32,-9,-14,11,26,-58,-3,-27,-40,14,-74,15,-17,36,40,14,46,432517
20,0,51,29,23,21,56,-10,129,121,-98,-56,167,-110,3,-38,-37,-1,-4,-82,-40,-48,-63,-1,-117,-43,-19,15,34,6,99,432518
-16,5,24,32,17,-9,89,-110,98,73,29,-119,23,-123,-18,-76,-53,-19,-3,-116,-111,-83,-83,-7,-154,-121,-18,-3,16,-8,30,432519
88,30,-5,53,28,-8,211,-105,-14,32,15,-31,-69,-87,68,23,-75,-48,-86,-9,146,-16,-90,-100,30,253,-99,-65,-55,-57,-112,432520
98,20,-16,43,20,-9,137,153,-75,128,114,114,-5,-14,55,59,-56,-49,-105,24,227,9,-73,-112,74,389,-111,-74,-76,-66,-102,432521
29,12,9,24,3,-3,-38,-119,-12,18,15,74,-89,-41,17,23,-22,-24,-32,-3,108,-13,-29,-45,2,258,-54,-32,-28,-46,-129,432522
-41,1,36,5,-7,-6,-136,-109,143,103,33,96,-125,63,45,-33,10,35,72,-46,-96,-56,17,47,-96,0,40,53,65,28,175,432523
-42,-15,11,-21,-12,-6,-96,-96,50,104,-81,-27,-139,13,-11,-21,25,35,67,-25,-99,-52,24,47,-56,32,41,50,68,44,133,432524
-23,-11,3,-25,-9,-9,-83,-23,37,-39,-176,-93,72,75,38,-22,0,12,9,-14,-97,-81,-11,-1,-37,84,20,13,34,-2,108,432525
-8,-8,0,-9,2,-23,-86,46,-4,-123,-158,50,30,-147,68,-20,-12,2,-6,-5,-91,-93,-10,-17,-13,109,12,7,19,-20,23,432526
-20,5,24,13,20,-10,-76,65,74,25,-77,124,69,-246,68,1,44,50,43,21,-129,-60,35,53,-19,55,70,63,89,38,144,432527
39,9,6,-12,16,4,16,37,79,-55,59,63,48,-115,40,67,6,19,-48,83,54,-6,-8,-34,107,322,-2,-7,24,-8,-16,432528
92,20,-22,-28,12,1,89,-71,2,96,131,60,-147,58,11,126,-25,-32,-123,139,271,44,-33,-121,224,619,-92,-74,-58,-70,-160,432529
256,45,-62,-45,30,25,281,47,-59,-2,207,21,-249,161,70,292,-85,-102,-268,283,784,194,-66,-292,508,1330,-239,-181,-202,-187,-542,432530
293,47,-58,-60,44,32,301,158,-87,-111,194,-28,-158,132,91,298,-146,-141,-352,259,917,193,-146,-371,504,1527,-310,-265,-294,-255,-572,432531
255,36,-27,-42,36,29,194,110,105,27,101,7,-63,4,103,232,-157,-140,-327,173,814,142,-174,-353,377,1380,-294,-256,-304,-252,-513,432532
43,11,33,-21,4,1,-46,2,20,136,-74,-56,-26,-119,12,41,-31,-20,-72,-22,273,18,-33,-98,7,589,-72,-63,-114,-81,-12,432533
-20,4,32,-6,-2,-7,-89,8,-78,22,-120,-97,158,-168,-26,10,29,41,1,-57,120,15,12,-6,-78,341,9,-4,-18,9,136,432534
-37,2,32,3,-3,-20,-100,13,-54,-96,-136,-24,78,-201,-98,-4,27,50,14,-77,68,18,-30,26,-96,216,31,17,16,34,118,432535
-58,8,42,11,4,-21,-77,63,-77,-128,-168,-110,139,-106,-64,-46,1,44,19,-101,-18,-8,-55,44,-143,63,39,34,20,32,159,432536
-53,15,48,26,8,2,-31,-88,-1,4,-17,-37,72,-83,-12,-42,14,38,18,-80,-28,1,-43,29,-139,26,23,22,34,42,161,432537
-102,-9,46,7,-16,-2,-63,-169,22,39,-123,-73,187,-232,6,-90,21,48,62,-137,-161,-41,-30,63,-222,-160,49,59,59,60,215,432538
37,14,29,24,35,35,111,-19,-92,97,170,-58,182,-128,-14,7,-37,-24,-45,-22,118,41,-69,-58,-6,241,-60,-26,-33,-26,-120,432539
255,42,-53,13,53,43,363,318,-144,31,192,82,126,180,-4,194,-131,-145,-277,181,691,178,-157,-289,358,1086,-286,-192,-215,-193,-549,432540
338,59,-96,2,33,4,447,331,-170,45,243,188,-120,-91,114,316,-152,-162,-390,283,1031,261,-170,-374,555,1618,-364,-249,-300,-249,-564,432541
209,43,-49,-19,13,-24,216,153,-59,137,113,30,-174,-109,41,247,-97,-85,-299,192,803,170,-124,-258,379,1364,-242,-178,-222,-178,-294,432542
-23,23,57,-13,4,-17,-114,-34,124,89,-69,-117,118,-100,-33,32,43,82,25,-31,77,-23,10,53,-83,402,69,39,9,34,230,432543
-85,-5,56,-30,-8,-20,-148,-84,177,169,61,-1,201,-214,11,-22,72,91,115,-68,-150,-91,58,109,-175,135,126,78,75,90,198,432544
-81,-19,26,-37,-9,-14,-145,-63,38,-67,-109,-79,87,-161,-17,-36,19,46,26,-81,-184,-146,-13,50,-178,135,66,21,32,31,162,432545
-61,0,43,-13,13,-1,-113,-17,-31,-64,-97,-23,0,-123,79,-29,6,36,20,-63,-198,-136,-43,45,-153,145,64,29,38,35,145,432546
-26,12,37,10,12,-3,-28,-65,-22,175,104,64,-125,-39,0,20,18,26,4,2,-81,-88,-31,25,-73,293,44,26,21,22,60,432547
22,18,21,12,4,-5,20,-45,111,65,263,18,95,32,57,76,36,38,9,55,58,-17,23,1,19,464,27,29,24,13,5,432548
-86,-15,41,0,-17,-23,-133,-95,68,23,16,-74,-4,-6,32,-51,40,53,101,-75,-235,-110,21,100,-186,37,94,73,70,58,192,432549
45,10,18,-2,22,13,18,8,140,-59,-7,12,-141,-83,9,66,-14,-15,-17,38,87,2,-33,-19,24,451,-30,-20,-9,-15,-49,432550
126,22,13,-9,35,25,96,131,61,-106,64,85,144,-207,41,162,-3,-3,-73,108,328,97,-16,-70,161,732,-77,-47,-48,-42,-150,432551
86,9,-13,-40,0,-8,91,-60,-30,-30,77,121,14,51,10,149,-2,1,-89,87,346,91,-14,-65,134,724,-74,-44,-54,-50,-63,432552
-62,9,34,-16,-4,-9,-96,-68,124,52,-37,-80,33,69,-2,-17,26,46,23,-73,-53,-29,42,61,-141,139,39,26,26,31,109,432553
-106,5,25,-4,-3,-20,-147,50,37,-22,-41,-81,158,91,-70,-55,43,63,55,-105,-180,-57,59,93,-203,-73,79,47,66,64,176,432554
-153,-10,12,7,-22,-43,-176,-7,59,-344,-293,-82,66,-128,-121,-81,84,112,149,-133,-293,-54,98,173,-251,-301,137,118,143,122,270,432555
-141,3,30,32,-12,-21,-128,-53,70,-229,-373,-39,16,-107,-75,-80,102,119,189,-126,-312,-31,110,185,-264,-363,163,145,175,140,324,432556
-178,-18,49,28,-8,-25,-158,-175,59,37,-325,-113,109,-115,-37,-145,79,102,188,-187,-450,-96,89,178,-351,-550,149,144,153,111,358,432557
-186,-38,47,10,-13,-12,-151,-96,54,-50,0,-127,140,-51,-65,-201,30,35,154,-240,-523,-170,47,124,-396,-653,81,92,95,45,233,432558
-53,-29,34,22,14,36,-38,-44,39,-13,40,-59,90,-119,22,-138,-29,-30,52,-166,-324,-133,22,10,-260,-364,-24,13,14,-36,-39,432559
162,26,-4,24,58,65,193,-64,-8,203,164,86,-63,54,21,64,-65,-76,-102,33,192,42,-6,-140,87,366,-153,-71,-89,-127,-382,432560
178,30,-47,-16,29,15,219,4,-54,223,11,93,-2,64,35,147,-87,-88,-174,95,408,96,-39,-186,205,690,-195,-120,-145,-171,-445,432561
99,19,-14,-28,15,-9,46,-38,-107,66,31,97,86,67,21,111,-40,-27,-111,33,276,64,-9,-99,101,528,-102,-65,-81,-113,-215,432562
-143,-26,56,-39,-24,-21,-304,-235,33,-1,-157,25,145,129,-40,-109,68,94,132,-204,-420,-127,72,163,-344,-430,138,108,114,48,340,432563
-225,-34,62,-4,-23,-19,-343,-216,106,149,-158,-109,-50,23,-51,-212,61,106,213,-284,-739,-208,63,238,-499,-853,205,153,192,101,426,432564
-189,-24,43,41,1,-13,-222,-117,15,119,-157,-88,-52,-195,-105,-223,10,43,147,-277,-710,-217,24,168,-463,-803,152,97,135,55,306,432565
-228,-20,49,58,-15,-24,-238,28,-29,63,-135,-52,-98,30,-63,-246,60,84,203,-289,-815,-220,71,216,-508,-970,189,135,184,87,414,432566
-225,-34,20,25,-39,-42,-173,-131,119,-112,-12,10,-163,76,-6,-171,89,92,204,-225,-702,-162,109,211,-410,-860,170,143,191,96,383,432567
-188,-27,26,4,-29,-33,-115,-248,67,-108,-112,61,-220,40,-35,-139,75,75,163,-176,-584,-128,85,173,-318,-734,133,133,169,78,202,432568
-46,-1,15,0,12,11,-41,-169,-44,-32,53,28,-114,143,19,-64,25,12,63,-83,-330,-48,36,76,-143,-405,38,74,96,5,52,432569
44,-9,-7,2,37,55,-61,100,58,-103,8,-74,-60,-66,32,-75,-74,-95,-97,-86,-157,-82,-53,-96,-91,-167,-117,-64,-68,-130,-218,432570
55,-9,19,26,52,56,-35,51,121,99,-81,32,-14,-57,-63,-77,-63,-81,-91,-90,-143,-94,-29,-95,-107,-152,-116,-71,-79,-134,-108,432571
-25,2,46,27,27,35,-35,140,35,154,-176,48,60,5,63,-76,34,27,75,-97,-272,-79,75,62,-181,-372,35,65,67,0,201,432572
-149,-26,74,22,6,29,-216,-20,101,48,-510,40,148,-26,80,-193,38,61,166,-207,-611,-175,68,168,-383,-839,128,129,138,66,348,432573
-141,-22,60,34,25,36,-219,4,168,100,-77,35,120,-10,5,-195,29,46,201,-186,-637,-166,65,180,-363,-893,131,150,160,72,275,432574
-126,-7,59,53,12,24,-146,-107,92,157,34,-62,23,72,6,-162,73,76,216,-136,-583,-127,111,199,-307,-858,153,170,179,102,267,432575
-85,-8,27,41,3,5,-48,-217,-2,119,63,7,-34,96,-56,-108,71,53,150,-68,-431,-67,104,143,-215,-657,97,127,141,76,154,432576
-41,-10,27,37,31,18,-6,-48,-9,-86,-171,134,-75,12,-53,-91,45,35,112,-50,-354,-58,83,105,-162,-556,63,84,103,42,120,432577
-42,-2,31,40,51,47,0,-36,13,-68,-382,-32,101,94,-16,-109,29,23,85,-61,-357,-74,59,91,-170,-575,48,66,73,25,68,432578
-128,-15,53,51,32,41,-89,9,8,18,-123,-22,216,7,-92,-198,52,46,139,-162,-586,-152,67,159,-323,-907,120,101,125,69,274,432579
-369,-50,96,69,-4,6,-363,-242,115,-78,-146,-169,139,-224,-170,-440,120,133,356,-404,-1259,-339,135,385,-739,-1869,322,231,290,208,698,432580
-507,-71,113,92,-29,-20,-531,-413,257,-219,-191,-233,-84,-224,-174,-575,162,177,504,-529,-1689,-426,186,509,-953,-2515,445,327,414,301,824,432581
-445,-75,101,108,-18,-4,-500,-184,246,69,-149,-266,6,-182,-105,-551,134,137,482,-472,-1617,-394,172,468,-840,-2484,385,323,405,282,766,432582
-53,-27,-22,75,36,10,3,140,84,-5,102,103,-155,-159,30,-141,42,-6,165,-45,-537,-56,106,128,-99,-1022,67,138,177,83,-13,432583
73,12,-57,45,38,4,161,-8,-69,26,243,282,-181,108,137,47,46,4,73,132,-37,106,88,39,182,-341,-1,105,96,27,-125,432584
47,16,-58,33,13,-20,134,-33,-14,121,179,224,-84,350,88,74,66,19,83,140,69,133,90,45,215,-184,4,104,82,24,-163,432585
-22,4,-42,22,4,-14,90,72,74,80,220,52,-122,393,54,23,57,16,66,72,-12,84,80,43,134,-261,7,73,68,22,-57,432586
-64,-11,-44,19,-9,-14,54,-26,-34,55,116,-7,-154,170,61,-30,36,6,61,11,-103,43,68,49,43,-372,19,57,54,12,18,432587
-21,0,-35,32,5,-3,61,33,8,192,70,49,-213,155,21,-29,19,-7,52,19,-100,49,46,31,49,-346,10,46,40,9,-8,432588
-144,-23,41,42,16,35,-220,-163,97,52,57,8,-98,-103,-52,-241,52,57,190,-209,-634,-138,70,180,-346,-1099,154,113,124,85,412,432589
-419,-75,117,62,-14,2,-567,-196,121,184,-82,-77,39,-13,-107,-512,176,203,492,-462,-1482,-357,192,498,-837,-2331,440,326,393,307,956,432590
-484,-102,76,56,-54,-54,-561,-220,58,165,-217,-102,-19,51,-92,-501,237,240,558,-423,-1609,-335,279,575,-808,-2573,496,411,499,372,931,432591
