274,51,-37,1,49,40,290,218,-57,132,59,115,58,225,133,295,-25,-61,-200,265,753,261,-44,-259,322,1082,-181,-135,-165,-132,-512,331804
266,67,-35,-12,35,35,251,165,23,-30,35,37,-135,169,59,299,-47,-58,-200,264,794,258,-67,-256,337,1152,-179,-137,-179,-135,-486,331805
95,35,8,-22,-5,0,62,19,86,-120,139,-49,-68,-18,18,160,-14,-7,-84,122,435,124,-49,-126,143,660,-56,-61,-76,-47,-82,331806
-39,5,36,-15,-21,-12,-50,-200,194,-105,50,-51,27,-4,-23,32,9,27,18,-2,65,-5,-25,-11,-33,149,38,8,14,16,166,331807
-27,1,20,-6,-22,-20,-49,-145,81,-17,195,-23,-22,-83,-3,9,-2,1,-3,-18,37,-27,-17,-48,-38,86,22,-20,0,-12,85,331808
-19,2,26,-5,-11,-10,-35,132,59,55,268,-30,-9,3,13,15,10,1,0,3,54,-4,-20,-51,-31,103,16,-13,0,6,52,331809
-39,6,38,-14,-15,1,-43,13,58,103,-228,0,104,99,52,10,31,39,41,-13,-12,-20,0,-4,-60,10,55,31,44,44,102,331810
-33,15,22,-11,-13,-12,-39,-61,-36,24,-27,36,58,-71,78,38,51,56,59,27,31,13,28,19,-29,45,68,50,69,51,147,331811
19,20,5,1,-2,-7,-12,33,-80,-88,-122,64,71,24,41,74,30,21,21,57,119,45,12,-18,20,166,27,13,19,21,-30,331812
203,46,-39,23,26,17,206,55,-115,-121,85,132,-94,282,77,228,-14,-40,-131,218,563,194,-18,-186,238,787,-119,-91,-110,-78,-332,331813
290,57,-64,-2,24,18,340,30,-120,2,90,161,-95,244,36,339,-53,-69,-244,314,874,288,-70,-285,369,1248,-220,-160,-198,-151,-542,331814
281,62,-60,1,32,26,333,12,-18,-181,244,42,-8,258,31,331,-73,-84,-267,280,905,265,-96,-300,343,1332,-225,-179,-230,-175,-491,331815
150,41,-21,-13,12,22,124,-11,-150,-191,53,-37,-37,47,43,180,-70,-61,-209,108,579,108,-96,-228,128,913,-167,-158,-193,-151,-206,331816
-104,-7,42,-30,-30,-14,-179,-37,-106,-168,-111,-122,-28,-32,-96,-55,-9,16,-11,-118,-65,-113,-36,-14,-181,60,31,-32,-25,-27,161,331817
-89,-4,54,-34,-29,-18,-141,36,6,-154,92,-76,96,9,-68,-1,45,58,69,-48,-42,-43,40,57,-91,56,79,43,52,40,174,331818
-60,1,42,-29,-18,-32,-40,10,47,-51,133,-75,-56,74,70,41,45,56,60,0,57,10,36,41,-16,160,67,42,54,35,105,331819
-41,1,34,-11,-14,-17,-6,64,77,4,27,-154,-84,-79,11,15,9,15,7,-21,57,-4,-4,-11,-20,169,19,-4,-1,15,30,331820
-42,-35,27,-28,-8,10,-112,9,34,72,-62,-69,-50,-250,-23,-74,-53,-42,-51,-105,-51,-87,-67,-62,-99,38,-41,-62,-43,-44,37,331821
17,-21,13,-18,6,15,-121,-59,-36,-90,-141,-111,46,-306,-75,-67,-64,-57,-71,-88,-27,-79,-65,-71,-73,73,-68,-69,-54,-65,-77,331822
193,30,-15,-1,22,28,140,62,-46,-123,242,-21,135,25,-9,163,-34,-42,-116,136,430,130,-19,-130,197,663,-109,-70,-85,-76,-286,331823
291,51,-32,-4,25,20,289,250,-49,148,206,89,115,136,-40,299,-30,-48,-182,253,751,242,-44,-195,326,1120,-167,-120,-149,-125,-313,331824
230,47,-19,-9,22,7,206,34,11,120,209,41,36,77,-27,238,-49,-49,-196,192,682,187,-51,-199,239,1049,-172,-131,-168,-141,-284,331825
55,21,5,-23,-17,-8,32,-10,-176,-117,71,-11,-41,106,26,104,-32,-13,-130,62,366,62,-45,-98,57,623,-81,-86,-92,-81,-67,331826
-87,-9,15,-26,-48,-41,-114,63,-18,-247,-62,-12,27,-20,-46,-20,-6,18,9,-69,5,-63,-12,25,-117,141,36,-8,10,13,129,331827
-68,7,11,1,-39,-46,-49,-173,-29,-163,140,-5,-40,73,-96,4,6,13,54,-29,41,-27,9,30,-62,203,37,24,16,17,96,331828
-76,4,32,2,-30,-40,-54,6,4,-134,125,-66,62,-142,-39,0,16,21,76,-24,8,-23,15,48,-61,173,64,36,36,29,103,331829
-50,-10,22,-24,-30,-19,-45,196,-116,-91,-99,22,56,-116,18,-7,-22,-4,13,-38,-8,-36,-27,20,-67,183,38,-15,12,22,102,331830
-51,-20,17,-29,-28,-7,-79,-33,45,57,193,11,-63,-4,54,-50,-50,-20,-27,-77,-50,-73,-59,-7,-94,136,7,-44,-20,-6,66,331831
-57,-11,27,-18,-10,-9,-112,-109,83,81,54,-170,-45,-110,-76,-64,-31,-16,-3,-88,-98,-89,-21,4,-94,76,9,-28,-10,-9,-3,331832
95,11,-17,-25,8,8,82,-7,8,130,-15,19,181,33,-69,112,-27,-45,-97,92,319,92,-31,-99,140,640,-99,-79,-81,-69,-278,331833
256,48,-43,-14,25,17,268,148,43,-39,31,148,155,117,-14,299,-23,-47,-176,279,791,281,-14,-179,372,1267,-180,-110,-139,-116,-397,331834
320,63,-54,-27,17,13,310,324,0,-44,66,149,4,142,24,365,-63,-71,-264,317,978,327,-62,-229,417,1547,-224,-170,-205,-160,-537,331835
185,44,-21,-35,0,6,103,235,85,11,120,37,167,75,58,258,-53,-45,-215,189,731,195,-89,-167,232,1215,-144,-144,-174,-126,-227,331836
-110,-16,22,-67,-51,-45,-333,15,32,-113,-21,-24,130,-49,-17,0,23,53,18,-52,44,-44,-26,67,-113,268,77,10,16,34,220,331837
-120,-22,18,-81,-48,-50,-409,-34,44,-134,-137,27,-175,-10,-55,5,44,69,83,-18,13,-23,10,103,-79,185,101,46,60,74,130,331838
-49,-14,26,-53,-8,-30,-325,-69,113,-139,-214,49,-129,60,-67,16,0,35,42,-16,48,-18,-12,52,-49,211,59,9,27,38,47,331839
-11,-17,19,-27,-13,-35,-137,-67,20,-92,-364,34,-20,137,-15,38,14,41,33,0,61,1,-1,64,-24,194,60,27,35,50,-37,331840
-51,5,39,14,-28,-36,-35,5,-67,11,-368,-9,-108,80,7,80,106,126,157,48,44,40,100,172,16,100,156,130,145,137,185,331841
-33,26,8,22,-21,-40,48,75,-64,87,-122,-76,-157,111,-38,101,63,73,72,75,141,65,50,89,74,243,75,68,83,79,-13,331842
196,58,-64,14,21,-9,236,299,44,77,11,-1,-50,53,-32,234,-58,-71,-192,221,628,199,-72,-165,275,944,-167,-119,-132,-109,-504,331843
371,73,-103,-24,30,14,424,308,-52,-36,276,20,-60,130,-32,383,-133,-150,-381,363,1113,339,-163,-343,473,1675,-339,-248,-301,-240,-689,331844
331,75,-68,-40,32,18,395,63,-135,-11,151,-31,114,-35,28,350,-164,-158,-428,287,1080,283,-208,-344,387,1695,-341,-274,-331,-259,-596,331845
165,37,-28,-46,4,-3,220,80,-151,-33,-2,32,109,-119,-51,191,-132,-103,-285,100,685,123,-148,-219,133,1193,-216,-199,-236,-202,-283,331846
-28,3,36,-33,-14,-8,-22,38,-44,1,-19,-127,180,-339,-64,-54,-76,-42,-90,-137,75,-94,-102,-46,-196,405,-49,-95,-105,-89,31,331847
-16,10,62,3,4,28,-13,-12,-5,-71,40,-85,-39,-127,-58,-88,-66,-29,-77,-163,-56,-134,-103,-29,-258,262,-27,-101,-90,-64,90,331848
-74,-12,75,11,-15,19,-49,130,102,-128,-53,-120,90,-198,23,-128,-46,-17,-10,-195,-206,-167,-64,28,-293,67,11,-46,-27,-24,201,331849
-82,-16,62,6,-13,7,-53,127,50,-39,265,-140,208,-155,54,-74,0,22,58,-137,-161,-107,-1,77,-201,92,44,15,33,26,130,331850
-59,-6,30,8,-10,13,-45,9,-68,-18,44,-6,-15,-150,-70,-58,-2,22,53,-117,-118,-92,-2,67,-150,148,35,13,29,21,146,331851
-31,-9,15,16,3,3,-35,-147,-52,-81,-140,-66,-159,-51,-102,-71,-22,3,33,-120,-128,-89,-21,48,-138,139,19,6,20,3,123,331852
235,51,-62,13,37,10,316,61,-132,-17,266,76,-42,-72,20,211,-66,-88,-147,170,600,184,-52,-158,260,1105,-179,-122,-134,-123,-465,331853
558,106,-147,-2,79,49,714,339,-237,-105,552,240,-55,172,88,573,-118,-170,-426,505,1547,506,-97,-416,709,2416,-427,-274,-358,-291,-997,331854
687,133,-140,-12,102,74,826,281,-257,-112,548,277,-228,199,126,706,-171,-198,-623,601,1971,609,-184,-557,819,3055,-541,-401,-499,-400,-1119,331855
407,83,-83,-36,36,17,475,218,-145,29,227,91,-115,-82,-25,441,-167,-145,-498,303,1369,332,-198,-407,401,2300,-399,-337,-424,-336,-600,331856
-71,15,44,-21,-36,-46,-45,-86,85,-85,-130,-179,125,-271,-136,-10,-17,31,-46,-130,110,-76,-49,40,-212,578,18,-36,-57,-30,328,331857
-93,22,69,15,-21,-31,-31,27,192,-8,-28,-112,132,-180,-69,-61,34,66,80,-141,-119,-115,-13,131,-246,218,109,32,52,67,344,331858
-20,34,46,27,-6,-16,58,143,101,76,82,67,188,-102,-37,-3,5,31,35,-61,14,-57,-27,69,-129,371,49,11,26,41,128,331859
15,22,28,14,1,-12,46,111,53,-38,146,18,130,-201,19,8,-55,-35,-76,-39,107,-44,-76,-24,-88,503,-37,-75,-60,-34,-21,331860
-14,22,38,7,-10,-21,-5,-75,29,75,134,-10,57,5,62,-2,-24,-3,-35,-50,62,-46,-38,15,-95,419,-3,-50,-32,-14,75,331861
24,9,4,-29,-22,-38,56,2,-84,129,-38,60,88,20,17,110,38,45,8,61,243,59,35,41,42,647,7,4,2,20,70,331862
398,86,-88,-28,54,20,538,287,-157,-67,271,187,15,227,16,496,-65,-96,-269,456,1234,411,-54,-279,574,2043,-294,-180,-227,-172,-736,331863
1033,192,-232,-61,143,84,1253,561,-310,-125,850,373,-173,301,166,1101,-272,-344,-876,1015,2979,941,-244,-891,1338,4521,-872,-588,-745,-599,-1850,331864
944,188,-188,-93,110,50,1091,645,-322,-153,723,254,-173,220,177,1056,-252,-285,-918,892,2987,874,-262,-872,1158,4626,-830,-617,-782,-621,-1582,331865
450,108,-50,-131,43,13,354,205,-75,-49,136,12,-36,34,-11,566,-196,-146,-633,360,1789,388,-257,-511,432,3090,-482,-436,-554,-430,-581,331866
-207,-14,113,-122,-66,-53,-562,-364,243,-62,-447,-339,-2,-112,-145,-93,-26,64,-37,-282,15,-222,-128,87,-436,666,71,-53,-63,-33,511,331867
-208,-24,111,-98,-60,-45,-576,-268,245,-50,-354,-274,112,38,-110,-49,82,144,156,-196,-110,-147,6,230,-329,433,188,93,126,136,498,331868
-204,-17,102,-56,-56,-55,-494,-320,231,26,-368,-87,60,165,-94,-28,123,183,211,-166,-179,-126,72,288,-285,285,242,158,193,189,547,331869
-171,0,92,3,-43,-58,-222,-160,88,-42,253,-45,97,149,-46,-24,106,151,190,-154,-169,-115,54,252,-241,274,212,136,178,169,429,331870
-156,-1,77,32,-36,-51,-63,-182,-33,-114,-134,-154,2,111,-92,-61,52,87,147,-171,-211,-142,9,196,-253,218,149,93,132,126,309,331871
-141,-5,68,33,-28,-23,-60,-283,-35,1,-85,-145,-110,72,-80,-67,19,63,106,-177,-213,-154,-10,159,-248,202,112,73,110,97,257,331872
45,37,42,31,21,6,45,-72,-56,20,65,-137,-174,-48,-24,59,-59,-27,-64,-52,158,-25,-73,-17,-56,706,-62,-50,-35,-38,-93,331873
158,43,37,30,57,38,110,211,-30,5,48,-61,-48,-110,49,124,-96,-88,-200,12,404,40,-136,-152,34,1075,-180,-149,-149,-142,-263,331874
134,27,29,-4,24,7,127,181,-44,34,60,71,99,-105,-87,119,-112,-99,-212,10,442,29,-145,-175,26,1137,-194,-187,-189,-158,-215,331875
58,19,27,-5,3,-6,90,31,7,16,248,66,-66,-156,-64,95,-57,-20,-105,-2,321,12,-82,-64,-31,972,-89,-102,-90,-75,-11,331876
-15,-1,53,17,-6,6,-7,-162,119,149,78,-178,142,-123,-34,1,-12,11,-16,-78,68,-58,-49,28,-142,629,-8,-32,-9,-2,179,331877
-14,-3,49,18,4,11,-26,52,60,90,-301,-200,208,-67,-76,-46,-29,-5,-29,-112,-17,-92,-55,21,-165,521,-7,-46,-16,-1,141,331878
-50,-5,51,9,4,11,-94,-24,45,-51,-171,-181,222,-186,-69,-73,-4,23,31,-132,-128,-110,-25,77,-190,376,49,5,33,34,182,331879
-95,-18,35,-9,-25,-12,-163,-77,57,-106,-58,-136,253,-187,-130,-86,4,37,82,-147,-199,-104,-3,113,-199,284,70,43,70,42,235,331880
-103,-13,39,5,-23,-26,-156,-77,133,-82,-35,-6,197,-157,-86,-82,21,41,86,-130,-201,-96,-4,120,-186,273,81,45,80,51,249,331881
-112,-26,50,-9,-23,-25,-119,-23,16,106,135,15,158,2,-17,-57,18,33,89,-114,-151,-75,-10,114,-162,325,73,44,76,54,215,331882
-115,-34,51,-14,-16,-32,-136,-233,-29,-24,-130,22,112,-256,22,-64,10,15,58,-131,-172,-100,-21,87,-170,303,43,7,54,34,164,331883
-122,-32,55,2,-17,-9,-191,-156,17,-221,-246,-59,107,-237,-21,-100,11,28,79,-152,-252,-140,-8,107,-200,154,61,33,70,50,205,331884
-109,-32,55,32,-18,-6,-203,-96,2,-30,-143,-10,270,-103,-44,-102,38,50,116,-145,-308,-143,23,147,-216,60,96,64,112,77,291,331885
-67,-11,30,45,7,8,-104,-182,85,140,-145,-6,251,41,1,-35,75,86,148,-78,-219,-87,82,161,-131,143,111,106,130,103,195,331886
-50,-17,-5,22,-4,-14,-47,10,57,105,-3,-22,152,28,29,-14,72,82,117,-64,-167,-59,85,140,-79,185,112,97,114,101,260,331887
-64,-5,5,22,8,3,-57,236,70,13,-323,-34,150,-163,33,-33,66,77,119,-74,-217,-86,62,152,-92,85,112,97,118,110,202,331888
-52,-4,-11,3,5,5,-69,-134,-24,-6,-398,50,69,-148,-76,-43,39,54,81,-98,-228,-104,36,122,-99,44,84,64,95,76,157,331889
-65,-7,-12,-8,-5,-21,-151,-313,22,67,109,31,101,-130,-67,-56,21,15,60,-110,-228,-115,25,88,-106,44,55,35,59,37,69,331890
-76,-18,-10,-18,-26,-42,-176,-40,30,-134,-146,-16,-1,-106,-49,-43,22,17,77,-94,-220,-98,31,98,-85,41,64,52,67,45,60,331891
-67,-15,-10,-10,-27,-36,-116,-83,72,93,90,2,85,-50,7,-25,22,30,71,-72,-167,-78,19,93,-61,80,71,53,74,61,109,331892
-265,-56,43,-23,-62,-61,-330,-86,90,36,-133,-126,21,-114,-8,-205,60,94,215,-263,-660,-261,59,256,-315,-599,216,145,200,159,528,331893
-504,-90,106,-8,-84,-65,-592,-262,34,96,-150,-96,194,3,-74,-446,120,176,419,-481,-1317,-470,123,467,-625,-1532,416,276,365,296,899,331894
-614,-111,131,18,-79,-56,-713,-485,5,92,-441,-180,102,-218,-123,-612,134,179,541,-599,-1737,-594,140,561,-787,-2147,491,336,458,342,1016,331895
-447,-77,125,49,-31,-11,-496,-301,18,33,-326,-9,-23,70,-109,-485,149,157,492,-434,-1473,-441,159,487,-569,-1839,430,320,440,332,726,331896
7,-2,42,55,56,56,39,-65,-100,29,70,169,-148,141,71,-66,36,10,116,-25,-350,-34,73,97,-1,-318,66,85,128,86,-86,331897
64,5,3,53,56,48,134,-2,-35,40,78,178,-73,-56,39,-28,-17,-37,-25,-8,-116,7,8,-19,24,29,-48,-6,6,-29,-171,331898
28,8,4,63,31,33,117,43,-79,89,-96,126,52,88,-56,-29,7,-12,10,-16,-121,2,30,18,-30,67,-17,15,19,-5,-62,331899
-7,18,16,54,25,22,28,68,-19,85,-23,149,-41,354,-17,-31,39,16,69,-8,-145,7,70,74,-35,53,31,55,66,37,46,331900
10,11,-10,22,8,-4,17,-29,64,-102,9,174,45,160,-19,-21,3,-21,17,5,-78,11,18,24,-8,178,-12,12,21,-12,-125,331901
15,6,8,16,5,13,30,78,54,-161,30,124,97,203,-31,6,25,5,40,14,-51,36,33,57,10,207,16,29,38,14,-69,331902
-515,-101,146,7,-68,-40,-599,-259,148,71,-440,-110,110,-271,-77,-505,129,168,398,-507,-1331,-458,123,453,-681,-1565,396,258,331,256,1026,331903
-1117,-195,295,40,-132,-87,-1332,-758,337,53,-819,-380,294,-502,-167,-1125,299,370,959,-1081,-3065,-1009,299,1014,-1432,-4050,913,624,822,643,2014,331904
-1089,-225,245,70,-133,-78,-1280,-623,246,35,-711,-316,137,-194,-203,-1137,300,342,1039,-1047,-3260,-1003,326,1044,-1335,-4436,926,683,889,687,1784,331905
-624,-131,150,115,-37,-15,-654,-323,282,268,-300,-11,166,-186,-36,-702,243,217,766,-567,-2249,-577,297,739,-673,-3167,639,541,694,521,885,331906
84,6,-8,108,87,71,240,16,-88,257,279,328,54,220,169,-5,92,-6,149,129,-369,83,156,113,282,-658,61,147,204,111,-405,331907
158,27,-39,57,82,56,297,296,-69,232,42,296,54,242,108,97,16,-50,-79,193,48,158,59,-50,364,-67,-86,1,17,-40,-492,331908
120,20,-30,23,63,39,182,64,-86,110,-214,283,58,295,111,57,-18,-54,-122,140,41,99,-4,-64,280,-27,-86,-33,-25,-46,-329,331909
51,-1,-35,0,30,7,34,-89,-46,5,-176,267,-24,160,90,38,-8,-36,-62,98,0,75,8,-23,212,-70,-50,-4,-6,-35,-198,331910
32,13,-15,6,35,11,0,-145,-32,9,-78,219,59,102,7,77,51,24,23,114,15,101,78,43,208,-65,23,57,52,19,-128,331911
38,7,5,25,42,38,35,-24,55,38,-31,168,-69,14,26,30,51,17,39,60,-76,57,75,53,126,-173,30,49,46,24,9,331912
-437,-90,114,31,-46,-23,-505,-296,184,-62,-277,-148,10,-219,-136,-469,129,154,375,-447,-1337,-416,144,420,-558,-1893,371,252,306,236,934,331913
-970,-178,221,51,-122,-89,-1113,-619,323,-29,-667,-352,134,-247,-161,-998,264,326,852,-928,-2818,-894,282,899,-1220,-3985,821,578,720,566,1723,331914
-1062,-201,216,69,-117,-85,-1187,-741,272,28,-660,-331,155,-131,-107,-1112,328,362,1040,-962,-3203,-960,375,1033,-1265,-4645,925,711,876,684,1745,331915
-656,-142,105,98,-39,-25,-650,-452,145,-57,-461,-45,-7,-27,-48,-751,234,199,753,-559,-2317,-594,312,707,-686,-3521,608,509,655,488,833,331916
159,23,-87,124,105,73,376,289,-85,-36,201,243,-172,373,145,26,21,-82,53,206,-202,131,122,-15,365,-637,-55,47,77,13,-481,331917
244,42,-101,93,86,62,495,52,-277,36,423,277,-158,370,140,143,-21,-100,-122,269,218,228,68,-130,432,-18,-153,-41,-69,-85,-484,331918
134,4,-89,29,29,32,334,24,-244,-15,314,259,-209,199,39,80,16,-40,-53,182,83,161,91,-39,284,-171,-70,9,-26,-38,-269,331919
124,20,-65,28,46,62,242,48,-125,55,144,101,-207,61,32,59,15,-37,-15,148,45,123,80,-20,231,-198,-57,26,-6,-35,-220,331920
163,15,-61,16,69,83,211,278,-115,1,243,48,-145,29,21,52,-46,-86,-114,144,123,105,5,-104,217,-57,-135,-59,-102,-98,-305,331921
101,7,-46,15,54,75,117,97,-60,-96,-39,134,-188,96,8,-2,-52,-73,-97,74,-5,46,0,-73,113,-216,-102,-61,-92,-85,-93,331922
-546,-99,99,-9,-67,-32,-615,-463,120,-167,-514,-96,-55,-168,-135,-575,106,150,390,-521,-1538,-501,136,445,-673,-2349,394,268,316,241,1101,331923
-991,-174,204,42,-127,-85,-1146,-622,338,-62,-759,-240,49,-164,-137,-1012,283,344,896,-899,-2839,-872,320,930,-1186,-4242,842,610,754,599,1750,331924
-870,-174,148,64,-105,-72,-996,-531,328,126,-618,-128,-76,-3,-161,-912,307,326,931,-736,-2718,-739,376,909,-941,-4181,806,640,789,625,1451,331925
-438,-103,58,85,-37,-20,-465,-249,175,60,-261,19,-24,-5,29,-488,256,222,678,-290,-1708,-314,347,614,-320,-2870,535,481,596,461,598,331926
131,-13,-82,63,49,36,266,161,-32,154,150,297,-169,289,143,77,113,30,148,258,-173,209,218,107,445,-781,63,160,192,129,-356,331927
175,5,-97,54,64,44,360,157,-164,112,99,233,-278,76,117,92,4,-67,-53,226,74,200,84,-52,430,-395,-88,31,8,-32,-408,331928
200,33,-82,82,86,67,399,-11,-255,14,424,74,-115,67,46,90,-29,-94,-105,205,168,190,37,-118,390,-225,-152,-25,-70,-97,-453,331929
148,24,-75,59,66,48,270,-52,-123,-79,143,60,-180,53,-37,21,-62,-106,-148,123,99,116,8,-138,280,-248,-166,-77,-126,-135,-355,331930
104,17,-56,35,57,35,164,275,-28,-38,51,48,-121,144,37,-4,-47,-91,-138,94,55,84,21,-107,228,-281,-137,-68,-106,-111,-279,331931
72,7,-52,-14,40,25,107,340,-47,-22,-26,74,-170,41,71,14,-34,-82,-133,110,112,98,16,-96,249,-190,-139,-64,-109,-99,-293,331932
-157,-39,4,-31,-5,3,-188,-103,119,56,-304,101,-55,-31,-5,-200,5,7,16,-114,-451,-107,27,89,-78,-924,62,44,33,23,184,331933
-427,-73,72,7,-50,-38,-456,-465,163,-24,-514,-137,-115,-38,-133,-448,107,128,334,-339,-1196,-326,118,381,-400,-1981,343,240,286,229,684,331934
-423,-60,67,64,-39,-22,-465,-67,141,-41,-376,-145,54,-2,-55,-465,177,180,480,-348,-1397,-337,206,498,-408,-2302,443,356,411,327,772,331935
-242,-36,15,61,0,10,-243,147,38,-12,44,-73,63,71,14,-298,143,123,364,-161,-984,-174,184,355,-146,-1802,298,280,330,264,396,331936
78,11,-75,22,45,34,130,144,-147,160,234,196,-113,80,27,4,18,-27,26,135,-109,97,55,4,274,-623,-28,45,48,23,-320,331937
178,22,-92,-11,48,35,219,121,-146,84,151,256,-127,143,97,118,-33,-82,-105,211,217,170,16,-110,379,-187,-145,-37,-83,-86,-468,331938
93,-7,-91,-36,22,13,124,55,-30,-9,78,131,-257,266,109,48,-63,-93,-135,122,120,93,-16,-118,258,-327,-143,-76,-117,-104,-336,331939
126,10,-98,-27,37,32,111,21,-143,1,-40,37,-118,178,-20,28,-99,-123,-187,109,160,76,-61,-164,260,-277,-182,-118,-161,-145,-329,331940
166,24,-73,-6,59,57,99,73,-114,-28,-61,56,-93,-9,65,55,-84,-106,-146,144,209,100,-41,-135,278,-218,-152,-80,-138,-118,-309,331941
118,23,-48,-1,37,34,96,26,-2,-98,78,191,-71,36,173,64,-32,-51,-95,147,164,93,-20,-74,241,-286,-78,-35,-81,-50,-199,331942
-130,-15,12,17,-18,-1,-141,-136,138,10,-240,-24,103,37,63,-154,43,66,95,-101,-428,-111,36,152,-94,-1110,133,101,90,86,271,331943
-472,-64,70,48,-63,-42,-493,-265,70,85,-391,-178,13,-99,-55,-513,117,155,394,-445,-1406,-425,108,452,-556,-2450,406,291,330,273,849,331944
-438,-65,42,54,-45,-23,-423,-392,122,165,-279,-92,46,-143,-100,-538,85,101,376,-434,-1473,-427,95,396,-539,-2533,353,251,312,244,663,331945
-230,-53,-6,70,-23,3,-140,-145,26,140,22,-37,-69,2,-11,-361,44,19,227,-242,-983,-241,82,206,-268,-1868,162,132,182,133,228,331946
95,8,-75,69,33,30,280,126,-117,84,210,173,-277,25,35,-43,-34,-90,-47,79,-116,66,22,-78,163,-649,-107,-50,-61,-57,-390,331947
153,25,-90,57,29,7,364,65,-79,10,294,224,-126,-60,78,30,-49,-85,-145,135,123,135,3,-145,226,-282,-144,-93,-120,-113,-321,331948
158,18,-90,29,25,-1,331,206,-94,-30,302,124,-239,24,107,77,-29,-55,-137,170,233,183,8,-114,268,-100,-129,-71,-97,-92,-267,331949
174,7,-80,-2,28,20,252,291,-22,38,-161,158,-196,-56,-5,79,-66,-88,-160,172,312,187,-29,-139,286,44,-156,-100,-142,-111,-313,331950
154,8,-51,-17,27,40,108,139,82,84,126,200,83,69,49,72,-57,-69,-139,143,280,161,-40,-120,243,43,-123,-88,-129,-90,-230,331951
77,9,-40,-31,9,13,-55,131,-157,28,2,239,4,-31,-11,64,-3,-18,-72,125,206,157,-13,-31,210,-37,-54,-29,-64,-36,-56,331952
58,6,-47,-34,7,15,-73,130,-91,-81,18,97,59,15,8,59,-20,-42,-63,126,220,147,-22,-50,211,1,-61,-30,-71,-54,-187,331953
167,18,-56,-35,26,32,71,146,33,24,50,155,-117,3,61,144,-16,-35,-97,200,410,217,-8,-86,306,254,-89,-46,-98,-64,-240,331954
242,27,-59,-26,49,36,301,362,25,8,107,106,-67,-25,84,207,-23,-43,-164,248,570,265,-15,-137,366,487,-148,-80,-135,-94,-326,331955
251,43,-67,-7,48,28,378,231,-9,-1,108,44,59,22,120,183,-82,-111,-244,219,601,223,-66,-219,327,553,-235,-141,-208,-160,-397,331956
67,17,-43,-9,7,8,143,238,-9,33,-22,109,38,58,-11,25,-72,-78,-131,48,204,47,-65,-97,89,-8,-108,-91,-135,-98,-191,331957
46,21,-33,-7,4,6,90,115,-17,57,247,132,-78,-4,63,38,-37,-47,-76,60,152,43,-37,-54,95,-108,-61,-57,-86,-48,-102,331958
82,23,-29,-6,19,19,122,-50,-42,9,60,89,-81,-91,85,44,-52,-58,-111,73,193,46,-64,-77,133,-77,-90,-72,-107,-73,-141,331959
49,2,-35,-16,12,8,128,-192,-26,-20,128,31,-67,-71,72,19,-63,-57,-118,38,107,-4,-73,-76,73,-203,-80,-84,-113,-76,-130,331960
10,8,-44,-15,-8,-9,148,-3,-76,8,175,-41,-118,151,7,-2,-45,-48,-119,4,51,-20,-60,-68,45,-288,-69,-72,-102,-52,-102,331961
60,25,-52,8,1,-3,168,-26,26,19,161,-37,80,27,-24,26,-47,-59,-151,38,122,7,-50,-96,80,-192,-90,-83,-121,-74,-193,331962
709,149,-196,10,110,83,888,588,-303,35,768,340,-123,355,80,664,-181,-244,-604,680,1755,617,-152,-590,931,2061,-567,-365,-493,-384,-1435,331963
1457,272,-361,-42,216,149,1773,1060,-528,8,1233,583,-266,483,314,1426,-404,-515,-1322,1392,3937,1319,-393,-1312,1877,5199,-1233,-852,-1111,-871,-2706,331964
1529,291,-356,-121,199,125,1849,1177,-389,-57,1102,497,-239,435,346,1568,-454,-541,-1512,1464,4517,1425,-479,-1456,1936,6162,-1362,-984,-1297,-1008,-2693,331965
972,205,-212,-174,72,34,1127,542,-363,-205,614,201,-317,206,102,1070,-365,-362,-1163,904,3354,930,-430,-1056,1147,4733,-966,-782,-1047,-784,-1428,331966
-63,39,50,-135,-79,-68,-150,-361,-2,-205,-105,-314,-105,-192,-99,72,-122,-13,-288,-89,671,-16,-226,-158,-230,1139,-129,-235,-336,-190,453,331967
-183,-4,84,-75,-91,-61,-283,-465,26,-75,64,-266,116,-222,-161,-83,-31,43,1,-183,96,-121,-109,67,-351,340,47,-46,-80,-4,432,331968
-178,-11,72,-58,-81,-52,-217,-90,123,15,-112,-187,65,-71,-118,-91,-24,26,66,-167,5,-111,-76,85,-300,178,69,0,-26,23,334,331969
-158,-2,78,-41,-51,-27,-164,-35,-19,42,-218,-148,39,-41,-61,-118,-27,22,63,-176,-110,-144,-86,90,-305,-15,71,-2,1,39,325,331970
-88,0,58,-36,-25,-13,-125,-65,73,59,-123,-166,155,-28,-68,-72,5,48,56,-108,-53,-86,-49,83,-227,34,78,5,16,49,266,331971
-65,23,33,-19,-27,-15,-79,185,80,-91,-152,-93,136,63,-51,20,70,97,104,-12,56,14,42,119,-103,150,107,70,71,90,221,331972
485,131,-118,-3,63,33,610,395,-263,41,374,330,-115,311,111,587,-41,-86,-313,569,1521,554,-57,-332,692,2142,-325,-208,-261,-177,-950,331973
1029,209,-253,-61,130,66,1237,684,-278,-65,683,463,-207,455,288,1134,-238,-310,-876,1064,3107,1040,-257,-889,1381,4417,-844,-588,-746,-560,-1917,331974
1229,253,-265,-100,152,84,1434,756,-262,-121,760,428,-223,328,284,1383,-310,-372,-1155,1242,3876,1225,-349,-1133,1616,5597,-1053,-759,-979,-736,-2185,331975
886,176,-188,-155,61,26,959,489,-238,-10,414,18,-158,-203,41,1026,-334,-321,-1043,821,3145,840,-399,-961,1053,4764,-888,-712,-934,-700,-1499,331976
-199,-25,68,-158,-123,-113,-366,-242,-6,121,-600,-426,94,-439,-161,-4,-48,66,-128,-234,347,-151,-157,2,-385,968,20,-104,-171,-87,557,331977
-316,-38,101,-96,-113,-92,-472,-359,205,121,-543,-406,91,-310,-104,-117,48,140,144,-298,-194,-250,-29,213,-463,183,210,72,75,126,624,331978
-205,-9,85,-45,-65,-72,-323,-170,195,78,-324,-318,91,-251,-17,-64,45,100,108,-220,-103,-183,-29,153,-324,264,158,57,64,98,452,331979
-189,-24,59,-50,-74,-93,-245,-126,115,-121,-220,-215,52,-196,22,-46,50,98,102,-190,-98,-143,-22,148,-270,238,143,58,69,94,386,331980
-146,-12,32,-66,-72,-89,-139,-111,151,45,-94,-150,41,46,-40,40,54,93,85,-107,61,-47,-1,122,-139,428,111,44,58,88,246,331981
-77,0,10,-85,-48,-63,-94,-85,54,116,-55,-198,-1,-51,-4,100,17,40,2,-30,260,21,-27,26,-43,701,29,-9,-20,22,17,331982
577,109,-146,-78,66,17,583,347,-235,-67,507,190,-88,289,181,702,-122,-164,-469,620,1845,609,-142,-497,793,2885,-467,-319,-406,-297,-1260,331983
1340,233,-297,-111,183,111,1395,937,-466,-261,942,496,-173,356,268,1469,-337,-414,-1184,1313,3987,1284,-355,-1209,1729,5924,-1119,-778,-1016,-785,-2458,331984
1233,250,-204,-102,165,110,1321,711,-310,-327,616,298,41,119,158,1374,-345,-379,-1203,1153,3908,1152,-393,-1167,1477,5961,-1066,-798,-1045,-793,-2016,331985
721,181,-79,-103,66,47,786,418,-236,-279,253,39,65,106,18,844,-320,-288,-939,595,2725,635,-408,-860,708,4459,-785,-664,-862,-645,-1038,331986
-161,12,113,-107,-84,-57,-323,-148,55,-273,-332,-352,268,-379,-273,-32,-117,2,-176,-275,368,-189,-229,-83,-477,1248,-64,-170,-236,-144,543,331987
-262,-25,129,-89,-95,-73,-446,-289,107,-282,-259,-285,179,-358,-185,-137,10,105,133,-308,-138,-246,-84,172,-538,484,168,35,40,92,710,331988
-203,0,94,-62,-76,-65,-295,3,189,-132,-460,-227,106,-254,-154,-43,60,124,183,-185,-49,-139,-4,184,-371,521,168,80,109,130,459,331989
-174,-11,78,-59,-75,-56,-212,204,136,-3,-320,-242,128,-231,-104,-22,58,92,141,-134,-16,-104,-6,144,-309,521,119,59,98,110,342,331990
-164,-22,77,-37,-66,-55,-198,-180,45,69,-223,-281,-26,-240,-36,-82,-6,37,82,-178,-102,-157,-71,99,-329,398,80,5,60,61,280,331991
-162,-21,65,-11,-59,-56,-229,-182,59,-15,-137,-238,215,-196,-8,-155,-94,-44,-8,-241,-183,-234,-149,6,-378,284,10,-73,-16,-22,130,331992
245,67,3,10,42,15,278,61,-49,3,179,-10,260,19,109,248,-131,-138,-262,165,786,149,-179,-271,169,1596,-270,-215,-223,-178,-579,331993
705,143,-108,-9,85,58,870,308,-262,20,658,234,131,156,134,745,-208,-261,-657,624,2103,605,-243,-654,792,3427,-637,-452,-535,-428,-1328,331994
1067,204,-211,-68,114,64,1231,587,-304,-95,880,277,-82,233,131,1142,-354,-411,-1074,970,3261,942,-389,-1062,1262,5143,-991,-738,-892,-712,-1992,331995
790,160,-107,-122,56,36,772,307,-216,-107,384,61,-89,170,69,908,-275,-257,-873,670,2706,690,-352,-809,819,4503,-738,-590,-753,-585,-1205,331996
-123,-5,101,-121,-92,-70,-371,-263,130,-169,-301,-373,62,-191,-122,11,-31,83,-91,-231,308,-135,-145,25,-409,1271,45,-74,-99,-45,522,331997
-241,-31,100,-71,-97,-82,-460,-210,194,-193,-304,-429,187,-324,-172,-119,11,93,91,-305,-132,-227,-98,148,-484,662,142,23,53,70,511,331998
-182,-7,99,-32,-74,-73,-291,-182,164,-35,-136,-406,278,-413,-94,-49,11,62,104,-222,-11,-151,-65,111,-339,818,98,19,53,65,340,331999
-187,-1,93,-24,-65,-92,-220,-56,191,65,-32,-253,268,-390,-63,-12,57,94,156,-183,-15,-112,-8,153,-288,790,133,66,96,108,319,332000
-216,-9,81,-18,-72,-107,-249,-244,153,47,-147,-40,277,-205,-112,-37,85,145,200,-211,-161,-139,20,204,-321,580,197,120,173,145,452,332001
-154,-20,56,-17,-57,-72,-220,-32,-19,-93,-53,-109,89,-297,-86,-77,12,70,92,-242,-184,-165,-37,121,-324,558,101,45,93,61,282,332002
190,25,-40,-1,14,-9,176,90,-85,-134,211,-114,-159,-14,-20,171,-102,-95,-186,44,568,85,-134,-196,53,1584,-205,-168,-160,-139,-414,332003
831,150,-196,-11,101,69,975,426,-225,-27,614,128,-188,271,99,816,-241,-291,-709,685,2295,679,-268,-748,855,3970,-717,-516,-603,-497,-1588,332004
1135,218,-240,-54,140,94,1264,658,-404,-81,874,275,-241,409,245,1167,-331,-392,-1047,992,3332,974,-369,-1067,1226,5466,-989,-728,-896,-715,-2009,332005
617,132,-110,-112,43,13,565,316,-278,-193,300,46,-47,-23,15,727,-242,-218,-745,488,2241,516,-324,-680,522,4041,-622,-526,-669,-520,-837,332006
-233,-13,96,-114,-107,-106,-414,-299,14,-289,-359,-409,156,-372,-132,-49,-23,86,-16,-280,119,-208,-122,59,-526,1124,81,-60,-71,-23,662,332007
-351,-37,122,-96,-112,-99,-525,-330,164,-108,-258,-485,236,-177,-106,-153,36,124,188,-340,-308,-297,-46,207,-587,473,209,53,105,123,685,332008
-321,-49,105,-101,-106,-94,-543,-341,197,12,-187,-354,251,-166,-141,-158,63,117,236,-306,-381,-281,-6,219,-522,319,225,84,142,145,588,332009
-288,-49,101,-79,-81,-70,-482,-398,157,-165,-224,-296,127,-162,-26,-112,108,149,272,-248,-365,-225,44,248,-416,258,256,148,201,185,528,332010
-268,-57,82,-67,-86,-83,-342,-554,81,-113,-59,-177,-54,-123,-41,-87,84,131,229,-207,-323,-177,6,227,-336,277,229,147,191,179,457,332011
-189,-28,91,-16,-54,-57,-159,-389,245,-19,35,-228,27,121,-13,-52,78,115,236,-149,-255,-133,24,216,-281,327,218,158,202,176,296,332012
29,11,58,12,5,-5,107,23,25,-104,92,-187,103,11,-41,68,17,22,50,-16,142,-25,-20,22,-83,853,23,15,53,48,-53,332013
382,67,-14,6,81,64,454,317,-114,-104,418,-77,44,-29,-5,331,-161,-170,-360,249,980,214,-206,-378,291,2072,-355,-280,-283,-237,-717,332014
667,102,-93,-64,87,82,663,259,-182,-93,459,114,-55,231,53,627,-261,-282,-681,517,1883,494,-297,-683,662,3366,-636,-499,-568,-460,-1221,332015
315,60,0,-75,6,0,211,-192,-119,-52,-34,103,85,366,61,427,-108,-75,-394,243,1233,274,-182,-335,265,2533,-282,-281,-321,-245,-362,332016
-189,-24,125,-62,-73,-66,-347,-234,143,-19,-199,-153,22,-74,-32,-39,5,88,31,-222,-38,-155,-72,107,-368,840,119,8,24,45,516,332017
-251,-27,141,-40,-60,-60,-400,-68,93,6,-141,-169,112,-194,-94,-168,18,83,127,-311,-346,-239,-48,157,-463,438,161,53,91,87,512,332018
-183,-28,115,-35,-52,-55,-336,-221,107,10,61,-198,143,-172,-57,-106,25,66,120,-238,-249,-172,-26,136,-363,560,126,44,94,79,382,332019
-206,-34,115,-34,-61,-64,-411,-150,202,76,-61,-24,138,-211,-15,-94,69,110,185,-222,-321,-165,22,200,-363,447,188,115,165,142,467,332020
-214,-42,115,-32,-59,-59,-438,-288,137,-73,-30,-138,223,-128,-39,-106,76,119,217,-221,-377,-171,49,220,-339,358,206,140,192,167,398,332021
-143,-34,93,-27,-24,-48,-379,-228,86,-23,-6,-192,53,73,-69,-99,46,74,180,-194,-287,-145,18,165,-266,471,142,100,143,117,285,332022
-175,-48,99,-14,-27,-52,-295,-140,191,-14,-7,-154,36,-124,-42,-172,39,58,187,-249,-434,-207,21,170,-319,267,152,89,144,108,347,332023
-138,-37,89,14,-25,-50,-77,-96,120,111,22,40,2,-94,-44,-125,24,42,133,-195,-351,-171,12,119,-235,336,107,64,116,81,202,332024
19,-1,48,1,4,-18,53,-7,-60,-63,225,65,-8,-11,-4,46,-25,-13,-27,-27,81,-24,-42,-30,-11,893,-33,-22,-5,-19,-78,332025
-57,-1,80,-18,-1,-7,-133,-59,78,-114,-182,-3,127,68,-62,14,24,56,75,-75,-71,-70,-8,84,-92,642,81,62,80,56,202,332026
-139,-16,101,-11,-13,-14,-248,16,116,8,-285,-20,113,-32,-59,-41,89,117,198,-126,-302,-115,60,208,-173,257,204,182,201,156,359,332027
-137,-29,74,-20,-11,-4,-235,-24,150,46,-150,-84,-28,101,-49,-56,67,95,190,-116,-296,-117,45,188,-169,215,173,156,188,144,294,332028
-117,-21,75,6,2,0,-213,-132,151,28,78,-91,-35,-104,-37,-85,45,66,148,-129,-327,-140,25,149,-202,155,140,106,140,113,267,332029
-111,-15,40,22,-17,-33,-155,-190,-24,3,82,-195,-23,6,-6,-82,28,42,89,-125,-306,-139,4,94,-215,178,98,54,94,77,211,332030
-98,-12,33,30,-19,-35,-44,-14,-96,36,-34,-115,-8,-6,-17,-83,-1,9,75,-127,-276,-153,-10,52,-219,209,50,37,51,39,149,332031
-80,-19,44,29,1,-2,38,-66,-58,-60,-110,-38,65,-89,-63,-85,21,29,120,-127,-294,-149,32,75,-226,158,71,70,74,57,185,332032
-217,-60,83,1,-33,0,-151,-186,201,-58,-276,-190,95,-193,-130,-255,26,46,186,-291,-664,-298,34,155,-424,-360,154,108,139,94,444,332033
-267,-71,93,6,-26,-6,-318,-289,104,-47,-250,-173,5,-227,-119,-336,9,24,204,-362,-854,-358,17,170,-491,-633,160,107,160,88,429,332034
-235,-53,69,18,-35,-15,-357,-316,-24,104,-159,-90,109,-146,-103,-282,34,47,232,-307,-789,-301,50,192,-417,-574,186,147,186,107,424,332035
-292,-60,71,13,-42,-38,-416,-62,139,73,-96,-82,168,-98,-86,-283,95,115,338,-292,-875,-274,112,294,-398,-724,278,235,287,205,566,332036
-79,-22,11,24,-3,-18,-137,-191,192,-54,232,-23,43,-37,-9,-59,76,68,186,-57,-308,-46,92,143,-66,34,123,142,175,124,213,332037
-26,-23,10,10,5,-2,-86,-194,123,-103,9,17,151,72,-26,-15,48,48,96,-24,-166,-3,61,87,-15,259,83,95,124,74,113,332038
-4,-23,3,-6,5,17,-59,107,10,-169,72,81,-56,149,-76,-3,25,23,22,-24,-100,3,28,31,-27,396,37,42,66,32,63,332039
20,7,36,31,24,48,7,96,-1,-96,73,27,-93,84,-52,-15,20,17,10,-32,-65,4,12,26,-36,471,30,40,58,25,36,332040
-3,-3,40,45,20,36,-18,64,-38,47,-65,-219,-191,-59,-8,-94,-30,-25,-13,-103,-177,-74,-25,-3,-128,358,-1,3,15,-22,83,332041
-8,2,43,57,23,29,10,-68,-75,2,-59,-41,-173,-50,-20,-108,-45,-46,4,-129,-190,-98,-40,-7,-135,341,-12,-9,0,-28,53,332042
-539,-82,190,52,-70,-34,-618,-445,253,58,-376,-309,74,-375,-115,-582,87,144,435,-625,-1482,-562,93,440,-789,-1464,430,266,342,259,1100,332043
-1160,-201,315,44,-167,-108,-1389,-855,431,136,-744,-559,299,-380,-264,-1180,280,383,1052,-1174,-3219,-1101,302,1039,-1524,-3957,987,680,862,670,2246,332044
-1377,-252,328,79,-172,-128,-1646,-963,362,106,-911,-447,170,-395,-219,-1403,406,491,1376,-1318,-4014,-1271,449,1339,-1698,-5236,1242,917,1173,915,2546,332045
-870,-191,171,97,-69,-64,-1017,-482,311,155,-500,-167,117,-289,-37,-926,333,323,1050,-783,-2909,-788,400,954,-937,-3866,877,724,944,719,1359,332046
53,-21,-33,112,83,60,115,333,80,308,262,250,86,183,144,-32,126,41,290,137,-545,58,228,169,273,-694,148,249,328,214,-316,332047
156,9,-56,79,85,54,215,171,-25,174,175,195,-8,449,108,58,20,-39,21,175,-75,113,100,-48,337,-37,-37,68,79,1,-350,332048
75,-12,-36,56,58,37,54,-63,-123,-41,162,108,83,145,112,-18,30,-8,24,63,-222,17,98,0,165,-211,17,79,75,16,-130,332049
61,2,-7,69,57,41,46,-76,-73,49,-106,72,96,204,117,11,97,64,109,79,-231,38,163,79,145,-219,90,149,139,76,15,332050
50,1,1,71,46,45,74,236,-8,-7,-147,42,73,44,60,9,75,33,74,67,-192,35,148,45,125,-163,39,105,102,33,14,332051
-6,-17,-5,37,33,24,39,-6,-78,41,151,45,-57,11,-1,-43,47,16,35,10,-251,-22,85,31,58,-246,35,63,73,19,61,332052
-282,-73,44,15,-26,-23,-284,-289,-6,155,55,-16,-33,29,-68,-285,107,118,262,-230,-900,-243,141,269,-283,-1142,277,224,248,165,656,332053
-845,-150,175,38,-104,-77,-1006,-436,295,209,-722,-282,10,-221,-170,-852,280,345,821,-778,-2459,-764,315,822,-1035,-3351,784,588,701,529,1721,332054
-1489,-270,335,76,-181,-123,-1768,-875,538,158,-1013,-430,246,-453,-197,-1515,469,579,1460,-1393,-4359,-1352,495,1460,-1846,-6078,1372,1010,1239,969,2871,332055
-1079,-199,214,155,-84,-56,-1195,-543,336,174,-503,-83,268,-172,-127,-1162,412,411,1258,-949,-3575,-959,492,1166,-1197,-5164,1071,864,1097,843,1810,332056
125,11,-81,154,104,90,243,189,-1,-73,361,382,-164,273,96,-39,92,-41,240,196,-500,112,232,79,375,-979,37,188,249,131,-471,332057
246,28,-111,85,97,73,274,401,-194,-104,254,353,-250,481,147,120,34,-58,-13,281,55,234,133,-90,481,-173,-92,54,52,-27,-500,332058
162,14,-84,41,72,59,69,124,-174,-37,-92,297,-204,424,58,95,66,3,12,210,15,197,151,-30,384,-212,-22,79,72,5,-266,332059
138,6,-77,33,64,73,78,-87,-145,58,30,326,-161,407,77,62,40,-19,-41,173,31,165,117,-60,333,-128,-49,38,22,-29,-269,332060
138,18,-49,66,76,86,272,-19,-128,-51,-156,222,-197,141,35,50,43,-15,-16,163,45,169,115,-30,304,-94,-23,49,34,-11,-239,332061
112,32,-34,85,61,57,380,87,-69,-21,93,91,-115,138,6,33,47,-1,19,152,21,144,104,-11,268,-131,-3,58,53,14,-101,332062
-426,-55,82,61,-53,-27,-270,-130,13,214,-108,-140,66,29,-71,-464,139,148,377,-368,-1266,-346,174,390,-426,-1882,378,291,338,254,966,332063
-1070,-178,209,54,-148,-106,-1082,-721,218,65,-704,-440,57,-181,-263,-1109,286,332,902,-972,-3018,-936,317,935,-1216,-4338,866,625,790,609,1984,332064
-1380,-270,272,71,-169,-99,-1541,-743,443,44,-980,-559,2,-468,-254,-1475,344,411,1194,-1294,-4076,-1255,378,1217,-1619,-5897,1126,818,1054,795,2325,332065
-935,-213,165,116,-69,-25,-1031,-371,251,221,-441,-288,85,-414,-115,-1111,269,256,966,-859,-3241,-883,342,935,-1017,-4881,840,673,880,650,1339,332066
61,-20,-80,138,82,73,288,183,-57,274,358,381,-143,250,172,-104,71,-43,174,155,-626,55,177,97,333,-1351,60,174,231,129,-422,332067
204,34,-102,135,97,80,475,411,-143,277,245,444,-48,357,192,97,47,-43,-24,292,-29,212,146,-57,500,-504,-70,65,58,-18,-511,332068
157,17,-90,91,69,69,349,368,-184,164,206,286,39,125,184,26,0,-65,-79,201,-62,132,78,-89,372,-505,-95,11,-15,-72,-324,332069
206,35,-61,80,89,97,313,371,-167,88,325,223,0,135,60,8,-38,-80,-120,168,-32,104,32,-115,318,-397,-110,-33,-54,-99,-307,332070
220,30,-58,75,95,99,279,422,-33,135,322,232,-43,48,5,0,-43,-86,-142,158,0,98,37,-140,284,-321,-127,-55,-83,-114,-356,332071
122,8,-75,42,47,45,186,65,-43,139,130,101,-103,70,13,-17,-11,-49,-98,122,-48,85,52,-89,240,-354,-84,-28,-49,-74,-243,332072
-144,-30,-39,12,-34,-25,-179,-160,9,45,-111,-19,-238,152,76,-195,65,59,116,-77,-576,-94,130,143,-39,-1092,134,112,109,74,242,332073
-631,-125,59,-19,-121,-91,-795,-284,175,110,-480,-92,106,75,-28,-611,210,242,527,-500,-1760,-492,254,561,-612,-2756,536,400,453,342,1160,332074
-1123,-216,207,6,-150,-104,-1334,-532,328,68,-980,-208,64,-38,-138,-1121,385,440,1082,-970,-3250,-938,425,1091,-1240,-4913,1027,777,912,716,2044,332075
-836,-170,124,67,-77,-37,-841,-304,295,40,-687,-189,-8,-58,-62,-937,308,306,928,-714,-2823,-727,385,881,-879,-4454,810,653,805,616,1251,332076
122,5,-105,122,99,107,376,150,-196,53,282,248,20,197,103,-84,16,-87,78,167,-441,89,134,3,333,-1229,-40,82,114,34,-501,332077
344,37,-124,117,137,139,575,265,-279,56,284,192,-44,167,42,119,-70,-166,-194,327,266,263,40,-235,536,-243,-258,-91,-120,-164,-732,332078
244,20,-100,89,95,105,482,303,-149,194,210,119,-116,198,63,43,-49,-107,-143,231,126,180,41,-153,401,-406,-161,-49,-92,-120,-452,332079
237,32,-88,84,77,98,513,275,-195,73,163,104,-111,418,110,53,-59,-107,-170,230,188,183,21,-161,386,-300,-162,-84,-123,-122,-452,332080
179,34,-64,69,71,90,380,170,-121,86,187,242,-148,148,93,0,-77,-133,-197,163,137,126,-21,-186,303,-341,-180,-124,-162,-144,-355,332081
105,29,-39,62,56,69,271,83,32,101,3,181,42,-81,80,-11,-18,-65,-105,135,41,111,19,-96,246,-471,-82,-48,-81,-65,-211,332082
-139,-28,3,2,-15,18,-62,-40,49,116,-236,101,114,-165,-34,-170,59,40,72,-49,-441,-56,74,107,-7,-1116,121,93,89,67,255,332083
-640,-123,121,2,-88,-29,-787,-465,195,139,-677,-155,78,-273,-154,-676,176,204,525,-551,-1816,-532,186,574,-654,-3008,548,392,460,361,1137,332084
-871,-157,181,64,-94,-47,-1090,-761,423,180,-655,-282,-14,-329,-161,-967,261,309,875,-806,-2705,-778,300,879,-976,-4290,830,608,736,585,1591,332085
-446,-90,56,103,-29,-7,-515,-308,161,206,-76,-11,-140,174,25,-606,200,183,609,-387,-1826,-408,275,576,-401,-3166,539,446,557,437,687,332086
187,10,-93,96,84,87,214,203,-96,87,203,261,-83,395,168,-28,15,-63,4,176,-218,120,95,-21,371,-954,-27,50,66,27,-480,332087
239,16,-84,70,90,93,292,270,-145,-95,105,250,-234,90,89,10,-45,-106,-147,181,3,138,31,-148,359,-580,-135,-44,-73,-93,-508,332088
191,26,-72,85,73,75,338,398,32,15,-51,240,-120,124,88,2,-40,-86,-134,136,-8,111,34,-118,301,-563,-118,-29,-66,-92,-328,332089
124,16,-88,64,35,30,288,190,95,8,6,237,-37,95,27,12,5,-32,-68,123,-17,118,75,-47,265,-584,-61,12,-25,-59,-172,332090
102,24,-77,40,41,39,218,156,0,32,-131,96,16,35,45,21,48,7,-29,123,-19,125,117,-11,254,-583,-21,36,10,-33,-139,332091
112,6,-52,13,56,59,99,74,90,44,-113,98,8,72,137,-22,2,-24,-89,71,-75,65,52,-56,190,-636,-50,-22,-31,-69,-110,332092
-5,-29,2,-8,39,55,-103,26,80,57,-417,84,-43,57,64,-106,65,58,85,-17,-391,-16,108,119,43,-1070,123,122,109,60,223,332093
-261,-55,34,38,-14,8,-270,-284,41,34,-240,-46,-25,-110,-42,-301,148,158,310,-209,-954,-196,186,344,-221,-1879,329,275,289,219,578,332094
-601,-87,73,130,-62,-49,-524,-359,158,78,-312,-336,68,-369,-58,-680,146,158,469,-561,-1850,-541,176,512,-674,-3125,476,352,421,303,945,332095
-473,-82,45,122,-27,-16,-403,-54,221,177,21,-146,-122,-424,-40,-615,102,85,387,-429,-1650,-452,164,393,-504,-2909,357,279,354,243,577,332096
77,-27,-77,53,53,52,221,245,-2,48,201,169,-25,52,155,-60,7,-60,-7,132,-236,74,96,-43,247,-1017,-47,20,35,-21,-424,332097
178,7,-110,32,40,47,422,216,-88,91,195,47,-221,158,135,40,-63,-125,-176,193,140,147,25,-209,343,-490,-206,-104,-134,-164,-541,332098
74,19,-82,60,39,20,320,240,-133,64,104,336,26,46,58,-99,-79,-119,-131,46,-138,1,-6,-152,137,-838,-147,-79,-119,-145,-310,332099
8,-2,-66,58,25,16,195,160,-133,-4,-17,135,122,-12,-16,-188,-77,-99,-81,-55,-362,-89,-11,-91,9,-1148,-79,-61,-75,-115,-147,332100
99,4,-64,41,44,48,194,304,-60,-145,83,104,127,47,29,-86,-42,-87,-83,48,-162,1,12,-108,126,-895,-96,-44,-60,-110,-279,332101
75,-13,-62,31,28,59,87,140,-74,-14,39,55,-16,12,62,-60,-6,-34,-49,63,-155,26,37,-58,131,-897,-51,0,-10,-69,-180,332102
-91,-28,-22,24,3,46,-164,-150,19,-29,-308,98,-81,-123,43,-220,31,27,74,-108,-583,-130,61,88,-96,-1479,90,91,97,28,197,332103
-214,-59,17,24,-20,22,-308,-113,101,54,-162,18,221,-107,35,-337,87,78,198,-228,-922,-231,117,220,-253,-1958,207,176,203,121,384,332104
-275,-76,15,18,-46,-18,-258,-41,86,94,-171,54,204,19,8,-371,128,115,270,-268,-1065,-255,174,280,-298,-2186,267,223,262,152,402,332105
-243,-70,3,28,-36,-16,-177,-76,88,67,-52,6,27,187,80,-346,107,87,239,-268,-1028,-242,173,233,-262,-2151,216,209,235,105,319,332106
-167,-59,-25,23,-10,-8,-150,-336,-43,-91,-173,-59,-8,95,80,-337,27,-6,121,-277,-922,-244,99,98,-239,-1982,88,93,112,-4,140,332107
-220,-76,-21,4,-27,-11,-266,36,-86,63,-128,-61,1,-115,34,-395,9,-10,107,-364,-1072,-315,84,104,-353,-2178,104,85,107,-30,209,332108
-280,-94,0,24,-32,-12,-342,-36,-32,-7,-99,-104,-101,67,-90,-446,28,23,154,-436,-1253,-366,89,162,-437,-2464,164,140,165,-1,334,332109
-366,-105,19,51,-32,-19,-390,-217,167,-5,-185,-58,-53,-245,-73,-546,29,31,191,-553,-1504,-466,82,212,-552,-2854,201,171,195,2,391,332110
-458,-110,34,42,-53,-30,-498,-310,153,28,74,-38,78,-23,19,-612,67,80,294,-630,-1749,-525,137,305,-638,-3255,291,244,277,53,568,332111
-422,-96,43,61,-45,-31,-473,-166,77,229,-103,-34,32,17,21,-606,98,101,308,-610,-1793,-515,179,316,-607,-3377,306,261,306,57,612,332112
-371,-93,19,80,-24,-33,-324,-77,-18,-4,-7,-29,46,-116,3,-584,102,91,291,-566,-1747,-483,184,297,-559,-3379,278,253,306,44,525,332113
-334,-84,6,105,-16,-12,-152,-135,-98,-187,17,-129,-153,-183,60,-562,67,51,249,-513,-1655,-451,162,241,-491,-3298,212,224,268,5,405,332114
-150,-72,-34,108,17,16,66,44,-6,7,197,43,-252,72,58,-389,9,-39,73,-318,-1158,-264,113,64,-227,-2659,39,108,137,-109,12,332115
-10,-40,-41,85,43,47,124,7,-124,65,167,164,-151,223,108,-254,-9,-56,-61,-193,-799,-143,64,-41,-74,-2176,-58,32,41,-184,-150,332116
-306,-89,46,65,-10,11,-280,-65,-21,152,-334,-4,66,-45,-5,-546,55,44,171,-483,-1533,-415,117,208,-491,-3225,193,173,219,-35,508,332117
-278,-80,36,73,2,30,-187,57,72,148,-91,116,32,78,-8,-503,83,55,235,-395,-1452,-345,155,242,-395,-3184,216,206,261,14,366,332118
-304,-90,23,65,-6,18,-184,-48,76,118,-165,-28,51,24,35,-516,77,55,246,-379,-1447,-338,145,250,-387,-3225,207,212,271,29,335,332119
-296,-90,3,58,2,12,-222,-37,134,35,-101,34,99,-15,56,-473,103,84,289,-336,-1412,-296,179,275,-327,-3241,220,247,299,53,382,332120
-263,-83,-16,46,-8,2,-254,-6,138,78,-29,155,34,-13,120,-424,89,73,279,-298,-1310,-259,188,242,-267,-3135,201,227,275,50,336,332121
-244,-72,-6,55,-2,14,-284,-31,154,64,-72,147,-20,170,92,-395,108,81,303,-255,-1253,-216,222,272,-224,-3079,216,258,292,79,380,332122
-104,-49,-42,77,32,28,-113,65,21,-16,-120,118,-92,228,65,-261,103,70,223,-110,-940,-82,207,199,-46,-2668,146,230,247,44,116,332123
59,-27,-77,74,57,50,140,288,-80,4,96,255,-177,178,154,-99,72,27,63,52,-489,67,166,58,164,-2039,17,126,136,-43,-167,332124
240,28,-123,71,56,54,480,574,-162,45,293,303,-52,307,108,124,51,-24,-100,268,110,270,141,-112,447,-1195,-140,12,-13,-142,-475,332125
172,31,-108,71,29,26,432,368,-84,24,120,237,-156,308,78,75,23,-22,-102,192,61,182,111,-103,325,-1218,-121,-8,-54,-168,-307,332126
-143,-50,-54,41,-25,-30,-16,-61,1,-112,-105,19,-158,58,-63,-293,11,-8,74,-187,-771,-180,81,78,-148,-2296,53,73,64,-76,161,332127
-120,-55,-40,47,-5,5,-32,-247,73,-78,-181,-18,-154,-214,-50,-303,11,-17,77,-182,-816,-184,77,86,-132,-2359,55,64,77,-45,192,332128
-50,-31,-26,48,27,49,33,-119,-39,-9,-179,117,-113,-28,4,-233,1,-32,63,-94,-645,-112,69,61,-13,-2138,28,51,58,-38,-4,332129
11,-32,-55,31,26,54,98,188,28,55,402,179,-194,72,44,-174,-41,-83,-10,-6,-433,-64,25,-25,87,-1835,-55,-13,-15,-87,-174,332130
35,-28,-76,20,23,39,136,169,25,-27,296,197,-246,156,90,-127,-46,-77,-48,41,-332,-27,3,-45,131,-1677,-56,-36,-35,-85,-141,332131
-8,-16,-49,49,11,31,130,155,56,22,222,122,-45,153,38,-132,-2,-32,15,31,-376,-31,63,26,102,-1748,3,32,14,-36,-59,332132
-13,7,-57,78,18,27,200,275,107,90,172,97,-100,-1,32,-106,11,-32,-10,61,-311,5,72,1,130,-1649,-25,16,4,-40,-133,332133
142,16,-86,60,41,43,351,305,-64,-15,261,91,-89,2,37,19,-64,-112,-169,193,74,127,0,-157,305,-1095,-171,-104,-129,-145,-455,332134
294,33,-101,48,71,79,451,226,-168,69,263,170,52,54,-6,157,-104,-155,-290,326,500,257,-33,-279,468,-490,-283,-191,-233,-233,-610,332135
76,-3,-53,19,16,22,135,13,-93,-11,93,2,-74,11,10,-10,-16,-29,-75,134,37,107,34,-60,205,-1103,-66,-33,-62,-82,-99,332136
-61,-28,-28,1,-15,-19,-37,-31,-4,-13,-99,-14,3,83,98,-102,71,73,112,32,-312,18,96,119,39,-1621,119,103,97,69,234,332137
-4,-14,-33,5,4,9,50,-136,58,37,92,176,-34,26,89,-41,103,92,154,100,-215,96,139,149,114,-1529,131,140,129,111,220,332138
71,0,-34,12,33,60,160,70,-13,-138,103,144,-48,66,78,29,68,38,66,182,6,180,86,65,224,-1239,45,70,61,58,14,332139
99,20,-26,26,52,79,152,206,-58,-150,80,-17,-32,-87,-38,6,-6,-34,-16,165,87,173,19,-31,224,-1115,-50,0,-19,-23,-161,332140
21,6,-28,22,22,42,27,149,-5,-16,158,-134,102,83,-17,-71,-29,-56,-39,79,-42,98,-13,-42,135,-1271,-70,-33,-40,-57,-114,332141
82,-1,-39,23,40,46,43,230,-8,98,40,-33,-6,158,10,-32,-62,-94,-118,125,104,132,-47,-112,200,-1037,-140,-97,-117,-108,-244,332142
-90,-36,26,17,28,40,-209,-36,41,-35,-324,-187,84,-29,-13,-215,-8,-5,65,-85,-413,-59,13,74,-79,-1736,43,30,39,13,239,332143
-417,-81,90,43,-33,-1,-514,-231,200,91,-154,-150,122,-198,45,-507,133,158,448,-364,-1334,-342,136,455,-464,-3040,404,296,357,294,875,332144
-308,-70,26,53,-37,-14,-269,-85,55,198,24,6,78,71,90,-378,142,129,393,-196,-1101,-221,155,389,-240,-2746,334,265,337,282,524,332145
-210,-59,8,64,-5,12,-117,-152,77,166,143,11,-95,26,54,-288,98,83,290,-90,-861,-154,122,265,-99,-2413,215,192,243,194,282,332146
103,-20,-69,46,48,57,223,168,-35,156,414,122,-178,64,69,7,6,-40,35,211,-77,118,56,-2,314,-1334,-47,19,27,22,-293,332147
255,20,-102,24,64,64,339,77,-94,11,459,125,-172,147,98,127,-65,-121,-161,318,358,214,-33,-180,456,-703,-201,-115,-141,-112,-425,332148
223,20,-90,6,40,41,270,-226,-144,71,345,129,-116,232,159,133,-44,-84,-148,310,360,210,-17,-154,416,-640,-155,-102,-134,-88,-416,332149
234,47,-85,18,41,40,310,-9,-122,149,276,170,-103,265,145,193,-21,-59,-154,378,502,264,-4,-147,477,-427,-147,-91,-132,-56,-409,332150
253,41,-99,-3,25,13,315,-13,-172,61,290,105,-192,245,87,232,-40,-87,-178,408,629,290,-41,-166,519,-223,-168,-114,-158,-68,-490,332151
240,40,-89,-19,25,21,209,119,-131,-56,131,165,-152,118,42,226,-37,-70,-168,389,628,279,-41,-154,485,-189,-157,-115,-169,-64,-411,332152
75,1,-39,-29,3,17,-68,104,-23,-45,51,100,-45,-48,14,76,-2,-11,-50,222,246,136,-18,-34,253,-674,-43,-39,-73,7,-89,332153
29,-9,1,-28,12,32,-146,50,56,146,-160,41,37,109,72,13,53,38,74,174,33,93,50,88,150,-980,71,40,37,108,128,332154
93,-4,-36,-16,13,23,59,-106,-15,126,78,76,-141,-49,95,46,7,-12,-14,203,172,133,17,-5,209,-766,-7,-30,-23,54,-55,332155
56,9,-31,45,16,12,139,-102,-27,106,88,-35,33,22,61,-8,11,-19,16,146,71,83,24,13,159,-918,-1,-8,-6,56,-19,332156
208,52,-71,53,38,19,255,219,-104,216,178,33,-40,178,88,163,-8,-52,-90,322,505,252,15,-116,412,-315,-108,-76,-98,-17,-363,332157
204,53,-88,2,24,2,120,376,11,96,275,142,-79,317,173,223,-5,-31,-103,345,628,307,-6,-119,460,-127,-94,-81,-115,-11,-301,332158
220,43,-86,-25,11,12,37,217,-5,158,163,73,-217,203,107,262,-23,-45,-121,368,757,345,-24,-152,513,62,-125,-108,-139,-32,-366,332159
200,20,-87,-63,-7,-8,89,63,-19,98,17,232,-123,205,43,292,29,3,-97,385,791,380,22,-104,533,114,-91,-57,-90,14,-205,332160
188,28,-99,-64,-11,-23,298,78,-86,89,176,118,-132,119,99,324,65,46,-77,416,827,414,68,-70,547,177,-55,-16,-49,43,-159,332161
226,40,-129,-63,-8,-28,402,180,-159,63,236,47,-58,185,54,333,-21,-44,-202,414,956,400,-12,-198,556,401,-180,-134,-171,-65,-351,332162
-107,-18,-38,-74,-58,-57,-58,-90,11,8,1,-142,-254,196,23,-9,14,30,8,67,125,61,13,38,64,-701,36,-12,-22,61,308,332163
-545,-96,74,-34,-102,-91,-615,-421,151,-148,-411,-308,-124,-55,-59,-480,121,181,408,-379,-1191,-387,89,453,-562,-2521,431,244,315,345,1047,332164
-514,-101,80,29,-75,-58,-566,-397,84,-102,-417,-331,71,-182,-98,-535,95,131,398,-397,-1367,-441,66,426,-564,-2793,401,228,340,336,890,332165
-310,-59,44,94,-11,-7,-304,-210,-7,-65,-382,-224,94,-326,-125,-393,62,60,302,-217,-1022,-288,55,299,-319,-2356,275,173,267,265,413,332166
218,57,-69,114,73,68,429,388,-50,87,241,154,-144,168,69,143,-29,-85,-63,334,345,224,2,-106,419,-511,-116,-63,-36,25,-520,332167
427,88,-121,67,81,78,682,381,-72,48,308,276,-3,246,69,402,-82,-136,-293,552,1087,448,-48,-322,730,547,-310,-202,-237,-137,-756,332168
385,71,-108,14,65,53,565,189,-139,150,451,104,-144,277,48,397,-65,-110,-304,523,1103,424,-73,-290,672,633,-271,-206,-245,-121,-666,332169
403,73,-88,-10,67,51,507,214,-227,45,482,14,-192,252,75,393,-99,-129,-335,514,1141,411,-117,-320,644,753,-293,-230,-280,-137,-670,332170
438,71,-87,1,71,68,525,192,-133,-40,184,71,-78,98,110,405,-115,-148,-340,535,1229,421,-128,-341,659,917,-318,-236,-300,-149,-705,332171
394,76,-88,9,51,61,557,305,-171,-35,309,95,-81,-44,36,394,-119,-144,-332,514,1237,408,-133,-331,628,978,-298,-232,-299,-135,-634,332172
130,43,-22,18,11,31,262,11,-87,124,186,8,-73,-194,-2,138,-108,-87,-214,224,635,149,-147,-168,254,193,-148,-171,-207,-56,-63,332173
-352,-50,87,-1,-60,-27,-391,-417,102,145,-245,-208,258,-271,-94,-322,36,92,214,-240,-665,-279,-19,273,-366,-1603,275,113,158,239,811,332174
-370,-56,70,-44,-71,-38,-479,-312,20,0,-407,-154,-41,-108,-104,-265,166,198,414,-152,-781,-211,117,424,-271,-1824,422,268,343,402,828,332175
-266,-52,19,-50,-58,-46,-359,-286,-34,-82,-291,-8,-158,98,-6,-145,173,168,406,-22,-550,-83,150,378,-84,-1566,370,279,329,398,471,332176
236,33,-92,-15,39,23,255,177,-227,20,77,227,-236,294,15,253,-6,-62,-48,397,638,319,1,-101,510,98,-93,-39,-55,72,-596,332177
404,47,-108,-7,68,55,428,245,-235,20,210,179,-84,156,-24,379,-83,-126,-281,499,1093,422,-80,-311,649,782,-274,-199,-244,-98,-694,332178
479,72,-92,17,78,64,563,238,-94,113,493,-102,-42,70,38,464,-75,-105,-355,548,1316,492,-82,-354,711,1147,-312,-243,-288,-139,-637,332179
423,79,-85,3,60,30,540,176,-23,99,456,-90,-69,-14,71,426,-107,-126,-378,492,1306,451,-111,-369,637,1206,-331,-265,-328,-164,-646,332180
376,75,-85,-18,42,16,445,-43,-40,159,259,47,-129,13,83,422,-87,-98,-338,476,1289,432,-122,-324,597,1244,-288,-249,-303,-127,-529,332181
394,79,-107,-42,26,-11,470,129,-75,-2,228,165,-105,-40,82,483,-68,-73,-359,516,1389,474,-100,-329,629,1427,-274,-245,-299,-116,-521,332182
60,22,-29,-20,-23,-40,42,9,33,-156,102,24,69,-145,-5,148,-31,2,-154,156,566,149,-82,-109,153,339,-52,-120,-144,-1,109,332183
-337,-48,68,-3,-66,-46,-463,-302,99,-234,-275,-266,-17,-243,-120,-260,45,106,209,-225,-529,-224,1,252,-364,-1191,258,112,144,224,694,332184
-337,-61,102,-1,-52,-14,-489,-456,126,-60,-233,-170,-92,-188,-70,-265,89,130,319,-198,-677,-222,52,333,-336,-1457,325,199,247,311,622,332185
-149,-48,36,-18,-14,19,-236,-407,73,-94,-136,-22,46,-25,-38,-100,46,54,178,-6,-279,-60,24,170,-66,-960,178,103,145,233,204,332186
299,39,-77,2,48,74,372,282,-89,20,233,148,-14,162,39,316,-66,-102,-199,412,823,319,-80,-213,496,541,-189,-147,-150,-4,-526,332187
504,108,-106,13,78,85,657,490,-130,103,380,184,-108,272,140,517,-109,-153,-382,594,1426,499,-133,-387,739,1386,-348,-258,-319,-125,-789,332188
471,110,-95,3,69,69,606,554,-92,54,456,46,-57,83,69,511,-100,-136,-405,578,1472,486,-138,-380,704,1483,-342,-280,-338,-144,-687,332189
437,89,-98,-42,46,55,535,354,-55,60,107,121,-46,93,23,523,-92,-107,-397,568,1489,477,-136,-356,673,1536,-316,-269,-332,-125,-644,332190
449,85,-94,-43,49,52,500,282,-158,134,41,145,-43,-43,-9,517,-101,-116,-391,552,1510,452,-157,-359,640,1595,-321,-275,-338,-120,-620,332191
436,71,-114,-52,43,28,499,225,-300,-122,230,10,-82,-185,13,492,-147,-153,-435,523,1517,422,-206,-399,589,1665,-364,-321,-392,-162,-648,332192
370,87,-96,-49,20,12,444,76,-23,1,147,38,-22,39,-9,451,-146,-141,-386,464,1419,384,-211,-352,529,1580,-314,-288,-363,-128,-482,332193
213,67,-51,-55,-24,-28,230,10,118,96,30,113,-55,57,-50,338,-51,-36,-211,324,1031,271,-140,-169,345,1068,-124,-160,-219,6,-195,332194
183,67,-33,-72,-23,-29,159,56,23,-99,50,34,-54,17,14,333,-2,27,-124,318,928,258,-78,-94,330,941,-47,-105,-148,68,-167,332195
149,32,-29,-95,-27,-21,95,-29,12,-101,-56,41,67,17,-32,309,-9,5,-115,290,870,242,-72,-83,301,902,-37,-107,-130,69,-132,332196
325,72,-39,-39,32,53,335,153,52,-41,399,72,85,-30,-57,457,-53,-59,-249,436,1273,388,-111,-241,518,1516,-198,-192,-240,-35,-474,332197
314,66,-55,-40,17,19,403,214,-87,-101,360,-13,146,-186,16,426,-132,-136,-401,380,1340,361,-190,-374,488,1725,-328,-306,-369,-172,-582,332198
325,82,-60,-45,14,12,406,11,-18,-86,202,72,-36,-155,69,419,-148,-147,-444,360,1358,352,-205,-403,453,1848,-349,-328,-384,-204,-552,332199
285,74,-41,-48,4,9,303,10,-122,94,68,-140,-253,-9,23,374,-150,-131,-408,304,1250,308,-212,-370,369,1792,-307,-313,-368,-180,-457,332200
295,64,-14,-50,13,19,212,221,-112,15,106,-24,-38,-58,-29,362,-126,-100,-374,293,1191,299,-207,-316,345,1768,-257,-271,-328,-145,-435,332201
342,67,-23,-54,22,27,255,186,-57,-19,183,109,-100,-51,95,401,-88,-72,-352,335,1250,330,-185,-294,386,1879,-241,-247,-287,-130,-505,332202
398,76,-54,-61,10,9,436,291,-120,101,431,106,-3,-40,33,488,-119,-117,-434,418,1509,408,-212,-396,474,2255,-346,-329,-381,-195,-656,332203
371,90,-54,-56,1,-2,474,129,-145,21,257,16,52,-9,-23,491,-155,-139,-465,401,1532,399,-243,-427,438,2304,-371,-351,-418,-227,-661,332204
324,85,-36,-73,8,7,356,-94,-37,-70,128,-33,36,-189,-39,415,-178,-160,-452,314,1377,308,-271,-404,328,2109,-345,-342,-419,-220,-476,332205
277,63,-22,-122,1,8,198,58,-105,-7,153,-49,158,-52,12,361,-167,-154,-424,243,1245,251,-265,-374,259,1905,-318,-339,-391,-187,-389,332206
195,56,7,-122,0,3,14,121,15,-42,99,-128,140,-17,20,299,-125,-81,-329,183,1029,183,-241,-270,161,1569,-198,-271,-297,-108,-324,332207
170,51,2,-115,-24,-23,-4,99,-12,-106,100,-74,131,11,66,312,-95,-41,-279,200,988,192,-211,-213,163,1479,-147,-210,-240,-67,-335,332208
120,48,-7,-95,-35,-41,8,161,-16,-81,-66,-116,34,-2,53,292,-51,-12,-201,167,876,170,-150,-149,129,1270,-104,-145,-177,-18,-137,332209
112,47,2,-51,-19,-26,70,48,-84,-251,-103,-145,-13,2,-8,292,-20,13,-147,160,818,182,-106,-106,133,1148,-65,-99,-131,10,-83,332210
89,52,12,-40,-17,-21,104,-162,-71,-140,-10,-73,-41,21,-82,272,-28,15,-133,147,775,167,-112,-98,126,1078,-70,-78,-117,12,-85,332211
100,48,-1,-39,-13,-18,116,-83,-13,-154,-99,-62,2,90,-19,234,-91,-52,-203,90,751,116,-187,-173,94,1061,-131,-160,-181,-48,-143,332212
279,81,-41,-28,17,-9,319,-60,-131,-222,247,-74,72,193,11,385,-108,-97,-320,236,1128,250,-196,-310,298,1587,-253,-249,-286,-133,-502,332213
524,132,-94,-31,53,18,629,347,-174,-152,595,69,-102,184,73,644,-147,-159,-529,484,1815,490,-221,-529,617,2583,-466,-382,-462,-281,-926,332214
634,123,-117,-69,52,37,679,619,-74,-87,356,103,32,186,95,718,-217,-216,-670,537,2108,531,-287,-661,690,3083,-591,-479,-599,-401,-1087,332215
573,104,-91,-91,38,30,515,498,-142,-114,129,69,63,75,32,622,-251,-228,-704,417,1962,428,-345,-663,525,3004,-585,-516,-624,-430,-879,332216
91,24,27,-101,-44,-43,1,-5,122,-103,-249,-137,-78,-190,-37,234,-93,-28,-278,14,842,76,-196,-207,-26,1528,-164,-208,-260,-132,42,332217
-9,18,46,-86,-58,-43,-62,-149,150,-95,-402,-232,-22,-293,2,176,-19,34,-105,-17,561,37,-97,-65,-73,1200,-43,-88,-109,-19,70,332218
-38,6,42,-76,-54,-51,-120,-233,77,-172,-177,-262,264,-209,44,132,-10,35,-78,-52,425,-4,-93,-48,-124,1074,-21,-71,-80,-13,101,332219
21,23,30,-64,-32,-35,-104,-89,97,-45,52,-101,42,53,117,186,6,60,-50,21,475,47,-85,-36,-63,1188,13,-57,-59,6,82,332220
37,11,39,-70,-21,-28,-144,2,-22,-104,-13,-82,-112,61,11,185,-7,52,-45,15,463,45,-92,-37,-51,1214,16,-65,-61,16,64,332221
60,9,29,-61,-27,-8,-84,-36,33,-152,-102,-97,0,-13,-37,178,-33,14,-88,10,495,47,-101,-83,-36,1257,-43,-95,-100,-28,-32,332222
486,106,-65,-25,52,37,521,213,-61,4,437,142,-39,111,-28,579,-114,-135,-431,430,1564,425,-164,-445,523,2727,-393,-331,-379,-252,-921,332223
1036,209,-199,-58,125,62,1225,716,-346,-44,571,343,36,350,114,1139,-289,-360,-1005,951,3171,931,-339,-1023,1228,4972,-927,-723,-869,-652,-1889,332224
1038,215,-200,-120,103,43,1186,754,-486,-142,522,240,-50,331,22,1213,-316,-346,-1060,968,3465,968,-379,-1062,1221,5426,-970,-749,-945,-705,-1757,332225
740,174,-115,-157,41,6,749,551,-245,-144,350,39,-91,150,27,986,-215,-186,-797,699,2861,750,-291,-768,829,4613,-680,-552,-729,-509,-962,332226
12,40,69,-152,-73,-78,-190,-97,-45,-180,-351,-374,126,-342,-127,303,1,90,-176,23,1004,112,-114,-102,-121,2025,-57,-125,-209,-79,331,332227
-163,-17,94,-119,-95,-91,-395,-328,34,-120,-387,-329,100,-284,-77,88,27,121,31,-154,349,-77,-91,78,-335,1091,97,-7,-25,77,436,332228
-120,-8,74,-96,-79,-78,-306,-286,172,-248,-544,-155,25,-276,-116,85,-14,74,16,-144,325,-85,-113,23,-290,989,39,-30,-43,48,240,332229
-138,-23,84,-102,-71,-78,-323,-234,108,-109,-200,-191,104,-241,-91,36,-22,48,17,-184,198,-126,-113,14,-326,766,43,-40,-45,35,236,332230
-149,-20,85,-84,-62,-69,-315,47,102,-44,-87,-191,234,-70,-49,21,1,68,29,-187,116,-124,-69,33,-330,611,63,-21,-22,62,315,332231
-137,-19,74,-70,-62,-76,-275,11,113,-57,-242,-208,217,-2,-51,40,22,86,70,-164,74,-104,-34,71,-297,521,89,18,24,81,300,332232
96,33,30,-34,-13,-30,52,76,71,-45,51,-54,56,180,21,238,-19,15,-75,60,590,98,-63,-92,19,1211,-68,-80,-94,-13,-215,332233
448,88,-73,-38,38,3,499,332,-71,-111,384,121,-78,144,11,575,-159,-150,-456,383,1581,403,-218,-476,488,2625,-432,-333,-398,-277,-949,332234
600,127,-82,-50,58,27,633,282,-74,13,474,134,168,202,88,767,-184,-179,-619,536,2095,560,-255,-607,686,3399,-554,-424,-533,-376,-1115,332235
504,113,-35,-83,36,23,451,305,-63,-122,481,34,132,-74,43,667,-184,-143,-602,410,1890,459,-269,-562,501,3241,-489,-423,-527,-378,-780,332236
-89,3,82,-102,-76,-76,-212,-270,89,-222,-18,-184,46,-343,-85,68,-82,18,-180,-201,375,-109,-202,-96,-317,1230,-54,-158,-186,-98,330,332237
-185,-6,93,-69,-80,-88,-228,-495,102,-106,-265,-213,25,-224,-123,-48,-37,31,-14,-285,-6,-207,-142,35,-430,736,45,-62,-44,10,295,332238
-201,-24,78,-67,-84,-92,-250,-279,48,-185,-330,-176,14,-153,-114,-67,4,53,50,-286,-114,-210,-97,77,-449,606,81,-6,10,40,345,332239
-139,-2,77,-29,-41,-55,-234,-36,86,-204,-89,-117,30,-136,-35,-11,39,59,79,-219,-43,-143,-53,82,-357,705,82,27,42,53,272,332240
-112,5,68,-20,-39,-52,-249,-81,68,-293,-117,-92,76,-25,-94,-1,12,36,54,-198,1,-113,-57,43,-313,775,47,-9,14,20,154,332241
-96,0,70,-23,-36,-37,-219,-289,99,-234,57,-194,74,-3,-90,20,9,44,46,-165,32,-84,-64,43,-261,812,47,-3,13,22,98,332242
205,40,23,-21,29,13,159,35,-86,69,205,-57,193,13,-52,305,-26,-24,-126,124,734,187,-84,-146,148,1746,-132,-97,-116,-76,-506,332243
720,142,-109,-47,94,50,830,462,-168,60,544,197,-87,264,61,863,-126,-170,-539,663,2218,700,-145,-583,893,3772,-556,-358,-462,-359,-1281,332244
776,173,-142,-75,85,28,893,620,-124,-103,333,196,-91,371,183,955,-170,-185,-701,723,2571,766,-189,-709,952,4333,-655,-464,-609,-460,-1304,332245
469,135,-64,-95,16,-34,492,326,-144,-135,108,117,-5,303,64,697,-103,-83,-525,438,1925,497,-174,-473,531,3478,-428,-346,-472,-331,-773,332246
-136,14,78,-108,-81,-121,-309,-321,-42,-108,-201,-213,-41,-127,-147,121,41,121,-18,-135,378,-49,-65,51,-264,1341,65,-10,-52,11,409,332247
-254,-21,107,-95,-69,-93,-515,-318,-30,-86,-170,-255,-4,-107,-136,-40,72,139,158,-257,-121,-187,-5,186,-427,590,193,84,92,125,529,332248
-209,-30,92,-87,-61,-60,-494,-79,80,-212,-383,-97,140,-100,-86,-54,30,83,123,-246,-157,-187,-23,125,-402,502,134,52,65,91,365,332249
-192,-35,98,-75,-56,-49,-431,-55,114,-149,-387,-73,135,-84,-63,-47,24,73,101,-224,-157,-177,-32,113,-380,470,107,36,59,77,351,332250
-191,-23,111,-62,-55,-52,-348,-65,117,-115,-304,-140,249,29,-35,-38,30,82,113,-209,-172,-162,-12,126,-352,399,105,43,74,88,289,332251
-171,-15,115,-55,-43,-39,-293,-149,189,-15,-116,-126,131,-77,-14,-37,50,98,157,-200,-210,-156,16,140,-327,329,126,64,103,104,252,332252
-12,-1,51,-75,-26,-25,-83,90,-39,-119,22,-112,75,-16,-9,94,-20,6,-13,-51,179,-28,-48,-38,-110,873,-29,-51,-25,-17,-230,332253
252,53,-5,-59,31,20,210,167,-77,-226,121,-33,66,78,-4,324,-101,-96,-246,181,861,199,-121,-275,211,1809,-253,-202,-226,-180,-653,332254
286,57,-39,-23,29,-2,248,142,-81,-257,193,-119,-42,4,-32,340,-175,-165,-388,173,1036,208,-198,-396,218,2096,-376,-300,-349,-287,-607,332255
193,73,10,-12,13,-12,197,202,36,-50,271,-101,-62,91,-66,297,-109,-74,-282,104,857,148,-144,-273,116,1885,-260,-214,-259,-214,-253,332256
-171,5,85,-42,-57,-69,-285,-159,127,-207,-95,-182,178,50,-95,9,39,107,65,-200,-32,-130,-14,97,-313,684,119,42,45,48,455,332257
-216,-5,99,-54,-48,-56,-446,-173,89,-199,-370,-145,13,5,-51,-50,68,126,162,-240,-255,-166,21,186,-357,386,189,114,133,122,438,332258
-251,-40,100,-97,-62,-62,-553,-76,48,-52,-375,-109,-87,-18,-143,-95,43,93,181,-278,-337,-199,4,178,-370,272,175,107,129,114,326,332259
-246,-41,102,-60,-50,-41,-510,-223,89,-12,-340,11,164,-155,-121,-98,57,84,210,-263,-361,-196,32,184,-341,227,167,118,148,116,270,332260
-247,-40,79,-38,-58,-54,-423,-83,17,35,-216,-30,98,-111,-38,-117,17,53,125,-269,-352,-206,1,123,-334,233,110,64,100,58,238,332261
-241,-32,106,-39,-40,-43,-372,-101,31,116,-132,-115,189,-89,-48,-123,48,87,170,-284,-446,-211,20,170,-343,91,162,98,136,97,312,332262
-22,-4,57,-55,-5,-1,-98,-49,13,-55,-209,-98,163,-28,-3,42,-10,7,32,-96,0,-56,-29,10,-93,672,20,7,29,7,-22,332263
145,21,33,-53,37,27,-35,220,-8,-19,-91,14,49,-24,22,139,-77,-66,-131,8,350,36,-87,-154,53,1149,-137,-121,-118,-115,-316,332264
147,10,18,-45,30,15,-12,202,63,-23,6,-99,37,-122,-22,139,-82,-65,-157,10,410,46,-88,-173,43,1224,-156,-145,-150,-136,-268,332265
21,14,37,21,-2,-16,87,67,-13,50,-99,-103,135,-274,-71,58,-20,7,-35,-79,139,-39,-40,-35,-100,849,-34,-48,-44,-57,101,332266
-108,16,60,55,-25,-45,58,-212,65,123,-119,-157,157,-314,-74,-49,20,53,85,-185,-173,-120,12,94,-232,391,72,48,52,36,263,332267
-130,-5,42,31,-34,-61,-8,-150,176,39,-114,-122,105,-255,-187,-61,22,45,110,-178,-198,-120,21,95,-234,318,68,59,73,38,134,332268
-151,-24,54,13,-32,-55,-83,-63,42,137,-75,-28,147,-208,-42,-97,15,36,126,-202,-283,-156,18,103,-279,175,81,79,90,43,195,332269
-169,-23,57,12,-34,-41,-143,-259,7,15,-158,-43,201,-169,-29,-134,2,33,130,-228,-350,-179,6,107,-305,70,85,62,88,52,209,332270
-121,-6,57,29,3,-10,-192,-145,49,-52,-276,-135,80,-339,-62,-131,-3,16,105,-213,-320,-158,12,78,-276,89,68,41,68,27,163,332271
-79,-6,67,23,21,18,-213,-94,-21,52,-133,-90,-4,-143,-86,-88,27,34,118,-180,-270,-121,32,88,-222,138,86,69,96,50,164,332272
2,-15,66,26,21,39,-111,65,-78,3,-281,-73,24,-103,-4,-8,30,43,100,-103,-121,-49,49,67,-124,333,62,61,80,46,38,332273
60,-8,31,15,23,21,16,-5,-15,47,-189,-55,35,-105,-17,39,-24,-8,7,-46,65,-8,5,-18,-50,598,-25,-14,-5,-30,-50,332274
33,8,25,18,28,15,57,-93,-13,-52,94,-63,116,-158,-67,27,-33,-25,2,-58,69,-14,-24,-25,-73,615,-46,-18,-11,-39,-59,332275
28,6,22,22,29,20,51,-115,46,-79,-88,-119,56,-339,-50,-14,-82,-75,-47,-92,58,-72,-60,-91,-104,624,-106,-62,-84,-97,-116,332276
-106,-12,52,15,-4,-4,-131,-194,45,80,-214,-243,-60,-160,-89,-150,-51,-22,1,-234,-300,-215,-45,12,-298,144,2,-34,-14,-37,112,332277
-135,-17,38,16,-17,-21,-161,-73,17,149,-96,-139,-74,-117,-74,-137,27,62,121,-217,-428,-207,23,114,-272,-53,112,61,114,62,309,332278
-73,-5,39,33,-7,-21,-52,63,69,146,-70,-51,75,0,-68,-70,37,63,120,-142,-303,-146,52,100,-125,115,94,67,109,63,228,332279
-114,-36,35,9,-28,-40,-96,-93,107,45,-59,-286,259,-130,-103,-139,10,30,84,-208,-417,-210,24,77,-172,-32,69,37,88,33,201,332280
-90,-28,23,11,-14,-21,-53,-83,8,34,-40,-252,188,-63,-27,-138,-6,0,65,-200,-386,-211,15,50,-146,-2,18,17,59,-12,150,332281
-76,-5,36,41,3,-6,-39,73,16,-19,-152,-131,299,-92,30,-112,-40,-30,47,-175,-303,-177,-10,16,-108,91,-9,8,32,-35,149,332282
61,24,-13,29,17,-6,99,88,66,-237,-3,112,177,55,93,70,-54,-49,-57,6,110,0,-22,-74,131,656,-89,-34,-31,-80,-187,332283
350,72,-68,29,59,38,435,319,-45,105,218,238,-8,119,114,368,-63,-85,-234,310,881,299,-21,-265,481,1708,-270,-131,-177,-186,-623,332284
408,74,-82,3,57,33,479,330,-105,100,329,140,-39,84,54,414,-126,-146,-348,320,1119,326,-95,-389,494,2053,-378,-235,-305,-293,-766,332285
305,55,-39,-26,39,41,265,183,31,-162,302,132,16,-92,-31,307,-135,-127,-321,206,933,223,-126,-346,312,1825,-317,-232,-296,-272,-568,332286
-24,-10,55,-37,-18,-6,-160,-53,146,-183,-55,-34,260,-258,-12,-4,-29,14,-20,-116,69,-63,-30,-18,-154,644,-12,-34,-55,-51,196,332287
-128,-22,64,-14,-23,-30,-201,-149,82,0,-247,-216,197,-299,-108,-84,36,75,134,-183,-233,-127,47,120,-248,201,108,67,82,63,332,332288
-133,-14,58,-2,-19,-22,-159,-312,16,82,-51,-252,121,-245,-155,-74,60,90,165,-160,-252,-110,62,150,-223,157,137,86,125,93,336,332289
-97,1,53,9,-7,-4,-141,-85,28,131,-125,-138,73,19,-77,-40,70,96,173,-127,-215,-91,73,146,-177,186,137,95,138,101,294,332290
-102,-11,42,0,-17,-7,-179,7,32,-39,-298,-123,-44,-121,-74,-59,80,100,177,-149,-267,-104,80,155,-197,89,146,103,146,111,330,332291
-113,-36,24,-15,-28,-24,-222,-15,26,26,-258,-74,61,-274,-73,-51,85,98,185,-135,-282,-101,93,162,-186,40,141,116,150,107,265,332292
-21,-10,21,-10,8,0,-156,204,-40,91,-291,45,40,-56,-35,20,51,58,138,-47,-81,-31,69,97,-75,281,72,89,105,70,121,332293
166,16,-24,-15,27,28,86,135,-100,113,-94,116,31,53,88,181,-27,-32,-56,121,391,109,-6,-108,167,967,-114,-36,-58,-71,-276,332294
236,42,-41,-23,30,20,227,93,-199,-19,-66,127,-45,194,57,245,-68,-75,-182,189,644,193,-42,-214,264,1357,-199,-121,-155,-159,-410,332295
134,42,-25,-26,3,-1,136,-132,-169,24,-122,-45,-29,184,36,191,-48,-31,-140,122,504,128,-46,-142,168,1173,-138,-92,-112,-117,-312,332296
-94,5,41,-24,-37,-28,-129,-40,25,45,-59,-84,32,-43,-50,-25,-12,25,13,-110,-47,-86,-29,17,-122,451,13,-1,9,-24,136,332297
-205,-20,82,9,-37,-38,-229,-199,83,-27,138,24,131,-90,-87,-151,-1,38,100,-203,-390,-205,-7,113,-249,-11,102,55,92,47,302,332298
-121,-4,70,18,-14,-29,-82,54,22,16,340,226,69,-69,-87,-75,0,27,65,-105,-239,-128,16,75,-114,207,64,43,65,29,131,332299
-145,-23,48,-8,-31,-41,-112,163,5,-41,-56,88,117,-117,-44,-92,8,35,74,-133,-318,-147,23,83,-144,100,69,53,70,20,158,332300
-40,-8,52,-7,12,17,-48,-118,81,-65,-377,-48,213,-51,-51,-33,21,31,63,-70,-198,-93,32,67,-75,252,43,58,72,17,83,332301
-20,-2,47,4,21,16,-70,74,-35,-17,-252,18,-1,9,-86,-34,30,30,66,-59,-182,-84,36,67,-65,290,44,53,78,12,100,332302
-196,-30,63,-5,-33,-23,-299,52,40,13,-423,-86,-108,-50,4,-156,71,100,206,-172,-523,-183,85,204,-249,-201,183,155,181,99,408,332303
-155,-20,45,6,-29,-17,-247,-136,120,48,-168,-93,0,-56,8,-111,79,103,204,-108,-444,-135,88,190,-187,-130,160,161,186,110,264,332304
-118,-21,49,0,-16,-19,-270,-290,97,27,-41,-37,113,-87,4,-103,49,61,136,-119,-403,-127,50,132,-177,-98,113,110,139,79,216,332305
-125,-34,62,-11,-7,-12,-349,-250,168,26,-153,-26,-102,11,30,-111,45,59,143,-136,-407,-137,46,143,-197,-160,125,106,138,84,252,332306
-118,-41,42,-21,-19,-11,-260,-258,222,114,-81,93,-93,197,12,-81,52,64,162,-120,-356,-108,60,139,-147,-121,131,109,143,80,232,332307
-56,4,54,20,19,29,-53,-57,128,27,40,47,-93,221,-2,-58,27,18,114,-94,-258,-79,41,78,-109,-4,63,65,92,28,115,332308
-35,15,56,51,22,42,15,-242,24,41,129,-63,-133,75,-6,-78,-9,-15,76,-101,-230,-88,-7,37,-101,34,22,25,44,-9,86,332309
-37,8,30,26,11,15,4,-156,14,105,-16,-98,-151,-24,15,-68,3,-13,81,-101,-207,-73,16,37,-91,52,20,32,45,2,80,332310
-64,-11,39,7,7,8,-33,-115,-115,9,66,-57,-30,-99,-48,-45,38,33,109,-93,-220,-60,54,89,-74,17,57,74,95,41,131,332311
-94,-7,32,6,-10,4,-83,-183,95,-8,-27,-114,-98,-155,-24,-66,30,28,102,-102,-240,-61,45,84,-91,-19,59,83,108,42,113,332312
-166,-21,43,10,-21,-16,-209,-265,82,-18,-39,-139,-40,-173,-28,-148,33,32,144,-182,-448,-149,46,128,-209,-301,105,109,138,61,345,332313
-433,-57,114,21,-64,-45,-523,-307,99,-174,-179,-177,-15,-77,-67,-413,139,155,411,-445,-1197,-390,142,406,-552,-1361,369,297,364,246,899,332314
-500,-80,133,13,-61,-42,-575,-361,26,-17,-278,-144,44,-10,-103,-505,167,191,512,-507,-1496,-472,179,504,-636,-1822,447,361,460,316,909,332315
-473,-94,106,16,-50,-43,-572,-352,33,61,-516,-122,-92,57,-56,-505,155,168,498,-473,-1511,-465,176,487,-596,-1893,420,344,457,311,808,332316
-115,-40,20,17,20,25,-159,-21,-68,2,-194,-3,121,77,89,-156,77,37,236,-103,-624,-135,136,178,-101,-708,126,181,233,120,108,332317
8,-16,9,20,38,58,-21,129,-64,0,132,-44,116,100,83,-43,30,-2,76,6,-267,-47,87,44,31,-211,8,89,98,16,-19,332318
44,5,-9,56,43,51,88,-153,-116,33,200,-90,32,119,46,-24,-5,-15,17,26,-179,-40,45,1,26,-61,-19,42,58,-19,-43,332319
-3,-9,-17,56,18,18,86,-220,-93,46,1,-1,-107,75,-33,-65,-9,1,42,-18,-281,-86,46,46,-51,-189,25,59,83,-7,20,332320
10,-6,-8,47,23,17,116,-12,68,196,153,77,44,-166,-32,-25,7,7,55,20,-227,-68,55,41,-27,-105,33,76,79,5,107,332321
-33,-21,-16,16,5,7,34,56,-4,198,-36,37,-22,-222,-9,-62,1,-9,36,-16,-282,-102,38,26,-90,-176,21,54,65,-16,66,332322
-128,-43,16,15,-10,7,-128,-33,-52,69,-105,-52,-117,-140,-15,-177,9,13,105,-142,-529,-202,43,95,-233,-533,73,79,103,22,258,332323
-421,-95,100,24,-61,-21,-455,-396,65,-23,-272,-122,65,-247,-92,-468,96,121,388,-423,-1311,-452,122,378,-617,-1656,346,271,323,207,808,332324
-474,-94,133,55,-50,-24,-507,-352,52,64,-295,-16,141,-138,-31,-497,187,181,546,-435,-1525,-443,217,513,-629,-2030,462,385,466,319,905,332325
-311,-72,88,51,-10,5,-368,-184,98,210,-2,-52,128,-45,67,-364,101,92,382,-304,-1152,-305,139,329,-404,-1557,300,264,352,221,538,332326
-70,-46,1,42,25,36,-101,60,53,-15,5,62,-7,171,43,-159,-9,-33,130,-101,-515,-101,29,67,-87,-702,52,85,143,39,-25,332327
42,-23,-26,31,34,30,42,-22,16,61,100,127,-40,131,77,-6,1,-24,25,35,-119,50,28,-1,95,-145,-7,34,68,-6,-111,332328
12,-20,-18,23,17,11,32,18,-21,-2,217,160,-139,138,106,15,58,32,62,38,-95,79,73,58,93,-105,49,71,100,45,7,332329
20,-2,-6,32,29,18,63,134,91,83,-71,190,-60,5,92,29,66,36,82,42,-44,101,89,62,112,-42,65,87,108,51,-28,332330
40,5,-16,40,23,25,86,151,41,115,74,111,-78,108,46,-6,-9,-31,7,0,-26,55,12,-30,78,27,-26,6,14,-36,-68,332331
26,6,-9,52,29,20,67,142,-13,60,106,125,61,308,36,-55,-34,-62,-34,-41,-53,12,-28,-58,29,15,-67,-35,-32,-65,-20,332332
-126,-27,31,33,0,-5,-143,-199,110,-14,100,35,162,-18,-58,-188,11,6,91,-174,-416,-117,18,87,-174,-470,59,52,67,29,230,332333
-364,-66,92,26,-38,-34,-434,-253,128,70,-75,-145,130,-183,-89,-387,123,134,339,-377,-1056,-302,122,342,-488,-1385,316,246,302,217,716,332334
-461,-90,112,34,-57,-40,-515,-280,159,179,-271,-39,-35,-162,-41,-472,176,179,477,-434,-1385,-395,189,456,-573,-1877,424,334,421,302,884,332335
-418,-79,98,68,-37,-23,-433,-289,146,5,-284,14,100,-102,-33,-465,139,136,445,-404,-1382,-392,160,419,-506,-1909,386,308,399,283,699,332336
-47,-29,-8,79,24,23,26,32,-62,121,98,139,61,36,46,-156,19,-27,143,-69,-546,-114,43,102,-52,-784,76,93,139,67,-58,332337
123,6,-38,81,54,48,220,200,-20,151,186,156,-77,133,82,7,-16,-55,9,83,-117,-3,0,-40,122,-215,-30,-2,15,-30,-269,332338
104,14,-47,69,42,43,186,48,75,-37,124,102,61,116,96,13,1,-31,13,85,-98,-17,30,-30,97,-206,-30,20,13,-31,-172,332339
72,12,-30,41,28,30,120,130,-4,-77,-16,66,-50,122,52,18,27,8,29,80,-146,-23,60,29,70,-302,31,70,60,17,-84,332340
22,9,-18,37,16,7,88,-51,28,-16,17,93,-208,95,-3,23,64,44,86,83,-197,-30,94,87,45,-398,103,124,117,65,20,332341
5,-1,-45,12,9,2,96,-55,-92,-21,189,90,-174,158,-27,40,36,3,29,102,-101,-13,55,16,51,-275,43,58,59,18,-82,332342
-19,-10,-35,10,7,2,69,-116,-156,83,357,83,-89,197,-52,-8,-4,-21,-26,42,-130,-62,-2,-28,-28,-312,1,-2,-5,-26,-86,332343
-140,-17,12,33,-7,-9,-41,-128,-58,24,122,37,-39,44,-79,-169,22,-1,66,-132,-481,-190,2,69,-224,-791,97,55,63,30,166,332344
-174,-11,33,62,10,13,-92,-240,48,-123,-80,19,-9,88,-44,-235,28,16,136,-188,-645,-216,25,134,-286,-1020,143,88,125,66,287,332345
-120,-18,-14,32,-1,2,-72,-281,34,-69,-152,-93,-171,205,-58,-168,20,1,83,-122,-478,-120,35,76,-181,-785,71,50,82,27,126,332346
-34,0,-38,26,2,-3,24,-64,-132,32,23,44,-90,165,-2,-36,28,-2,35,26,-144,33,48,5,11,-309,5,36,52,-1,-153,332347
32,25,-36,38,15,-3,83,124,-159,64,110,192,92,172,155,75,45,11,18,130,123,147,65,-11,167,57,4,38,40,5,-97,332348
14,17,-25,26,19,-1,1,71,15,-101,-271,109,81,221,84,19,12,-13,12,61,61,109,36,-25,103,4,-10,19,5,-9,-30,332349
38,0,-8,2,34,29,-78,-11,11,-133,-66,46,60,-83,16,-38,-41,-64,-41,10,-3,49,-25,-63,35,-18,-51,-36,-42,-61,-116,332350
24,-17,-11,-44,1,11,-38,-95,76,3,260,196,-111,65,38,39,28,1,9,78,85,120,31,5,95,101,17,28,20,4,-99,332351
-33,-9,-17,-43,-27,-37,36,6,52,-29,103,174,-12,200,69,64,82,66,90,103,98,157,86,88,136,100,80,105,102,65,-22,332352
-84,-15,-16,-11,-14,-38,-71,-134,113,-18,-66,-47,-206,-20,-18,-81,-2,-30,30,-36,-103,11,-1,14,1,-130,8,34,31,-20,14,332353
-176,-22,39,30,-14,-17,-253,-99,40,51,-189,-62,-200,-99,-25,-213,46,44,163,-173,-518,-135,48,161,-184,-712,145,132,149,89,307,332354
-198,-23,47,55,-26,-17,-208,-125,115,77,-208,-20,23,-3,46,-195,114,120,247,-152,-624,-137,108,259,-180,-911,245,204,240,185,432,332355
-175,-17,28,56,-17,-18,-126,7,41,170,-72,11,-23,-58,-42,-157,122,114,238,-112,-575,-105,118,235,-139,-874,232,184,227,175,390,332356
-3,3,-10,49,19,3,69,133,-60,103,-95,117,-144,25,-29,-26,61,36,125,43,-188,15,91,81,58,-376,85,94,111,71,25,332357
40,0,-29,29,9,-13,103,81,48,144,71,65,86,-27,68,4,10,-14,31,53,-49,21,51,-10,71,-209,-12,41,17,4,-141,332358
34,4,-30,15,6,3,61,66,13,126,-62,1,-110,-108,137,6,4,-19,6,37,-63,-5,25,-18,10,-248,-23,25,-7,-18,-65,332359
40,9,-9,22,25,34,24,94,-91,87,-18,166,-116,-91,116,-9,-27,-44,-14,22,-64,-28,-6,-46,-18,-269,-36,-13,-42,-39,-85,332360
21,0,-6,13,12,32,14,183,59,39,12,206,-1,111,32,-33,-55,-63,-47,-8,-74,-55,-44,-84,-59,-300,-60,-55,-76,-69,-137,332361
100,15,-11,23,28,42,114,-49,132,-25,41,122,-5,210,40,27,-51,-62,-98,41,50,-9,-46,-113,3,-127,-95,-79,-102,-71,-237,332362
-10,-2,32,29,11,27,-21,-106,90,202,9,41,107,-19,49,-82,-2,-4,11,-89,-254,-101,5,8,-169,-547,21,8,-8,-8,87,332363
-184,-31,47,19,-18,-6,-261,-130,53,-9,-221,-50,-26,-30,14,-238,30,49,136,-236,-671,-237,26,157,-355,-1118,173,95,111,93,365,332364
-226,-34,31,22,-27,-13,-301,-35,13,42,-104,-27,-114,-93,-17,-239,73,99,207,-206,-724,-210,75,223,-322,-1199,229,153,194,153,378,332365
-197,-44,1,17,-22,-17,-254,171,48,125,7,18,33,-66,-70,-230,48,47,189,-174,-643,-174,71,170,-262,-1070,153,121,158,106,253,332366
-21,-18,-15,14,10,23,-79,365,-42,168,-39,40,-87,58,-16,-109,-4,-32,59,-38,-271,-56,32,25,-71,-527,10,20,29,6,-79,332367
92,-3,-21,11,31,41,46,239,-40,40,88,217,-121,78,81,16,-4,-28,-13,84,22,60,31,-41,76,-104,-46,-1,-13,-34,-103,332368
75,-1,-43,9,13,0,94,51,19,-109,143,191,74,59,52,18,5,-18,-24,87,53,72,37,-43,77,-45,-36,6,-12,-39,-87,332369
43,11,-61,32,-7,-29,153,73,-7,-153,156,159,79,119,51,7,-2,-30,-44,67,42,57,2,-44,63,-31,-36,-6,-23,-41,-66,332370
50,33,-54,51,3,-21,161,167,4,82,7,154,-94,121,127,-5,-22,-39,-39,55,24,47,-7,-49,48,-41,-35,-8,-31,-49,-84,332371
66,31,-26,47,31,20,131,198,-82,68,260,112,-40,7,88,15,13,0,-14,74,32,61,23,-13,57,-21,4,12,3,-12,-35,332372
49,16,-14,21,17,19,128,239,-21,-68,103,146,81,-56,22,12,17,-1,-24,65,20,53,9,-12,52,-33,5,-1,-1,-16,-38,332373
-60,-17,12,11,2,-10,-13,156,66,-54,-199,59,89,-6,-55,-100,-17,-8,14,-50,-225,-68,-21,28,-97,-370,50,-4,10,-7,150,332374
-83,-24,13,12,-1,4,-78,158,61,133,117,29,-15,-275,-59,-123,-6,-15,56,-70,-290,-95,5,31,-127,-464,52,15,23,6,131,332375
-21,-20,17,13,16,26,-14,302,57,172,376,73,3,-144,-11,-54,28,6,72,-16,-165,-26,49,31,-64,-343,42,47,35,20,56,332376
15,-13,-2,19,17,20,41,162,-31,100,270,25,-25,2,-22,-20,32,10,45,21,-67,7,49,21,-20,-256,17,33,21,7,-69,332377
90,18,-28,19,26,29,123,-1,-31,66,5,-28,16,126,-36,52,2,-33,-20,73,111,66,15,-53,64,-27,-47,-16,-40,-38,-153,332378
40,-16,-35,-26,9,11,54,-97,-63,-11,-364,148,-76,74,-65,6,-28,-46,-51,12,52,15,-34,-75,8,-114,-48,-40,-61,-63,-78,332379
34,-8,-18,-31,17,32,54,-44,-122,-125,-52,79,-19,-71,-51,-4,-40,-54,-91,-1,61,4,-58,-88,-6,-116,-67,-67,-82,-63,-41,332380
-19,-8,-30,-41,-5,-6,34,-43,-100,-45,51,-20,-187,47,12,-45,-41,-54,-79,-39,4,-18,-61,-80,-38,-218,-67,-78,-90,-61,-83,332381
26,13,-22,-3,-3,-12,36,-41,-3,30,157,-39,-173,31,24,-16,-26,-38,-51,-5,46,16,-32,-66,11,-156,-58,-50,-68,-43,-46,332382
73,11,-43,1,13,-23,69,36,42,-9,93,-22,-206,-93,30,30,-56,-71,-112,33,163,44,-59,-125,57,42,-125,-105,-111,-89,-140,332383
53,-5,-34,5,14,-14,26,43,38,-1,74,-158,-58,-78,-8,11,-56,-56,-103,8,96,19,-60,-94,13,-13,-95,-95,-90,-73,-136,332384
73,-4,-20,26,18,15,104,197,-6,-63,24,9,-46,-75,-45,23,-38,-43,-78,33,109,24,-47,-78,23,25,-57,-65,-69,-47,-119,332385
66,10,-8,42,2,7,205,54,-130,20,-52,118,40,-136,49,25,-12,-17,-22,39,81,17,-13,-46,20,30,-26,-35,-47,-24,-56,332386
44,30,15,48,12,19,163,-151,-105,-15,-78,50,-13,-74,24,-2,-7,-15,-16,19,17,-10,7,-27,-24,-39,-18,-27,-40,-21,63,332387
16,0,-14,3,-13,-3,74,126,-82,-148,-62,-81,122,-122,12,-39,-47,-54,-70,-14,-12,-50,-39,-79,-58,-46,-62,-74,-87,-69,-81,332388
10,-2,-25,-2,-15,-13,44,239,-51,93,219,-22,227,-159,18,-8,-8,-2,-7,0,-27,-37,24,-27,-40,-82,-6,-19,-28,-25,-24,332389
5,12,-15,26,-2,-11,39,134,-8,36,279,-42,127,-153,-28,17,31,33,25,30,-17,-11,49,18,-3,-81,36,32,18,5,36,332390
-10,-2,-15,11,-9,-10,-2,13,34,38,126,-47,176,30,21,-27,-4,-2,8,0,-49,-40,19,-6,-35,-119,12,-1,-12,-6,-19,332391
20,-11,-2,2,2,6,-21,-124,-52,-70,-118,19,-72,105,22,-21,-14,-15,-15,3,-46,-42,-4,-30,-30,-106,-3,-25,-33,-24,-55,332392
107,22,-21,-5,12,15,141,99,-64,58,106,163,-34,156,82,128,36,21,-10,154,232,111,50,-19,162,238,-8,2,-20,5,-149,332393
299,49,-100,-24,37,16,421,109,-161,64,125,234,-52,107,106,346,-49,-84,-251,362,872,313,-48,-274,458,1158,-243,-179,-233,-161,-659,332394
383,75,-92,-6,59,47,467,253,-60,-144,229,110,-86,130,104,393,-113,-161,-385,392,1126,362,-120,-397,506,1542,-342,-281,-357,-268,-760,332395
330,63,-70,-44,40,44,380,65,-73,-115,416,29,125,39,161,359,-99,-134,-356,332,1049,310,-120,-347,414,1465,-286,-257,-336,-237,-549,332396
55,12,-9,-60,-7,3,4,-136,-6,-117,-17,14,5,-32,71,106,-1,14,-76,57,324,59,-38,-46,41,478,-13,-56,-104,-36,-17,332397
-41,9,6,-22,-14,-19,-81,-38,-71,-88,-171,167,-130,60,-76,20,42,50,55,-2,72,8,25,58,-43,93,57,30,2,38,158,332398
-51,-5,8,-22,-23,-35,-105,179,22,-103,-139,11,35,-69,-62,22,41,38,34,8,58,21,20,41,-29,49,50,14,-3,30,125,332399
-45,5,14,-3,-24,-28,-93,23,93,14,39,-19,36,-100,-26,8,12,9,4,5,58,1,-4,-8,-56,40,-2,-28,-40,0,62,332400
-47,4,18,-1,-12,-21,-156,-6,-25,-124,-55,-97,-139,-38,-39,-40,-17,-20,22,-34,-23,-37,-16,3,-127,-68,-12,-24,-49,-8,-12,332401
-10,-3,23,-18,4,-2,-216,-90,-80,-168,-130,10,-147,-85,-56,-14,3,2,92,-1,2,4,15,55,-82,-51,32,44,-3,31,26,332402
193,28,-26,-32,38,36,-38,34,-52,-45,-113,179,-107,86,-17,228,34,11,20,240,514,235,36,-20,243,651,-28,25,-28,15,-206,332403
462,66,-98,-44,68,53,428,297,-60,-71,239,258,-94,535,83,509,-39,-83,-285,494,1276,467,-50,-308,616,1759,-293,-181,-257,-175,-750,332404
515,100,-113,-33,63,44,696,277,-90,-78,150,184,-18,311,80,535,-117,-154,-459,494,1499,457,-121,-457,637,2139,-432,-312,-408,-310,-831,332405
401,92,-80,-21,52,40,591,291,-136,-161,169,50,-171,-60,0,386,-151,-150,-444,332,1221,300,-180,-410,428,1857,-380,-300,-397,-300,-622,332406
48,24,18,-38,-6,11,114,14,30,-39,103,-128,135,-190,-15,42,-74,-45,-161,-33,313,-26,-116,-108,-41,640,-87,-109,-169,-112,129,332407
-92,3,51,-12,-19,10,-90,-18,107,-81,-208,-175,143,6,-115,-127,-43,-24,-43,-187,-155,-167,-96,10,-235,-2,7,-36,-54,-30,221,332408
-44,15,52,1,5,20,-47,167,112,-72,78,-151,108,-142,-154,-79,-30,-16,-21,-136,-120,-139,-67,14,-184,53,5,-24,-25,-24,99,332409
-75,0,39,-4,-15,-12,-66,-84,22,33,134,-214,131,7,-97,-70,11,34,47,-123,-158,-117,-18,55,-176,-26,51,21,22,22,155,332410
-65,14,18,4,-8,-12,-44,-259,6,-45,-47,-121,142,139,-76,-37,29,50,75,-81,-119,-74,19,74,-129,27,69,40,47,48,182,332411
-34,17,8,1,-8,-8,-46,-220,86,-108,-2,-69,-116,2,-24,-16,19,38,50,-67,-83,-64,31,49,-104,75,58,31,31,32,129,332412
104,33,-20,-13,15,11,131,89,-91,25,85,74,-189,94,86,148,31,35,-5,118,284,100,53,-14,116,552,-2,9,-1,10,-82,332413
408,79,-94,-32,61,56,494,312,-149,62,273,219,-75,151,165,453,-65,-94,-293,425,1143,380,-45,-306,533,1743,-291,-188,-251,-198,-687,332414
476,83,-108,-68,61,54,506,536,-159,-41,147,209,-42,149,101,490,-163,-180,-454,431,1399,399,-160,-452,569,2159,-432,-305,-405,-329,-897,332415
401,61,-84,-78,35,22,377,504,-119,-47,260,202,36,-57,57,430,-142,-151,-426,355,1294,342,-165,-405,460,2048,-387,-275,-384,-305,-772,332416
45,36,24,-67,-14,-14,-81,118,84,6,-26,-17,196,-160,-11,128,-33,4,-150,57,463,63,-75,-99,26,919,-87,-86,-142,-98,25,332417
-113,-12,55,-92,-35,-28,-345,-86,12,-47,-251,-79,40,-57,-54,-27,3,52,1,-58,20,-71,-32,48,-147,272,49,-2,-11,16,217,332418
-47,-8,57,-99,-22,-8,-325,-85,-7,1,41,-67,19,90,-32,33,8,38,7,19,99,-2,-28,39,-50,330,38,6,0,27,115,332419
-23,-10,41,-75,-14,-9,-207,-86,59,135,43,-91,6,210,26,61,31,41,28,63,145,26,-4,37,-3,373,25,14,-4,15,74,332420
10,16,33,3,6,-11,42,-37,-33,153,152,-28,210,-4,84,79,20,33,2,89,194,48,-5,4,46,419,-6,-16,-24,-4,56,332421
25,23,10,45,-1,-20,188,-31,-2,119,211,-31,199,-267,-26,60,-17,1,-48,62,181,26,-22,-36,37,394,-54,-50,-57,-39,-22,332422
58,45,-3,68,6,-20,265,-36,-29,40,1,-122,92,-331,-59,60,-31,-18,-43,60,196,34,-20,-42,59,436,-84,-40,-58,-52,-117,332423
495,105,-115,40,80,25,714,241,-95,46,424,78,-86,142,127,513,-119,-151,-389,507,1392,469,-94,-411,670,2115,-429,-257,-334,-263,-921,332424
679,116,-171,-56,73,22,802,346,-254,218,604,210,-228,254,145,721,-215,-233,-667,665,2061,644,-214,-659,882,3123,-633,-433,-575,-443,-1263,332425
596,119,-97,-51,72,30,645,369,-217,89,335,131,-43,50,109,667,-178,-185,-613,553,1926,565,-202,-578,724,3037,-528,-379,-526,-398,-926,332426
40,28,33,-81,-22,-40,-8,-78,81,-210,-91,-144,-5,-372,-55,130,-81,-30,-234,-24,562,42,-141,-153,-58,1230,-132,-154,-227,-155,43,332427
-191,-8,92,-56,-49,-38,-273,-185,56,-172,-210,-220,-86,-286,-118,-137,-18,50,26,-262,-175,-188,-85,82,-373,245,74,-9,-21,17,304,332428
-163,-17,78,-44,-42,-18,-232,-92,-16,-97,-149,-228,-252,-91,-112,-116,-12,32,34,-232,-182,-163,-78,76,-317,232,64,-5,0,27,205,332429
-144,-12,69,-25,-41,-18,-178,-179,-11,0,-21,-117,-102,22,-79,-99,-19,14,45,-212,-181,-150,-69,64,-289,241,49,-9,5,26,198,332430
-146,-26,51,-22,-40,-42,-210,-68,-30,-75,-26,-215,163,-174,-84,-133,-53,-21,13,-230,-226,-173,-94,28,-305,199,18,-33,-15,-5,191,332431
-151,-23,53,-5,-31,-38,-273,-8,-17,-144,-211,-161,155,-132,-150,-126,-13,17,53,-217,-272,-161,-40,70,-305,114,58,10,26,31,238,332432
42,4,-28,-28,-6,-31,-48,-94,-89,-39,109,4,166,298,-87,130,25,26,-8,46,263,86,9,-12,26,810,-24,-11,-6,2,-154,332433
475,80,-120,-47,64,36,456,223,-122,7,430,124,47,483,129,569,-49,-106,-342,484,1451,506,-59,-358,619,2427,-352,-208,-283,-214,-854,332434
675,114,-134,-72,98,55,695,341,-141,-61,504,290,-66,235,129,767,-132,-162,-546,663,2053,676,-135,-542,855,3316,-522,-337,-453,-346,-1114,332435
673,116,-132,-74,73,39,730,335,-73,-82,414,288,-79,254,58,731,-236,-242,-682,613,2140,616,-255,-658,790,3531,-627,-459,-588,-469,-1160,332436
72,26,25,-71,-19,-19,43,-294,49,-96,-7,-154,41,-100,-60,117,-162,-106,-316,-22,630,6,-223,-244,-74,1520,-231,-232,-304,-239,23,332437
-178,-23,78,-41,-47,-22,-198,-440,77,-146,-208,-296,70,-332,-146,-182,-92,-38,-53,-273,-212,-274,-180,8,-430,332,-5,-87,-88,-59,302,332438
-137,13,74,26,-23,-12,-66,-177,82,19,66,-223,141,-162,-134,-142,-54,-16,20,-195,-203,-223,-115,49,-339,245,24,-29,-21,-2,191,332439
-108,31,54,37,-16,-41,-4,-88,189,14,143,-51,62,-47,-90,-28,25,48,96,-68,-106,-115,-19,104,-183,304,94,47,66,73,199,332440
-123,5,58,-1,-29,-54,-115,-215,53,18,-21,-163,70,-100,-84,-15,61,91,115,-45,-149,-117,27,141,-153,197,130,89,109,107,266,332441
-103,-23,31,-42,-44,-51,-88,-75,-13,6,-30,-88,32,-48,-25,28,75,97,131,2,-67,-71,61,137,-81,240,123,102,123,108,207,332442
144,36,-34,-29,4,-14,273,215,-117,-211,228,28,-19,275,40,279,21,9,-35,262,585,182,9,-76,276,1119,-73,-16,-29,-10,-318,332443
791,166,-177,-23,109,71,1034,551,-312,-259,599,368,-97,142,114,882,-182,-259,-660,849,2329,765,-180,-707,1085,3583,-676,-440,-541,-438,-1567,332444
932,203,-176,-54,119,84,1063,468,-244,-138,567,257,-254,246,117,994,-274,-328,-896,878,2809,833,-310,-882,1140,4390,-832,-601,-756,-600,-1667,332445
609,145,-75,-90,56,37,606,75,-119,-58,357,24,-33,298,11,700,-203,-200,-683,520,2081,544,-262,-610,659,3527,-565,-452,-584,-450,-911,332446
5,39,39,-95,-47,-59,-69,-156,78,-125,50,-214,30,-93,-204,156,-50,8,-207,-35,634,40,-143,-112,-104,1610,-83,-133,-186,-122,138,332447
-253,-5,82,-74,-90,-102,-345,-344,99,19,-136,-292,154,-82,-153,-68,66,135,131,-244,-105,-145,-30,185,-375,598,188,85,98,120,550,332448
-240,-10,112,-58,-61,-45,-371,-353,72,45,-374,-182,102,-84,-87,-90,73,127,180,-235,-208,-130,-2,215,-351,448,195,121,156,153,497,332449
-182,-33,115,-86,-43,-12,-321,-284,106,-79,-340,-157,50,-198,-106,-72,26,72,122,-207,-147,-110,-19,145,-296,558,114,64,99,86,341,332450
-192,-44,91,-77,-44,-17,-253,-236,60,-17,-413,-159,31,-271,-94,-96,21,60,101,-215,-165,-118,-24,124,-283,529,94,57,87,64,285,332451
-192,-27,64,-52,-58,-31,-189,-185,127,137,-300,-54,21,-137,-99,-129,-36,-10,37,-243,-176,-146,-78,53,-294,521,26,-4,22,7,241,332452
-112,-20,44,-16,-28,-15,-172,-208,-8,131,-254,-193,2,-372,-32,-126,-98,-79,-44,-228,-113,-152,-136,-42,-270,631,-62,-73,-51,-59,22,332453
105,37,12,13,18,17,70,-170,-47,27,161,-189,30,-211,-4,66,-113,-104,-145,-34,338,24,-120,-157,-24,1230,-184,-129,-133,-127,-298,332454
145,41,-17,7,6,-17,184,-61,-97,-58,189,-118,139,219,-47,153,-83,-46,-135,49,503,102,-85,-138,63,1432,-155,-107,-122,-104,-235,332455
95,42,-13,9,-5,-30,114,41,-100,-137,-142,-13,-126,77,-33,120,-65,-31,-109,22,402,61,-84,-93,16,1294,-110,-84,-95,-84,-67,332456
-88,4,39,-2,-38,-37,-100,-107,42,46,-231,-70,-17,-92,-62,-44,-39,8,7,-145,-44,-110,-67,28,-214,663,26,-12,-2,6,299,332457
-174,-5,73,6,-48,-46,-154,-95,77,23,-62,-153,-49,-122,-104,-100,11,57,95,-187,-277,-169,-20,124,-281,275,116,53,97,83,295,332458
-50,10,35,27,-25,-34,-7,19,34,-31,-86,-74,-27,-92,-17,-14,-27,1,-4,-74,-58,-111,-53,21,-154,503,10,-18,17,26,86,332459
-45,10,47,33,-11,-9,-60,-38,-17,53,-154,48,-3,43,-28,-27,-15,33,60,-75,-140,-121,-22,79,-150,342,63,40,64,56,148,332460
-53,-12,29,-11,-15,13,-122,13,5,24,-80,-4,109,-231,-33,-6,16,55,103,-54,-150,-95,10,103,-117,299,95,74,103,83,161,332461
-78,-14,35,-20,-15,9,-132,103,-29,5,-108,-48,196,45,14,-26,56,85,119,-62,-219,-119,35,130,-140,166,133,89,124,109,189,332462
-18,5,18,-8,-13,-1,-7,-4,54,8,8,15,121,235,13,27,30,32,16,-2,-37,-61,15,29,-49,401,44,25,53,42,45,332463
108,40,-17,-2,-1,15,111,-13,-46,50,215,156,70,95,56,158,-18,-12,-65,116,326,79,-15,-76,122,917,-52,-27,-47,-32,-132,332464
124,23,-29,-58,-11,9,6,16,0,5,210,11,51,50,3,186,-48,-35,-117,110,447,110,-53,-116,143,1127,-97,-70,-96,-80,-192,332465
58,9,14,-65,0,23,-150,223,28,-107,73,24,17,222,-50,115,-6,10,-38,23,273,62,-6,-22,39,903,-31,-10,-20,-28,-72,332466
-78,-15,45,-30,-18,7,-228,126,-82,-141,-188,-66,91,193,-65,-26,32,52,61,-103,-58,-47,17,87,-134,477,79,63,71,52,178,332467
-87,-6,58,-2,-17,-2,-172,-200,168,169,-138,37,-185,-152,-47,-21,62,85,117,-95,-112,-47,34,127,-133,407,120,90,120,102,233,332468
-132,-7,66,6,-31,-9,-178,-248,79,220,-125,108,-61,-94,21,-76,35,66,100,-146,-211,-84,0,128,-178,309,105,74,95,81,260,332469
-143,-14,53,5,-31,-19,-209,-68,-6,186,-514,75,85,22,32,-112,28,47,95,-178,-287,-109,0,125,-219,204,101,66,105,75,215,332470
-93,0,68,29,0,4,-159,-154,14,76,-215,68,-2,54,21,-74,55,56,109,-141,-248,-73,34,132,-167,263,110,88,127,82,198,332471
-97,-10,76,14,3,11,-135,-4,42,185,122,-37,305,-4,12,-71,64,72,152,-139,-269,-78,50,173,-165,225,142,124,149,114,227,332472
-189,-34,92,-6,-29,5,-195,-118,172,86,12,-68,116,-65,-9,-178,54,81,180,-246,-519,-179,40,206,-302,-120,181,135,173,120,334,332473
-339,-59,116,19,-57,-21,-333,-315,158,-109,-213,-121,-11,26,-117,-362,45,70,236,-409,-929,-349,41,259,-506,-702,227,149,214,143,522,332474
-415,-73,112,32,-50,-25,-433,-374,157,58,-278,-210,157,-33,-73,-471,39,70,271,-496,-1185,-445,55,297,-608,-1091,252,165,245,164,620,332475
-441,-60,130,67,-33,-14,-512,-360,215,107,-376,-199,24,-32,-91,-490,112,152,430,-483,-1378,-450,131,442,-618,-1439,405,296,395,287,787,332476
-124,-13,26,63,9,-10,-110,17,69,-50,88,24,-52,137,29,-98,110,100,286,-67,-514,-68,162,250,-81,-342,210,217,284,199,150,332477
24,-2,-27,21,9,-13,49,125,-82,-81,247,36,102,85,105,72,70,53,111,94,-31,91,122,84,123,301,50,109,125,79,-112,332478
35,1,-16,6,18,-2,15,-66,-83,-100,146,27,-24,37,12,36,28,21,47,64,-8,47,73,40,70,317,6,49,59,31,-124,332479
5,-14,2,-10,15,5,-100,-83,-84,-69,-74,-21,50,-90,-38,-26,11,21,70,-15,-126,-26,62,63,-11,130,40,65,70,37,18,332480
52,6,11,8,35,35,-39,98,-34,-22,-88,54,111,123,-5,9,10,13,28,23,-40,12,41,38,37,241,21,40,58,28,-56,332481
72,20,10,22,27,28,128,136,59,-41,59,-2,-57,212,31,51,-37,-38,-108,67,101,31,-29,-68,77,471,-62,-53,-34,-41,-100,332482
-370,-45,131,23,-47,-17,-354,-227,139,-169,-165,-205,99,-73,-85,-390,28,82,187,-395,-977,-382,61,235,-539,-1015,232,130,182,123,734,332483
-1340,-229,337,29,-198,-128,-1581,-858,406,65,-854,-520,346,-628,-309,-1359,277,409,1079,-1338,-3626,-1263,294,1135,-1787,-4714,1061,721,898,698,2448,332484
-1601,-291,370,73,-212,-142,-1890,-988,557,-31,-1127,-622,297,-583,-278,-1610,413,506,1469,-1525,-4560,-1454,428,1468,-1998,-6148,1359,977,1247,972,2712,332485
-1275,-252,259,102,-150,-108,-1432,-836,361,-97,-817,-356,216,-290,-161,-1315,397,421,1328,-1156,-3913,-1134,449,1245,-1469,-5429,1154,882,1141,873,2004,332486
-302,-74,39,150,24,36,-252,-145,28,142,-35,213,-91,236,126,-398,220,142,625,-209,-1576,-243,336,502,-175,-2309,447,437,582,417,218,332487
209,-4,-95,93,81,67,332,145,-131,-1,328,343,-129,237,204,107,49,-61,42,238,-63,203,183,-43,449,-219,-69,66,88,3,-504,332488
159,-7,-84,65,59,27,256,245,-120,45,40,202,-116,166,177,64,37,-26,8,160,-29,164,156,-36,363,-147,-63,54,50,-19,-365,332489
141,16,-68,72,71,37,225,397,-16,171,302,236,-70,14,105,36,-2,-52,-28,106,-29,121,87,-43,296,-107,-67,33,5,-47,-278,332490
113,14,-29,75,66,55,165,260,12,283,419,191,-201,65,83,-20,-18,-57,-42,51,-95,50,42,-46,222,-179,-50,8,-11,-49,-253,332491
81,2,-28,59,58,47,139,26,-41,252,199,78,-26,104,56,-58,-43,-73,-59,12,-138,15,11,-66,150,-221,-80,-22,-37,-70,-216,332492
-195,-43,38,45,-7,4,-147,-236,185,117,-132,-79,19,28,15,-321,0,-4,129,-269,-778,-235,48,132,-230,-1089,106,83,93,39,330,332493
-1004,-188,226,55,-136,-90,-1104,-796,356,189,-832,-290,237,-438,-271,-1096,212,286,808,-1033,-2889,-956,224,853,-1269,-4031,793,538,669,512,1799,332494
-1262,-233,269,96,-156,-99,-1429,-984,413,124,-915,-378,283,-371,-233,-1358,344,399,1190,-1220,-3808,-1170,368,1195,-1533,-5432,1087,801,1010,778,2161,332495
-1174,-218,233,131,-113,-66,-1277,-823,341,39,-793,-363,214,-56,-174,-1286,375,382,1234,-1092,-3776,-1078,444,1175,-1364,-5536,1064,829,1051,801,1893,332496
-233,-80,-14,149,38,26,-92,-20,20,105,126,138,-51,321,2,-404,162,62,488,-173,-1468,-221,290,381,-98,-2467,311,333,466,324,30,332497
308,16,-131,125,98,76,558,443,-134,97,390,355,-209,311,154,139,14,-91,-37,311,79,277,148,-117,558,-319,-128,16,28,-32,-619,332498
287,27,-110,111,100,80,521,194,-51,185,262,170,-37,248,184,128,15,-70,-68,270,181,258,132,-112,486,-138,-121,-3,-18,-72,-496,332499
215,21,-105,70,73,60,405,49,-105,50,217,19,10,122,119,64,-21,-96,-127,181,136,170,75,-134,371,-143,-147,-42,-73,-103,-404,332500
165,12,-101,41,42,35,263,184,-123,10,126,159,-222,108,54,48,-15,-77,-105,148,108,149,69,-100,314,-146,-118,-21,-57,-78,-301,332501
139,12,-81,18,46,41,158,-2,-82,-42,0,236,-118,336,66,48,-33,-80,-103,143,132,149,23,-78,308,-70,-94,-22,-61,-75,-311,332502
-205,-57,24,-8,-11,16,-314,-220,98,165,-114,131,-33,130,-16,-292,27,32,129,-216,-717,-187,52,186,-178,-1219,176,117,126,73,413,332503
-1299,-249,265,0,-190,-124,-1568,-755,396,137,-982,-454,175,-380,-265,-1358,296,405,1056,-1272,-3621,-1183,311,1124,-1593,-5270,1057,718,890,687,2392,332504
-1553,-289,325,94,-187,-113,-1757,-755,442,135,-1006,-522,343,-405,-223,-1620,461,533,1487,-1444,-4614,-1380,505,1487,-1828,-6826,1369,1004,1274,990,2665,332505
-1130,-225,198,143,-92,-44,-1181,-583,260,181,-714,-145,78,-240,-106,-1257,404,392,1239,-994,-3788,-999,488,1182,-1220,-5863,1062,844,1106,839,1775,332506
-144,-60,-37,166,80,76,-10,55,23,195,71,401,-198,287,181,-328,173,70,485,-45,-1359,-114,316,372,73,-2629,297,360,496,324,-7,332507
317,19,-158,110,131,114,510,454,-234,32,343,405,-95,410,131,94,-56,-166,-119,328,23,241,89,-196,586,-704,-216,-36,-29,-114,-781,332508
251,16,-131,84,90,74,397,226,-301,-25,393,205,-81,279,42,39,-56,-143,-139,251,16,171,78,-184,453,-671,-180,-60,-79,-136,-520,332509
205,15,-120,73,67,59,337,92,-154,-112,522,188,-269,307,32,39,-8,-78,-87,247,36,175,113,-115,410,-640,-110,-13,-49,-80,-411,332510
190,13,-110,48,63,66,291,157,-72,-162,377,244,-102,261,14,65,4,-60,-68,231,56,166,106,-97,377,-616,-85,-5,-43,-66,-412,332511
170,21,-98,29,62,61,263,98,-149,29,121,170,-49,125,47,62,6,-50,-75,212,64,152,93,-94,354,-586,-83,-4,-48,-69,-267,332512
15,14,-19,37,45,63,91,131,-99,-67,139,84,-133,117,54,-74,38,12,30,66,-270,19,103,43,149,-1031,52,74,44,13,133,332513
-413,-89,61,18,-44,-10,-476,-37,22,-64,-89,25,-61,-46,-74,-474,132,149,375,-339,-1373,-353,177,407,-415,-2543,400,298,334,241,814,332514
-595,-123,93,35,-52,-18,-757,-115,0,46,-303,-208,-53,-166,-130,-692,202,194,567,-524,-1992,-527,234,577,-659,-3429,549,406,497,369,1035,332515
-568,-116,75,56,-42,-9,-619,-442,-7,-29,-246,-243,-22,-39,-81,-673,212,186,574,-487,-1976,-491,272,565,-586,-3478,512,416,508,374,956,332516
-38,-14,-51,93,40,62,108,32,-24,91,166,145,-90,287,68,-167,104,18,197,35,-659,-2,179,156,137,-1715,120,161,203,129,-194,332517
277,51,-101,86,98,104,447,225,-38,108,230,389,35,317,221,133,3,-84,-98,305,243,273,90,-126,522,-453,-134,-23,-52,-74,-525,332518
248,37,-89,39,83,90,377,148,-95,1,156,506,-167,247,148,120,-24,-92,-148,240,292,254,51,-159,481,-297,-143,-63,-111,-98,-451,332519
195,21,-73,30,60,76,321,191,-117,56,177,280,-117,247,74,70,-26,-87,-162,169,242,208,28,-151,391,-317,-136,-79,-114,-107,-393,332520
186,29,-69,27,53,59,318,231,-43,99,92,278,-148,343,97,62,-25,-90,-153,148,249,214,18,-141,350,-285,-139,-71,-110,-110,-335,332521
128,25,-75,20,35,33,218,306,-31,119,-57,184,-135,56,34,21,-39,-91,-139,93,181,165,11,-130,284,-333,-127,-77,-117,-107,-282,332522
62,-2,-68,0,16,25,80,316,7,38,-49,120,-80,-145,23,-39,-32,-66,-97,26,21,81,2,-59,187,-535,-78,-48,-85,-64,-120,332523
-342,-76,48,3,-48,-25,-409,-139,38,108,-329,-166,-23,-153,-31,-407,95,100,262,-334,-1026,-279,100,305,-338,-1979,292,189,217,171,671,332524
-485,-97,71,20,-59,-44,-515,-261,70,226,-204,1,257,-172,10,-527,154,172,451,-403,-1449,-376,196,455,-460,-2609,420,322,375,296,809,332525
-325,-76,-6,25,-36,-40,-297,-53,106,107,-9,121,46,-36,96,-345,125,113,358,-184,-1033,-207,185,327,-192,-2111,297,263,296,232,355,332526
-4,-31,-58,9,7,12,31,24,-24,52,75,218,-11,292,176,-30,80,34,161,138,-278,77,150,96,198,-1094,82,129,128,89,-115,332527
178,2,-70,30,61,69,220,226,-181,75,310,215,-17,145,87,79,2,-50,-42,246,101,172,72,-68,321,-559,-70,4,-17,-44,-354,332528
168,20,-85,44,52,54,271,125,45,146,140,95,-37,65,73,57,-13,-66,-93,207,110,124,49,-113,265,-529,-88,-49,-75,-91,-295,332529
106,16,-101,39,24,22,249,-27,-69,13,166,-72,-197,115,56,-3,-38,-78,-113,146,39,63,8,-129,209,-592,-107,-63,-98,-114,-253,332530
106,15,-96,39,28,7,242,19,-119,-96,370,22,-141,56,19,-14,-84,-113,-156,138,60,53,-49,-160,199,-528,-137,-98,-124,-147,-244,332531
128,15,-86,34,34,7,248,-85,-116,-37,15,-9,-316,-28,33,23,-60,-85,-166,172,121,89,-50,-144,229,-437,-130,-104,-111,-135,-306,332532
148,25,-84,33,37,4,276,70,-46,-57,15,186,-207,54,-16,77,-27,-55,-178,213,211,141,-39,-124,278,-313,-104,-97,-92,-103,-331,332533
213,40,-102,13,36,16,350,358,-109,-10,178,114,-149,111,10,174,-19,-63,-213,297,443,234,-45,-169,402,20,-137,-100,-126,-120,-363,332534
215,44,-90,-3,35,42,339,350,-72,43,81,139,-310,86,-10,188,-30,-64,-217,286,513,246,-48,-178,397,130,-141,-109,-139,-126,-314,332535
191,27,-94,-33,15,22,298,35,-127,96,90,68,-140,11,13,209,-17,-52,-199,279,574,259,-29,-177,390,236,-137,-112,-154,-114,-355,332536
110,25,-71,-42,9,20,146,54,-139,-157,11,42,-86,-42,56,116,-20,-40,-135,173,399,161,-13,-123,252,19,-105,-85,-145,-100,-130,332537
70,20,-50,-28,17,28,-13,112,-55,34,-10,-15,15,76,70,43,-1,-29,-35,84,226,104,7,-52,165,-229,-41,-23,-81,-57,-55,332538
63,-1,-43,-56,9,20,-105,275,-46,189,-6,-87,-4,70,26,43,-3,-35,-21,57,215,104,5,-52,156,-270,-51,-14,-82,-42,-135,332539
69,-2,-34,-64,-3,0,-48,303,18,26,-102,-47,-1,15,50,72,8,-21,-64,76,288,145,0,-74,182,-183,-60,-48,-93,-38,-183,332540
100,15,-15,-28,11,5,143,-37,107,-62,99,57,77,174,75,87,6,-29,-91,95,350,162,-4,-86,210,-106,-73,-57,-99,-41,-114,332541
114,47,-33,18,27,19,253,-155,30,89,99,-15,84,-62,-9,106,-1,-30,-87,98,385,170,-1,-91,229,-59,-84,-53,-107,-44,-220,332542
100,44,-38,26,34,22,235,38,-75,-15,46,-56,7,-89,27,85,-2,-18,-64,88,327,142,5,-71,193,-115,-61,-42,-96,-38,-160,332543
160,50,-43,25,50,37,328,159,-62,-131,151,87,-59,-74,31,155,-2,-33,-113,164,460,187,-7,-105,270,96,-95,-65,-109,-59,-221,332544
203,57,-64,38,48,26,391,80,-88,-86,95,121,37,46,48,162,-38,-61,-182,189,532,201,-39,-166,273,246,-149,-114,-158,-114,-251,332545
141,51,-49,47,25,5,340,48,-50,129,175,-20,149,-161,50,90,-61,-69,-182,131,384,132,-73,-155,168,115,-127,-125,-163,-121,-148,332546
29,27,-13,9,0,-12,149,-32,35,126,45,-77,190,-379,17,-38,-59,-50,-124,18,65,-6,-81,-95,7,-251,-77,-102,-123,-95,35,332547
-9,1,-17,-16,-2,-4,81,-20,-15,-51,-68,-99,65,127,4,-69,-69,-78,-93,-4,3,-32,-60,-102,-6,-295,-82,-88,-115,-111,-25,332548
21,-1,-20,-26,11,20,55,-83,-62,-183,-517,-112,20,214,-57,-31,-65,-88,-102,39,77,-8,-55,-136,28,-183,-117,-98,-129,-124,-124,332549
24,4,-20,-7,-4,3,71,-139,-57,-162,-471,-6,-95,36,29,43,22,8,6,116,141,68,18,-35,98,-101,-30,-19,-32,-32,-8,332550
15,21,-35,3,-22,-19,106,176,47,-125,-109,58,-3,-6,53,85,66,51,66,161,171,116,74,30,134,-48,31,44,23,26,42,332551
-4,17,-42,7,-31,-37,66,147,65,-219,-54,82,-88,17,55,47,23,25,4,126,123,77,26,-5,93,-68,14,1,-9,-5,-2,332552
46,7,-58,0,-12,-25,95,196,-102,-143,113,-34,118,92,43,104,15,10,-40,175,258,122,19,-46,171,130,-38,-36,-41,-34,-87,332553
84,27,-32,-4,15,12,137,389,-50,4,251,-4,173,166,148,137,7,10,-24,203,345,160,22,-55,203,224,-43,-29,-45,-38,-113,332554
121,43,-41,-9,9,7,156,173,-56,-89,251,90,-104,145,160,194,8,-5,-48,244,496,223,19,-88,276,429,-76,-43,-69,-47,-229,332555
180,27,-59,-51,5,6,53,252,-123,-39,211,145,-187,209,168,226,-36,-45,-170,256,642,249,-38,-164,313,653,-163,-126,-148,-117,-346,332556
99,0,4,-73,7,31,-225,19,35,-93,-192,44,-91,47,28,70,-26,-18,-105,80,275,93,-59,-81,71,142,-53,-67,-92,-63,-59,332557
59,-29,8,-79,3,43,-145,0,101,-120,-244,-93,-38,-49,32,15,-29,-24,-64,4,122,19,-73,-53,-20,-125,-23,-53,-69,-32,15,332558
84,1,-12,10,19,29,224,244,29,-55,-101,-105,66,-201,-3,42,-32,-34,-69,18,169,47,-72,-62,11,-109,-37,-55,-90,-32,-12,332559
105,40,-49,77,18,7,417,260,10,-88,67,-159,-131,-153,-33,20,-106,-108,-155,-22,201,14,-148,-151,1,-95,-126,-143,-175,-113,-170,332560
65,16,-57,34,-10,-16,244,12,39,17,4,-171,-61,-174,-25,-26,-139,-130,-184,-75,149,-53,-180,-179,-47,-178,-148,-179,-216,-145,-173,332561
31,-2,-27,-5,-10,-16,53,143,0,50,189,-69,16,-186,22,-36,-93,-78,-101,-81,88,-55,-114,-112,-52,-306,-83,-119,-150,-75,-87,332562
152,11,-66,-47,1,-5,166,94,-73,108,135,111,126,-77,98,167,-40,-56,-119,131,476,153,-61,-131,219,219,-123,-95,-142,-58,-291,332563
537,108,-125,-42,72,63,661,359,-98,29,276,386,-130,130,199,592,-61,-114,-376,567,1523,562,-74,-394,770,1688,-372,-247,-332,-213,-853,332564
648,136,-140,-36,84,58,838,581,-220,-61,576,339,-273,241,167,701,-123,-160,-553,669,1922,647,-134,-548,877,2344,-491,-362,-472,-341,-984,332565
467,96,-111,-32,46,26,546,377,-185,-48,409,5,-117,62,69,432,-219,-224,-586,388,1469,380,-244,-545,506,1886,-503,-425,-523,-415,-857,332566
87,24,-34,-11,-8,-17,75,103,-146,18,-110,-307,-56,-177,-209,8,-185,-147,-335,-26,470,-12,-234,-284,-45,624,-264,-286,-334,-276,-260,332567
-54,21,32,24,-21,-3,-31,-202,65,51,-110,-267,-15,-101,-80,-68,-49,-2,-35,-74,35,-71,-91,-11,-153,46,-13,-69,-70,-50,126,332568
-32,13,29,10,-15,-2,-48,-216,186,17,16,-77,103,-184,21,-37,-39,-5,2,-24,13,-32,-95,26,-107,49,17,-29,-21,-11,102,332569
-30,-21,28,-40,-25,-16,-96,-38,98,95,-148,-63,210,-13,6,-37,-16,7,11,-4,-2,-21,-56,22,-101,31,20,-18,3,6,51,332570
-8,-10,31,-26,-11,-11,-70,36,-22,-62,-485,-143,115,-46,26,7,38,54,34,41,42,29,3,65,-59,88,34,7,36,40,110,332571
-11,5,18,-4,-13,-12,-24,135,-32,-40,-23,65,-108,25,10,30,57,68,84,63,66,47,33,93,-25,122,66,39,71,58,132,332572
78,25,-26,7,-5,-23,111,170,-21,65,15,152,-125,-48,61,117,25,27,24,145,281,132,23,3,100,416,-16,-1,9,7,-47,332573
389,79,-117,-1,36,-14,524,168,-14,10,258,156,-269,-67,152,435,-57,-84,-248,448,1131,416,-40,-298,517,1587,-300,-186,-231,-183,-644,332574
516,107,-121,2,48,7,697,66,-108,-55,196,169,-196,-31,99,549,-104,-123,-416,539,1531,507,-92,-437,632,2160,-408,-287,-374,-283,-841,332575
484,93,-79,-12,56,43,625,391,-63,-7,155,123,-50,-141,75,487,-151,-139,-450,442,1473,442,-154,-445,524,2127,-406,-310,-398,-299,-762,332576
113,39,33,-14,17,34,166,292,-3,-9,25,-134,121,-351,-3,109,-93,-44,-168,39,511,73,-129,-146,9,814,-131,-138,-185,-126,-56,332577
-89,9,52,6,-17,-5,-37,-179,8,151,79,-141,123,-239,-93,-76,-42,-2,8,-143,-27,-106,-84,23,-209,22,17,-28,-39,12,162,332578
-45,13,33,-20,-25,-9,-46,-112,-43,-73,93,-100,145,-69,-24,-3,-31,6,-21,-89,52,-57,-81,6,-130,73,-1,-37,-43,10,62,332579
-28,-6,31,-31,-23,-7,-93,2,29,-180,-34,-60,74,55,6,19,-6,32,35,-73,34,-40,-54,45,-106,-32,38,9,9,49,115,332580
-24,8,38,-11,-14,10,-99,19,14,-326,-50,-99,78,-4,-46,19,10,44,67,-67,23,-40,-31,64,-102,-97,58,38,29,69,48,332581
1,6,47,-4,-5,12,-65,135,64,-196,19,-80,64,-93,56,29,13,35,46,-60,34,-25,-25,48,-86,-102,42,21,14,52,33,332582
174,37,-18,-21,17,9,172,104,36,-104,77,-63,-25,-55,20,176,-74,-63,-162,95,487,134,-94,-170,140,543,-149,-116,-151,-91,-415,332583
520,85,-96,-27,68,51,551,221,-193,-54,304,50,-71,43,137,475,-198,-213,-510,408,1392,411,-217,-510,546,1845,-482,-355,-443,-339,-996,332584
556,89,-103,-46,69,66,545,234,-267,-222,357,83,-116,24,98,512,-213,-227,-574,434,1586,435,-236,-557,557,2200,-518,-412,-515,-391,-901,332585
426,73,-60,-62,40,49,370,199,-238,-168,180,-23,-16,26,42,416,-160,-148,-456,336,1316,339,-197,-429,382,1923,-383,-334,-419,-302,-583,332586
78,37,30,-39,-12,0,17,114,-39,-60,147,-149,142,-16,0,131,-28,15,-122,58,497,79,-79,-82,-22,810,-50,-94,-132,-59,127,332587
-92,4,51,-32,-52,-47,-153,10,148,121,3,-19,132,-193,16,10,56,106,92,-30,59,-19,1,112,-154,227,123,47,50,90,392,332588
-117,-7,39,-49,-55,-40,-191,118,116,-20,256,17,-26,-59,-41,-5,38,86,91,-27,-2,-34,-10,106,-138,154,99,46,69,78,291,332589
-87,-11,37,-43,-40,-22,-180,42,-29,-117,100,56,-6,-39,-39,3,42,81,73,-11,0,-37,-2,88,-117,146,81,26,65,65,302,332590
-72,-9,61,-28,-21,-5,-175,-211,139,81,49,-41,-101,-8,87,3,65,84,100,0,-26,-28,37,92,-108,90,85,46,76,73,344,332591
-35,-13,77,-16,2,32,-164,-45,155,-13,7,14,215,-23,73,-15,30,45,84,-14,-20,-27,23,54,-95,89,53,26,54,42,122,332592
14,-10,52,-3,20,48,-115,-19,134,27,-93,-6,291,-15,-45,-4,-12,-9,38,3,40,-26,-7,-4,-70,174,-16,-22,-7,-7,-20,332593
212,35,14,8,61,72,143,44,97,-32,98,85,-2,-103,23,170,-46,-62,-122,173,505,144,-46,-159,163,826,-165,-135,-134,-103,-244,332594
265,45,-6,2,52,47,281,30,55,-72,174,194,105,-174,118,237,-74,-77,-196,226,711,202,-65,-216,230,1107,-208,-165,-189,-138,-388,332595
193,34,-13,-3,23,4,264,82,85,95,16,167,244,-178,4,200,-54,-48,-159,170,620,161,-65,-168,166,991,-152,-130,-168,-116,-249,332596
9,17,18,1,-15,-40,100,132,9,25,-89,-142,96,-204,0,59,-7,28,-28,11,221,26,-33,-20,-38,446,-14,-40,-39,-15,190,332597
-71,7,29,9,-23,-50,4,148,80,38,-104,-48,-117,-40,-27,-28,-4,37,7,-92,-8,-51,-42,32,-145,132,32,-8,-6,31,129,332598
-51,5,13,-6,-36,-42,-32,-50,46,18,-62,-58,1,-115,-73,-1,-10,19,-12,-73,63,-27,-45,10,-97,214,7,-16,-10,19,136,332599
-88,1,39,-21,-16,-18,-137,-231,41,91,-92,-26,143,-55,-21,-9,67,81,112,-91,-53,-25,35,117,-118,38,103,82,84,98,234,332600
-56,5,26,-7,-5,-7,-141,46,-87,-48,150,-27,104,-70,14,25,61,75,123,-64,11,7,41,108,-64,109,82,80,72,104,174,332601
6,0,23,-16,2,0,-79,-50,-26,-132,41,-55,13,123,59,61,46,56,78,-16,132,58,12,59,-2,275,39,52,34,77,90,332602
47,12,29,-9,12,11,-37,-15,-3,47,-75,-70,44,78,32,74,17,22,0,9,208,78,-30,3,21,376,-5,1,-3,17,-79,332603
185,30,-16,2,33,19,112,94,-68,68,56,-83,99,107,45,163,-61,-66,-162,118,535,153,-88,-166,164,849,-156,-126,-145,-94,-438,332604
239,28,-24,-15,30,28,157,140,-17,-31,-52,-97,9,10,-2,215,-72,-80,-210,174,676,194,-100,-208,224,1076,-199,-151,-190,-131,-414,332605
205,40,5,-27,25,36,164,180,134,38,-123,103,28,6,2,242,-3,-8,-121,193,630,200,-51,-112,236,1010,-113,-76,-108,-65,-199,332606
19,15,25,-29,-9,-3,-17,101,155,-59,-173,3,2,-57,-1,75,-6,25,-26,36,222,32,-63,3,23,458,0,-7,-25,-2,5,332607
-75,4,25,-28,-27,-44,-139,-58,164,-84,-270,102,2,-95,-11,-15,-5,32,39,-34,-17,-63,-56,50,-83,126,50,11,10,39,86,332608
-105,-4,31,-24,-35,-44,-171,105,13,14,131,70,29,-71,42,-3,41,79,96,-14,-88,-55,7,106,-82,-1,106,67,73,90,214,332609
-100,-12,48,-13,-27,-24,-179,88,62,110,131,24,187,-71,-9,-26,43,68,75,-26,-146,-71,19,95,-107,-117,90,68,74,83,225,332610
-97,-29,30,-46,-33,-17,-200,34,23,72,-7,-73,113,-149,-43,-64,-9,11,24,-61,-193,-107,-27,33,-140,-169,34,7,18,17,122,332611
-77,-23,34,-38,-25,1,-179,44,14,-46,-57,-85,164,-250,22,-62,-14,-9,33,-52,-167,-96,-37,12,-130,-150,22,-10,1,8,167,332612
-20,1,37,-11,3,23,-116,-90,42,-64,-46,-75,256,20,-12,-33,-22,-15,48,-10,-77,-71,-44,-2,-90,-49,13,-5,-12,4,80,332613
35,6,19,-6,6,23,-50,-42,-48,-85,46,-16,84,152,17,10,-48,-26,-22,19,50,-39,-54,-48,-58,130,-33,-49,-49,-29,-55,332614
94,6,-15,-25,-2,5,73,-167,-2,81,201,28,87,115,31,91,-46,-47,-87,88,259,35,-57,-114,24,415,-106,-78,-104,-74,-162,332615
94,29,-9,-4,9,-9,168,67,10,-9,266,19,92,3,68,94,-61,-60,-108,72,297,38,-61,-134,31,482,-116,-96,-132,-90,-177,332616
-24,1,-28,-25,-36,-60,83,-200,-47,32,152,-8,42,138,17,27,-40,-16,-37,-8,121,2,-55,-48,-53,278,-39,-47,-61,-34,-49,332617
-62,1,-12,-18,-39,-76,-39,-296,-134,-154,-46,-30,-55,-11,-130,12,9,35,26,-26,31,15,-6,23,-72,168,19,6,16,26,30,332618
-11,17,7,-19,-9,-27,-139,-150,21,-187,-82,145,-199,58,-62,35,9,25,2,-7,116,51,4,-10,-23,319,-1,-28,-3,3,9,332619
-26,-11,20,-45,-16,-8,-144,-237,35,-145,28,-14,-46,-10,-13,59,65,61,89,19,138,103,63,65,18,345,55,54,58,69,54,332620
4,-10,17,-22,-9,10,-37,-181,-81,-67,75,-15,-25,-162,-28,72,58,67,89,36,181,130,49,69,66,415,53,60,57,68,-15,332621
28,-6,1,-21,-6,-4,-9,-113,-70,7,-75,74,-98,-81,-18,56,-13,4,0,21,225,114,-26,-13,53,506,-30,-13,-10,-15,-34,332622
-21,3,23,-10,-14,-2,-49,-2,3,13,-44,117,-95,-16,-35,43,6,15,24,-3,161,69,-24,7,8,419,0,2,4,12,37,332623
97,29,-31,-9,-8,-24,115,125,-15,41,214,66,-12,176,-12,182,-2,-18,-63,159,517,195,-18,-98,204,910,-98,-57,-75,-44,-270,332624
105,33,-35,-25,-22,-44,148,161,-7,272,112,139,-162,237,-43,247,6,-12,-93,218,659,221,-7,-115,257,1084,-115,-62,-100,-64,-311,332625
35,29,-21,-45,-38,-66,101,-41,57,28,89,44,-246,252,8,266,59,69,-7,221,589,219,62,-28,240,961,-20,15,-24,22,-66,332626
-113,-19,5,-72,-55,-73,-137,-353,5,-105,44,-36,46,59,53,88,71,91,71,37,136,25,61,71,-5,322,78,52,51,64,156,332627
-56,-32,24,-70,-26,-30,-218,-128,-92,-27,-176,-129,-82,-51,0,-3,13,43,29,-27,-38,-62,-5,45,-91,78,50,9,27,39,39,332628
-20,-32,50,-64,-7,-2,-180,34,113,94,121,-107,-9,-189,-94,-12,16,59,56,-36,-105,-77,-2,86,-88,-24,108,30,59,74,85,332629
21,-1,46,-9,23,52,-93,113,132,3,369,-135,241,-139,-55,-38,-45,-22,-19,-62,-101,-106,-63,1,-90,-14,23,-34,-23,-1,-51,332630
-2,-4,31,1,18,49,-97,-33,-19,103,119,-171,215,-4,-91,-88,-85,-49,-65,-100,-158,-151,-93,-55,-139,-105,-47,-76,-72,-56,-80,332631
-30,-12,20,-15,-2,11,-122,-99,66,187,42,-231,69,-44,-154,-72,-33,-9,-8,-85,-186,-132,-35,-12,-120,-176,-4,-19,-27,-15,27,332632
1,-2,8,-33,-17,-8,-89,10,-21,119,-23,-143,-122,-89,-73,-20,-15,-8,9,-33,-92,-76,-13,-7,-46,-58,-4,-3,-6,-1,-67,332633
167,19,-27,-44,8,23,78,24,-139,126,-92,12,-14,-5,-44,135,-51,-75,-127,129,368,85,-60,-151,183,571,-144,-97,-121,-89,-385,332634
247,42,-29,-53,36,36,125,521,-182,181,-59,35,158,44,51,261,-25,-42,-132,241,639,200,-40,-168,310,956,-138,-94,-129,-98,-344,332635
208,46,-46,-46,15,-5,90,179,-97,-71,-110,-4,125,81,17,285,-16,-24,-143,237,692,220,-53,-154,304,1048,-129,-89,-135,-86,-263,332636
25,28,0,-3,-14,-37,-100,-106,14,-57,-163,94,44,89,-22,127,13,31,-41,80,313,91,-22,-22,74,572,-11,-25,-49,-16,-8,332637
-80,1,32,-8,-28,-50,-284,50,14,-65,56,72,160,-45,-26,37,85,112,140,13,25,37,55,137,-41,188,137,90,101,95,209,332638
-58,-12,12,-28,-33,-58,-158,2,-5,97,148,-70,-48,135,15,54,65,85,114,40,104,75,41,91,19,312,92,72,88,81,103,332639
-50,21,30,8,-8,-35,35,-102,-25,111,82,-99,-48,-61,-10,1,1,13,14,3,92,32,-9,-5,-28,358,-4,-11,3,8,21,332640
-79,9,0,4,-18,-53,53,-70,8,167,-112,-48,-103,-68,-4,-69,-50,-47,-37,-50,20,-22,-51,-51,-96,304,-60,-70,-51,-45,-3,332641
-54,14,-14,19,-14,-55,42,-45,-84,73,-124,117,-147,-9,-93,-60,-40,-25,-9,-45,3,-25,-36,-26,-108,281,-35,-53,-19,-27,18,332642
60,31,-5,54,23,-9,81,18,-22,-64,98,-12,-242,61,-46,-35,-77,-73,-70,-13,102,-15,-75,-100,-50,440,-99,-111,-78,-80,-82,332643
213,30,-41,32,43,15,178,131,-7,-142,161,-22,-202,124,-60,71,-155,-175,-239,77,425,52,-173,-266,103,913,-245,-228,-237,-198,-443,332644
272,45,-35,19,54,31,229,143,27,38,168,47,-15,5,19,186,-96,-112,-237,161,617,149,-115,-249,210,1140,-236,-192,-215,-171,-430,332645
176,27,-6,-5,27,16,177,-91,-4,-90,128,6,23,-21,33,170,-18,-25,-125,124,480,125,-34,-124,168,919,-127,-86,-104,-81,-80,332646
29,20,40,-8,10,10,20,-136,105,-136,23,-93,-79,-173,18,41,2,10,-31,-16,121,-24,-19,-15,-11,404,-18,-13,-30,-8,124,332647
-33,3,51,8,-5,6,-67,39,46,-51,-110,-200,199,-128,-48,-34,-3,12,-8,-98,-67,-88,-36,15,-99,119,12,-2,-3,10,155,332648
-61,5,39,15,-5,7,-37,-86,10,82,-145,-178,231,-16,-25,-58,-24,-13,-30,-114,-108,-116,-49,-15,-124,44,-12,-42,-33,-15,121,332649
-59,11,36,16,10,6,-11,28,-30,54,-154,-88,-10,-37,-44,-46,-27,-5,-9,-101,-112,-97,-56,0,-94,25,4,-29,-15,8,68,332650
-37,8,25,4,-9,-10,-13,-68,-12,-135,-68,-19,29,-129,-85,-13,-3,12,41,-76,-74,-76,-24,30,-54,30,39,10,26,35,36,332651
-51,-4,20,5,-10,-4,-30,-73,-42,-15,-29,-119,218,-52,-37,-12,13,27,55,-71,-90,-73,-8,41,-67,-26,53,22,38,43,63,332652
-54,2,25,19,-2,1,-31,-27,-1,-31,-82,-155,137,0,-22,-32,18,32,58,-82,-128,-70,-2,48,-84,-75,54,29,42,49,60,332653
-36,1,17,19,-2,8,-6,-37,-62,4,-112,-38,127,-6,-39,-27,-10,10,21,-64,-83,-61,-28,16,-51,-13,20,5,19,15,-67,332654
-11,7,28,33,11,17,20,201,9,15,23,-4,54,6,-51,-39,-41,-29,-43,-81,-77,-76,-72,-31,-50,21,-25,-51,-22,-18,-76,332655
10,9,25,25,9,6,54,138,4,6,254,-97,-61,54,-7,-15,-20,-14,-42,-42,-30,-46,-44,-33,-31,81,-31,-46,-17,-13,-36,332656
18,-2,19,5,6,6,66,-85,-11,86,74,30,25,31,19,-3,11,4,-15,-9,-3,-23,-9,-10,-33,134,-5,-19,-2,-4,9,332657
-41,-12,26,5,-5,11,52,-117,14,-75,-155,-24,-33,-32,-30,-71,-7,-10,-5,-51,-116,-66,-20,-6,-121,19,-1,-22,6,-18,14,332658
1,2,25,23,2,19,91,-53,5,-109,-109,-149,14,62,6,-25,-14,-11,-6,21,7,-8,-21,-24,-68,216,-28,-15,-3,-28,-17,332659
2,1,15,8,-3,11,-38,23,-9,135,-39,52,-101,12,-16,-34,-19,-17,-1,13,-15,-15,-36,-24,-89,243,-13,-24,-14,-28,20,332660
4,-9,23,-7,1,10,-90,-69,49,309,-95,5,-95,20,-16,8,29,25,36,47,9,20,14,15,-54,292,38,0,32,17,64,332661
-13,-5,13,-12,5,10,-86,-105,-8,71,64,-83,68,8,-54,11,66,57,94,65,-16,35,64,62,-22,258,74,53,82,55,145,332662
14,-3,7,12,11,13,-31,-26,-110,-5,19,-8,181,119,-33,21,66,45,86,76,19,41,64,46,16,296,47,51,68,47,128,332663
53,6,18,22,28,40,40,176,-40,47,-55,146,144,87,0,43,27,16,40,76,96,40,21,2,53,387,2,9,20,11,17,332664
105,15,-3,8,30,40,101,106,11,9,67,86,-30,35,-5,64,-38,-48,-61,79,213,54,-51,-84,108,539,-87,-55,-54,-56,-163,332665
77,5,-3,4,14,19,63,32,39,-172,5,90,25,-104,-12,25,-54,-60,-94,9,155,9,-87,-99,68,435,-93,-68,-71,-77,-215,332666
-27,-11,13,-10,-18,-14,-54,-34,77,-119,-118,30,-61,-97,-26,-21,10,2,3,-63,-34,-52,-17,12,-28,128,10,1,2,1,69,332667
-58,-3,12,2,-13,-17,-47,-146,116,-74,123,-67,-43,-82,-11,-17,46,22,43,-62,-60,-43,31,44,-17,45,29,35,33,40,83,332668
-56,-1,0,9,-16,-27,-19,-187,-5,-128,29,-24,-19,-72,-22,-35,23,-9,8,-89,-71,-60,-5,1,-38,5,-7,0,7,16,29,332669
-77,-18,3,-7,-21,-35,-55,-148,42,109,-79,-57,-204,-59,38,-40,12,1,46,-107,-117,-80,-7,26,-68,-64,21,12,12,19,24,332670
-47,-12,-1,-9,-17,-34,-29,-101,-91,37,-43,16,-50,-16,-28,11,32,33,62,-52,-36,-36,13,43,-9,24,50,33,33,53,-25,332671
-37,7,6,0,-6,-37,-5,-64,-45,-56,-166,32,-186,81,-59,27,44,39,64,-30,-33,-23,30,60,-2,18,54,61,51,63,89,332672
-57,-7,0,-2,-12,-44,-7,-76,-32,-51,-199,-21,-184,-99,6,-8,27,21,28,-52,-58,-47,21,39,-24,-16,31,35,37,37,26,332673
-65,-2,-7,3,-20,-48,-18,14,23,-13,-97,-25,145,85,-2,-10,34,36,36,-50,-76,-50,22,58,-17,-50,44,46,49,51,32,332674
-2,16,-9,25,0,-21,57,-39,-42,-77,182,-26,-113,203,-52,39,17,6,-8,5,42,5,6,16,51,121,-4,0,11,18,-27,332675
70,18,-9,13,21,11,122,15,-148,-30,56,27,-96,109,-9,81,-11,-11,-36,53,174,45,-14,-42,93,333,-63,-28,-35,-32,-97,332676
60,-2,2,-14,12,29,93,145,-7,112,78,25,-128,-118,-56,35,-21,-36,-58,19,126,12,-29,-64,35,289,-62,-45,-59,-47,-146,332677
-9,1,35,3,22,50,50,210,30,81,7,3,42,-66,10,-46,-6,-5,-9,-41,-64,-44,-13,-8,-59,65,-9,-18,-14,-17,-28,332678
0,12,9,5,23,35,66,-48,-105,67,58,200,72,2,6,-11,14,0,3,12,-2,4,3,-1,-15,180,-7,-6,-1,-12,-38,332679
39,15,-9,1,14,18,3,44,-213,-46,10,275,13,34,-24,34,3,-1,-23,61,107,55,-15,-25,45,365,-13,-24,-21,-24,-57,332680
12,-5,-16,-30,-6,-12,-70,23,29,114,-136,111,11,-141,-26,32,19,6,-24,58,85,52,-1,-26,12,358,-8,-15,-8,-23,3,332681
23,11,11,-6,10,13,-36,-44,108,95,-143,-12,-1,-58,4,35,19,2,-32,56,88,45,2,-16,3,363,-2,-17,-2,-28,-75,332682
14,-15,-13,-28,-6,-3,-26,37,-7,-46,50,-118,-166,14,-7,33,10,4,-20,36,90,37,-9,-14,-1,376,-10,-12,-12,-37,-31,332683
303,41,-70,-21,52,41,339,277,-110,-45,204,114,-213,222,76,332,-19,-51,-190,336,818,328,-14,-207,414,1356,-211,-126,-152,-141,-564,332684
609,120,-118,-13,111,81,680,239,-121,-44,509,244,-97,224,132,600,-131,-181,-496,561,1620,541,-124,-519,743,2498,-480,-341,-425,-353,-1064,332685
629,135,-118,-21,104,85,652,199,-184,58,468,257,-169,385,69,601,-190,-222,-586,526,1744,513,-190,-591,695,2732,-540,-410,-518,-415,-1027,332686
200,48,-32,-50,5,4,135,-75,-109,146,133,159,-188,24,-20,253,-82,-65,-275,146,821,165,-118,-249,176,1492,-215,-202,-268,-199,-103,332687
-180,-18,43,-46,-59,-63,-292,-217,-40,-18,-92,-37,-149,-209,-60,-51,67,105,94,-154,-122,-112,18,134,-214,173,145,63,66,78,460,332688
-133,-2,46,-9,-29,-51,-209,-237,87,-137,-312,-5,35,-21,53,-12,101,116,151,-83,-88,-49,66,151,-108,163,167,116,117,119,321,332689
-131,-8,12,-36,-35,-59,-95,-171,27,-206,-396,9,-27,55,36,12,85,94,138,-61,-65,-41,57,135,-73,189,142,102,111,106,215,332690
-126,5,32,-37,-24,-36,7,-243,89,-250,-165,49,-37,208,30,17,78,88,114,-47,-61,-30,48,124,-54,191,130,95,109,114,201,332691
-117,16,37,-38,-21,-22,6,-257,94,-204,54,33,-63,308,38,17,84,103,123,-51,-81,-35,53,135,-56,141,139,105,129,131,168,332692
-45,5,20,-23,0,-11,-37,-269,-4,-59,-36,24,-266,28,10,33,35,35,45,-29,20,-12,18,50,-4,275,38,38,55,56,33,332693
393,61,-68,25,95,52,362,142,-91,-44,144,33,-148,-105,-17,368,-126,-178,-351,321,1025,300,-132,-382,467,1712,-362,-243,-300,-240,-769,332694
591,87,-112,7,110,67,654,404,-78,-157,432,93,-37,144,19,574,-198,-236,-571,504,1638,485,-209,-578,710,2623,-534,-386,-475,-380,-1130,332695
752,141,-128,-2,115,91,901,470,-97,-120,450,279,-141,313,24,784,-159,-206,-625,695,2152,676,-189,-628,922,3376,-577,-399,-522,-406,-1251,332696
297,62,-31,-50,11,8,363,151,-60,-157,174,-82,-42,-74,-94,373,-84,-76,-354,232,1158,260,-136,-317,304,2066,-286,-226,-316,-238,-227,332697
-173,-15,78,-35,-59,-44,-163,-210,167,-17,-62,-312,81,-91,-79,-84,17,54,67,-213,-84,-153,-29,86,-276,362,84,31,21,36,469,332698
-145,6,80,-15,-31,-19,-178,-152,159,-63,-82,-142,174,-222,-42,-77,41,53,128,-163,-139,-120,-10,122,-220,242,116,73,85,87,288,332699
-153,-12,70,-26,-42,-18,-328,-83,115,-37,-194,78,66,-34,-25,-84,52,66,112,-162,-218,-128,-3,128,-216,110,136,78,102,94,313,332700
-140,-23,57,-40,-33,-28,-386,-24,50,61,-133,-124,68,180,-37,-70,71,78,112,-132,-214,-108,21,121,-190,86,128,83,108,94,271,332701
-103,-18,69,-31,-20,-8,-277,-90,214,5,38,-108,155,167,-30,-1,115,112,164,-50,-105,-29,79,154,-77,191,161,133,151,138,262,332702
70,10,-5,-23,-9,-10,55,1,20,-101,49,1,123,27,38,178,80,59,42,130,334,144,68,28,179,786,18,47,49,57,-163,332703
660,122,-123,-17,107,85,794,314,-173,-177,331,152,-46,147,170,710,-102,-168,-492,652,1812,628,-102,-520,880,2865,-499,-308,-380,-304,-1238,332704
782,133,-137,-49,116,98,876,322,-283,-239,390,50,138,143,100,795,-217,-256,-715,681,2233,674,-242,-714,928,3553,-666,-473,-605,-484,-1330,332705
630,117,-94,-48,78,61,666,411,-331,-97,439,107,223,-93,1,632,-236,-248,-676,494,1927,485,-294,-644,655,3244,-593,-473,-604,-469,-1016,332706
170,62,34,-49,-3,-3,164,317,5,122,100,-2,29,-139,-73,259,-100,-61,-302,105,904,130,-164,-253,98,1888,-212,-215,-299,-209,-114,332707
-290,-15,117,-39,-82,-70,-275,-148,228,-84,-104,-184,86,-292,-155,-124,29,80,107,-262,-203,-214,-47,139,-399,369,131,45,38,64,473,332708
-261,-7,97,-11,-62,-55,-261,-170,22,4,-45,-196,101,-71,-70,-122,42,76,145,-235,-268,-194,-7,139,-357,256,111,66,80,85,391,332709
-220,-20,75,-37,-65,-64,-369,-303,6,-82,-309,-77,11,-154,-129,-104,66,76,145,-192,-265,-162,22,141,-310,226,122,86,112,103,395,332710
-171,-43,69,-48,-55,-50,-439,-182,122,61,-516,-43,-141,-87,-80,-81,53,57,112,-170,-242,-146,-6,117,-272,253,118,80,99,98,369,332711
-114,-40,81,-40,-28,-17,-399,-153,145,-173,-196,-58,37,29,-45,-95,3,18,57,-175,-227,-149,-38,70,-255,285,73,28,57,51,205,332712
-75,-24,72,-2,-9,-8,-139,43,105,-44,122,65,207,10,-55,-40,17,36,53,-115,-117,-90,-25,66,-172,401,67,23,59,54,172,332713
118,31,17,39,25,13,297,103,10,-80,237,112,-47,179,24,188,33,24,-36,119,391,129,4,-34,130,1078,-16,-20,6,8,-26,332714
41,8,-8,17,-9,-20,199,-326,79,-192,-33,-35,-133,135,-20,61,-54,-55,-117,-23,262,0,-68,-113,-16,932,-100,-101,-98,-93,-56,332715
-94,-16,25,11,-22,-4,-14,-149,16,-185,33,-136,-68,63,-47,-114,-66,-44,-50,-198,-120,-168,-66,-55,-236,417,-47,-80,-53,-73,117,332716
-115,6,41,21,-17,1,-43,-66,19,61,-42,-225,20,30,-42,-91,-1,12,61,-179,-218,-154,2,51,-213,254,50,9,40,24,198,332717
-61,15,18,19,-14,3,35,-104,67,1,-193,-198,-122,-199,-55,11,52,48,78,-67,-73,-55,28,82,-80,404,85,52,74,78,202,332718
-61,4,17,22,-8,-3,-13,15,100,-208,-223,-184,-19,-241,-84,4,51,48,94,-74,-89,-52,53,69,-78,348,72,52,68,71,192,332719
-86,-12,33,-2,-23,-15,-96,-123,180,-84,-154,-176,169,-219,-43,-17,75,68,131,-86,-155,-61,81,104,-91,197,90,81,108,89,241,332720
-59,-7,73,1,4,23,-113,-115,140,-114,50,-31,131,-84,-23,-35,44,45,119,-106,-200,-87,38,91,-93,128,81,81,104,70,183,332721
-41,-16,74,9,15,43,-143,-76,31,-84,-49,-85,237,-137,5,-112,-52,-52,24,-180,-257,-162,-60,-9,-147,75,3,-2,7,-6,34,332722
-49,-12,73,0,13,30,-116,-200,25,75,-10,74,286,-68,49,-63,-1,-5,73,-125,-207,-114,-10,35,-117,106,41,38,48,33,81,332723
-92,-5,62,-4,-14,-4,-123,-246,79,35,126,26,270,-88,53,-48,50,61,145,-101,-238,-85,49,104,-127,41,104,92,117,87,182,332724
-73,-7,54,-18,-14,5,-82,-5,60,-96,-98,-20,88,90,-48,-24,12,21,67,-79,-134,-70,11,31,-93,195,47,38,53,38,135,332725
-75,-17,41,-20,-11,16,-152,108,10,143,-179,-4,19,-14,-81,-43,9,20,44,-94,-157,-73,8,31,-128,192,34,22,37,32,102,332726
-88,-24,27,-2,-12,10,-248,-77,-99,3,-196,-69,337,55,-91,-110,-3,14,67,-150,-285,-110,1,40,-192,46,36,17,49,29,153,332727
4,-6,23,12,7,16,-141,-14,-46,117,1,15,195,264,2,-22,36,41,82,-50,-133,-32,42,67,-83,226,68,58,85,53,116,332728
18,-2,26,12,3,4,-79,-6,21,28,62,59,-54,81,8,12,79,73,123,-20,-77,7,74,108,-32,279,106,104,119,99,155,332729
-2,-7,36,33,6,6,-30,-59,161,122,170,13,31,-62,43,-7,81,73,123,-43,-108,2,73,111,-41,229,110,113,122,97,181,332730
-48,0,38,70,18,9,10,216,220,222,-11,-22,6,22,-15,-63,57,45,95,-83,-203,-42,35,104,-99,121,96,92,102,67,205,332731
-67,-13,15,62,-1,-6,5,88,115,29,61,-84,-222,-214,-27,-94,11,4,46,-110,-221,-67,5,50,-123,113,40,29,63,39,156,332732
-76,-16,15,37,-20,10,-67,-47,12,44,123,-22,-156,-112,-75,-106,-23,-15,15,-132,-236,-90,-13,23,-142,98,20,8,45,5,172,332733
-270,-55,66,4,-47,-14,-329,-246,85,-32,-156,-95,-11,5,-81,-267,64,79,213,-299,-723,-236,61,221,-361,-603,213,152,200,140,483,332734
-259,-48,44,-4,-36,-29,-333,-269,124,10,-267,-43,203,-101,1,-228,120,116,289,-230,-702,-182,115,273,-288,-633,261,213,265,202,462,332735
-347,-61,67,-4,-38,-25,-464,-412,116,94,-331,93,127,-252,-33,-303,132,149,344,-310,-957,-269,124,344,-390,-1004,339,257,322,253,600,332736
-200,-53,39,20,-17,-1,-323,-165,108,-55,-316,78,55,42,36,-213,70,62,219,-198,-679,-190,88,201,-214,-644,184,152,206,156,224,332737
-25,-31,5,18,5,10,-142,-44,44,63,-20,50,70,16,25,-78,-1,-23,41,-66,-246,-68,28,15,-14,-71,11,39,59,14,-3,332738
-23,-44,5,7,7,8,-80,44,-7,212,22,45,1,21,2,-59,-14,-34,11,-75,-208,-68,4,-7,0,-30,7,24,31,-11,-45,332739
-73,-45,-6,15,-3,-9,-29,156,78,18,-27,11,27,98,-51,-110,-20,-18,54,-118,-324,-130,8,32,-60,-196,33,37,55,13,52,332740
-25,-12,-19,44,-3,-6,102,35,-3,-166,-43,2,147,96,9,-78,-58,-47,-13,-81,-208,-100,-14,-26,-9,-32,-19,-9,5,-23,-2,332741
1,-8,-31,18,-2,-16,102,11,-50,-19,32,-55,-100,103,35,-25,-49,-46,-55,-45,-83,-59,-26,-65,31,127,-43,-35,-27,-43,-95,332742
-121,-15,22,-10,-10,-8,-215,-109,103,-87,-238,-26,-105,36,-40,-144,5,28,78,-161,-392,-151,18,79,-142,-312,109,52,73,54,291,332743
-689,-132,140,-37,-125,-100,-1039,-463,189,39,-612,-197,12,-25,-165,-625,211,281,603,-643,-1826,-595,201,638,-814,-2330,646,436,533,438,1421,332744
