-54,3,16,4,-5,-24,-10,39,-63,-15,0,-23,76,24,87,-10,4,37,13,-56,-61,-38,-6,44,-70,119,31,4,13,28,79,573580
-18,19,36,16,8,3,29,31,-24,-158,146,-32,40,141,37,5,18,37,17,-24,-17,-13,-2,51,-40,179,41,8,19,30,66,573581
40,29,24,5,14,29,90,89,88,-55,76,32,-80,-76,-37,76,-11,14,-17,52,141,38,-25,10,81,388,-9,1,15,-1,-90,573582
98,16,-12,-20,16,10,122,241,59,62,-94,-14,-120,-163,-11,134,-62,-46,-118,101,352,69,-70,-74,243,710,-104,-60,-68,-66,-230,573583
85,13,-29,-35,-1,-4,35,181,65,98,32,100,-32,-97,-22,134,-71,-58,-165,88,367,47,-87,-121,238,762,-139,-108,-110,-100,-233,573584
48,28,12,-28,5,11,-106,152,106,44,27,100,67,-187,-13,103,-30,-10,-74,51,245,19,-41,-43,146,576,-62,-33,-46,-42,-135,573585
-53,5,17,-33,-25,-13,-269,-98,-26,53,-17,60,65,-105,-18,32,34,47,39,-13,4,-13,9,70,-31,205,45,69,49,45,137,573586
-62,5,43,-35,-17,-10,-269,-119,-21,-79,-10,-14,-51,-34,5,33,52,51,56,6,-9,18,25,88,-46,169,68,69,83,69,121,573587
-49,-4,58,-24,7,12,-221,-76,91,5,69,-65,71,-94,68,-29,21,30,53,-42,-100,-34,10,66,-113,54,47,39,49,38,69,573588
-13,4,36,2,15,16,-8,32,33,-89,263,-49,-160,54,53,-66,-24,-40,-25,-93,-92,-93,-6,-34,-136,76,-28,-48,-48,-47,11,573589
-39,1,19,3,-12,3,42,-132,-5,80,87,-14,57,18,-36,-69,-10,-2,4,-107,-136,-88,-3,7,-156,-25,3,-17,-11,-23,85,573590
-20,2,8,-9,-11,6,22,4,-89,131,-67,118,-40,8,-84,-29,26,35,28,-55,-82,-38,7,35,-92,13,15,18,27,14,155,573591
17,0,-3,-2,-8,6,12,4,-113,148,-192,61,-142,-45,-52,4,17,20,-13,-17,-7,-13,3,-4,-41,130,-22,-9,4,-10,34,573592
22,-2,-10,6,-9,1,-4,-87,-91,138,-9,3,-149,-58,-13,-7,-3,0,-51,-2,17,-6,-30,-19,-16,164,-29,-42,-3,-20,-22,573593
6,17,11,34,-2,2,55,13,-48,150,152,64,-107,-66,-4,26,27,40,-6,31,67,48,-5,46,45,237,23,20,54,31,64,573594
-49,33,20,23,-12,-14,41,84,-9,81,169,114,-171,4,-21,4,32,49,36,2,-31,28,-9,76,-19,119,63,48,75,68,106,573595
-66,13,-2,1,-21,-16,-6,-111,79,80,128,73,25,83,-24,-59,-14,6,18,-75,-127,-54,-39,29,-108,9,13,-1,27,13,133,573596
-15,16,10,-5,-2,13,16,-123,79,-39,-45,1,187,84,10,-12,-8,7,39,-34,-42,-10,-15,27,-37,128,15,11,50,14,23,573597
-12,16,15,-13,-6,8,37,-93,-51,-4,-41,30,23,200,13,36,42,46,62,11,15,38,51,73,6,209,49,38,70,49,-2,573598
-19,-6,-10,-10,-11,-7,67,-47,-115,10,-77,-85,1,119,23,36,31,36,22,14,26,24,47,40,5,246,15,1,32,12,6,573599
55,14,-19,7,11,2,152,91,-123,19,52,-92,166,75,18,80,-32,-29,-72,56,212,35,-10,-58,125,533,-75,-75,-48,-60,-120,573600
-16,16,-7,15,-6,-20,75,199,-87,104,44,7,26,64,10,37,-20,-24,-37,4,93,-9,-3,-25,41,383,-51,-42,-40,-35,78,573601
-148,10,6,7,-38,-40,-47,-129,-27,184,-104,75,95,49,-7,-21,85,78,120,-57,-169,-26,90,141,-139,-54,101,110,99,86,295,573602
-150,-9,12,-17,-30,-42,-154,-177,64,50,-159,6,-108,-28,5,-52,95,100,160,-78,-274,-32,106,172,-213,-255,135,138,138,116,237,573603
-91,-28,21,-25,0,-5,-266,6,37,-146,-166,-130,-41,-141,-77,-114,36,34,97,-125,-334,-88,34,115,-275,-357,88,78,80,63,209,573604
-52,-16,30,-6,12,27,-162,85,98,-175,-132,-129,101,-38,-7,-84,52,52,109,-89,-282,-66,58,113,-233,-316,93,91,96,65,219,573605
9,13,10,14,18,9,94,-89,22,-36,53,-50,205,90,68,16,63,57,122,15,-63,8,91,90,-62,-39,61,90,101,55,118,573606
45,30,-9,19,21,-6,220,158,8,0,-102,-22,37,40,24,21,-16,-38,1,29,75,0,24,-44,46,196,-50,-29,-18,-45,-129,573607
46,18,-8,11,18,-8,165,231,92,26,67,-6,42,128,-24,5,-33,-52,-47,27,85,9,-22,-58,62,233,-48,-60,-33,-51,-129,573608
33,7,-5,-26,9,-10,13,52,81,132,128,-45,-93,109,-6,5,-43,-42,-58,19,82,24,-65,-43,73,252,-50,-46,-28,-41,-90,573609
26,7,16,-29,18,10,-162,98,9,87,-241,-163,46,-152,-33,-41,-49,-43,-21,-30,-38,-10,-70,-21,-10,87,-35,-29,-20,-33,-61,573610
21,1,23,-14,8,33,-141,-49,46,33,-32,-85,18,-27,50,-7,9,19,38,1,-19,29,-5,30,12,82,27,20,28,22,49,573611
-24,-9,19,-18,-17,12,-107,-206,86,-22,-139,75,110,27,-2,4,43,78,64,6,-47,21,15,72,1,25,73,60,68,60,125,573612
18,-3,-4,4,-1,-17,-21,-19,-35,42,-124,60,-29,109,-14,44,23,65,29,36,24,36,-5,50,63,132,57,52,52,51,16,573613
36,11,0,35,16,2,28,-33,-54,-31,41,35,17,5,73,39,-6,15,-28,29,42,16,-56,17,66,192,11,14,9,10,12,573614
28,14,7,20,19,19,5,101,57,78,39,-10,-13,-33,91,25,-23,-16,-42,16,55,14,-72,3,60,217,-24,-10,-2,-20,-28,573615
13,2,3,7,7,-3,-10,117,-52,2,-15,-20,25,183,16,12,-9,-11,-29,19,46,18,-56,1,33,207,-21,-21,-9,-12,36,573616
26,9,0,18,13,-7,18,-6,-124,-55,-54,31,-54,152,-47,26,-12,-5,-17,28,54,18,-55,-8,36,246,-18,-20,-6,-4,16,573617
35,9,-10,17,6,-9,41,-86,-1,28,136,19,-59,-220,-40,33,-31,-16,-22,33,106,9,-63,-30,72,333,-39,-25,-35,-29,-59,573618
26,19,11,16,12,11,41,-217,-62,61,-16,-89,30,-79,33,16,-8,1,4,22,84,4,-10,-10,41,293,-18,-20,-20,-10,12,573619
5,16,30,3,14,10,9,-53,47,58,-154,-114,-38,44,9,0,28,29,41,-16,-32,-17,40,41,-51,118,44,5,10,17,102,573620
22,16,15,14,19,7,74,-132,84,-5,-127,73,71,96,12,39,58,44,42,20,7,22,47,54,10,177,44,35,26,45,97,573621
108,12,-55,-7,-5,-19,190,51,-55,-177,39,110,-44,195,68,129,-21,-39,-110,125,307,78,-49,-82,214,631,-99,-71,-63,-72,-244,573622
232,38,-87,-8,0,-24,332,134,-67,-32,227,145,-129,215,55,263,-79,-98,-242,258,734,167,-107,-227,493,1278,-221,-168,-188,-164,-447,573623
252,61,-79,-13,3,-19,397,204,-58,49,412,225,20,229,109,328,-57,-77,-240,313,933,208,-78,-239,594,1603,-212,-154,-212,-158,-431,573624
136,35,-36,-33,-8,-24,249,82,-55,2,88,107,-19,254,13,211,-39,-47,-152,178,667,121,-39,-146,367,1234,-125,-106,-169,-116,-177,573625
-56,4,24,-37,-26,-32,-1,-96,63,-97,-76,-48,-26,46,-52,18,34,42,34,-22,112,-9,26,43,-28,399,55,12,-38,16,185,573626
-59,10,34,1,-3,-18,-31,-33,68,-80,127,-130,-20,-91,-91,-7,28,56,47,-47,-12,-30,37,54,-74,186,54,34,2,37,150,573627
-36,15,30,27,9,12,-57,-119,49,-82,86,-156,-40,-72,-75,-46,-11,14,-7,-80,-72,-59,-4,0,-126,107,0,-13,-27,-8,88,573628
-62,13,39,33,5,10,-119,-313,88,-41,57,-100,49,65,-84,-82,-21,2,15,-114,-172,-76,-40,18,-182,-44,14,-3,-4,8,136,573629
-28,11,27,18,2,1,-66,66,67,-30,125,-52,66,-17,-64,-24,9,35,44,-37,-81,-14,-29,42,-72,59,41,35,48,42,49,573630
-23,3,32,5,-5,7,-76,-78,25,56,51,-67,131,16,65,-30,10,41,26,-42,-85,-22,-50,33,-67,41,33,20,37,24,37,573631
67,18,16,7,19,16,23,-72,18,149,91,-37,135,139,80,27,-15,-11,-20,22,135,19,-62,-52,87,343,-42,-43,-25,-26,-107,573632
77,8,-13,-27,9,-17,80,-45,136,37,25,61,21,157,48,94,7,7,-35,94,309,81,-32,-57,212,609,-58,-33,-32,-31,-155,573633
89,7,-31,-52,-4,-20,94,37,-30,25,9,45,-83,-45,47,147,-17,-6,-103,125,428,93,-27,-109,276,840,-101,-73,-92,-69,-216,573634
115,6,-11,-47,17,20,65,-13,-42,92,-191,-9,-17,-6,22,152,-26,-26,-102,118,425,78,-34,-107,246,872,-102,-60,-99,-67,-261,573635
46,5,37,-25,23,39,-90,63,40,-46,-115,-60,187,-47,-23,60,14,28,15,31,134,34,-12,21,57,465,15,35,-3,22,48,573636
-4,-9,20,-29,-1,12,-139,103,-32,-102,103,-95,148,53,-55,19,-3,4,1,0,41,11,-16,31,6,365,22,10,18,28,36,573637
-19,-2,15,-32,-18,-6,-168,-148,20,9,46,-120,223,-100,52,12,-19,-3,-10,-11,6,-18,-24,23,-11,335,19,-5,8,21,78,573638
-17,8,36,-24,-9,-8,-163,63,11,173,-131,76,8,41,67,17,11,19,46,2,-45,0,-7,72,-6,258,58,48,49,56,188,573639
-30,4,25,-17,-12,-19,-89,-40,39,120,169,121,38,73,48,30,36,25,54,18,-32,18,14,80,11,251,60,64,80,57,98,573640
-6,15,-9,-2,-17,-16,18,6,72,44,45,10,11,158,4,58,15,-8,-8,40,84,1,44,-6,75,418,-12,-6,4,-2,-77,573641
379,58,-118,-4,45,10,507,280,-151,-179,228,127,-42,114,50,460,-72,-134,-336,451,1168,270,-14,-368,875,2020,-341,-243,-244,-225,-810,573642
960,113,-262,-88,87,44,1198,556,-374,-216,581,472,-100,341,205,1100,-267,-370,-976,1052,2980,692,-224,-966,2117,4829,-896,-649,-711,-641,-1921,573643
1038,142,-227,-130,82,53,1256,422,-358,-192,517,377,-92,358,207,1180,-316,-380,-1122,1062,3363,718,-322,-1049,2247,5574,-971,-741,-861,-739,-1829,573644
704,129,-122,-126,27,15,825,322,-312,-206,236,134,-51,148,118,826,-271,-252,-881,662,2560,465,-313,-778,1511,4530,-700,-609,-730,-571,-1091,573645
-96,49,86,-75,-66,-59,-146,-141,-44,-114,-324,-288,29,-148,-61,-7,-68,19,-137,-202,338,-97,-112,-71,-161,1267,-33,-157,-242,-115,459,573646
-237,21,106,-31,-60,-44,-294,-241,9,-164,-342,-285,234,-172,-93,-171,1,69,131,-326,-242,-190,-31,112,-484,305,136,13,-35,42,610,573647
-166,19,75,-21,-50,-31,-218,-216,-68,-127,-208,-101,25,-81,-100,-72,43,87,166,-184,-122,-88,11,128,-309,377,145,71,44,91,416,573648
-131,16,59,-28,-46,-31,-192,-294,-72,-209,-194,-103,144,-138,-57,11,76,110,184,-85,-21,4,36,148,-176,464,161,113,102,136,299,573649
-103,19,84,-17,-25,-6,-151,-349,9,-258,-120,-82,-45,99,-66,31,72,104,173,-48,-2,25,15,156,-122,448,170,120,126,140,314,573650
-93,6,74,-11,-16,0,-137,-357,53,-138,-15,-110,163,-157,-48,-13,30,65,131,-81,-50,-10,-24,119,-134,403,129,77,98,95,228,573651
144,35,1,-19,21,27,151,-82,22,38,288,9,66,-155,-7,158,-90,-89,-135,90,514,76,-124,-178,282,1277,-152,-136,-126,-110,-372,573652
423,55,-84,-77,37,24,523,164,-37,-61,355,221,-43,69,-17,462,-207,-241,-477,369,1397,249,-209,-511,883,2663,-475,-372,-405,-355,-1000,573653
670,86,-152,-114,50,28,815,367,-294,-185,486,170,3,154,18,770,-265,-316,-712,653,2250,434,-248,-752,1428,4018,-699,-534,-604,-516,-1407,573654
582,81,-116,-129,25,22,640,304,-181,-87,345,153,-7,-98,15,689,-259,-270,-707,531,2151,339,-263,-703,1236,3998,-636,-525,-627,-515,-982,573655
-176,16,104,-54,-56,-37,-326,-279,209,-85,-107,-163,30,-306,-114,-92,-33,66,6,-263,24,-174,-69,44,-331,888,78,-45,-119,-26,550,573656
-224,12,109,-18,-33,-22,-333,-180,273,-25,15,-169,89,-177,-38,-159,45,111,163,-265,-324,-190,-8,171,-470,319,173,55,40,111,544,573657
-132,24,67,-10,-28,-21,-191,124,135,16,-242,-109,239,-186,-50,-105,14,56,85,-184,-196,-163,-22,74,-379,499,103,5,8,64,339,573658
-138,24,78,11,-26,-18,-190,3,126,-126,-177,-45,133,-102,-82,-115,28,75,113,-192,-276,-164,3,106,-399,357,141,43,46,84,354,573659
-106,9,58,0,-34,-12,-194,-28,133,-180,-157,-41,141,-114,-73,-75,10,47,71,-156,-233,-127,-15,84,-299,408,90,47,55,65,215,573660
-19,-3,36,-32,-30,-5,-123,49,95,-18,-94,-52,32,18,-59,0,-35,4,-24,-78,-50,-57,-84,14,-119,669,10,2,22,13,38,573661
222,27,-32,-43,1,2,162,319,-62,-146,46,12,-84,106,77,230,-97,-94,-219,166,594,107,-132,-199,382,1618,-184,-147,-132,-123,-436,573662
589,79,-119,-61,35,47,661,399,-265,-211,416,152,-144,197,78,634,-211,-242,-600,548,1764,363,-231,-584,1179,3390,-548,-423,-432,-396,-1129,573663
614,93,-130,-76,29,25,775,302,-286,-67,408,118,-155,209,100,740,-238,-231,-688,622,2117,436,-266,-641,1353,3972,-609,-456,-515,-452,-1229,573664
382,75,-70,-95,-12,-18,477,207,-290,-15,80,-1,-48,-65,-48,510,-232,-190,-574,361,1628,273,-304,-507,907,3354,-462,-410,-476,-382,-666,573665
-79,35,76,-60,-45,-33,-171,-35,38,108,-88,-170,87,-367,-143,2,-96,-8,-101,-158,248,-65,-163,-66,-117,1339,-33,-136,-168,-83,198,573666
-139,18,88,-24,-38,-34,-256,-175,231,-49,7,-151,86,-164,-92,-60,-16,70,69,-203,-61,-94,-64,83,-295,792,89,-18,-12,35,316,573667
-175,12,81,-15,-44,-45,-273,-390,144,-43,-182,-171,97,-273,-130,-88,0,75,116,-230,-200,-109,-60,118,-362,527,123,31,56,63,396,573668
-221,1,78,-8,-48,-59,-318,-296,20,148,-403,-112,169,-212,-154,-115,30,99,195,-236,-341,-109,-21,179,-418,281,181,104,152,113,389,573669
-210,4,66,4,-49,-69,-222,-181,139,-43,-40,-32,55,183,-65,-61,72,101,237,-165,-271,-42,41,202,-331,320,205,140,188,148,362,573670
-192,16,57,25,-33,-65,-162,-162,157,-30,-379,-32,0,169,-101,-79,51,60,203,-166,-283,-42,41,173,-317,297,182,125,170,125,289,573671
-10,26,-2,2,-11,-38,29,23,4,-166,-291,-50,-155,136,-79,71,-13,-13,10,10,157,47,-14,1,27,933,16,4,56,15,-74,573672
163,55,-17,-22,12,5,188,67,44,-176,-117,-15,99,66,40,233,-50,-54,-129,165,620,145,-44,-145,349,1644,-129,-90,-73,-73,-264,573673
192,47,-18,-56,9,6,174,123,0,-54,0,84,72,62,25,284,-45,-49,-128,208,761,180,-31,-161,437,1890,-148,-90,-96,-96,-379,573674
120,22,-8,-70,-22,-14,81,88,-23,36,49,15,186,-129,30,230,-33,-15,-86,132,638,117,-24,-124,305,1740,-85,-78,-86,-84,-202,573675
-114,17,85,-23,-27,-23,-182,-59,12,87,-168,-22,153,-242,-30,2,68,122,132,-120,-54,-38,57,129,-211,726,156,84,93,98,264,573676
-162,4,88,-5,-26,-28,-217,19,37,224,-141,-53,67,-117,-96,-116,46,87,105,-208,-330,-151,36,114,-381,324,115,44,74,75,323,573677
-119,7,89,13,-4,-5,-166,4,69,93,-166,-16,11,-148,-9,-127,30,50,68,-211,-355,-181,31,76,-365,285,66,14,56,46,261,573678
-93,-4,68,7,-12,-5,-157,-147,173,110,10,20,53,-94,-29,-113,7,42,59,-194,-334,-157,3,75,-317,319,67,26,68,56,187,573679
-98,-13,36,-14,-29,-23,-157,-297,107,13,-14,-29,55,25,-63,-101,6,40,94,-154,-316,-142,-1,95,-287,327,87,67,93,77,178,573680
-8,7,33,-10,-1,-3,-71,-254,72,-74,6,-35,-15,-11,41,19,16,49,88,-26,-75,-41,27,76,-94,649,71,78,93,73,64,573681
-41,-2,49,-4,1,0,-118,-91,90,-31,2,-63,-54,13,-55,-23,-9,37,104,-79,-165,-66,32,72,-174,529,79,65,69,86,105,573682
-74,7,69,13,6,28,-115,-29,138,43,-75,-40,61,-43,-77,-67,-4,38,131,-119,-277,-110,42,85,-257,348,97,60,77,86,188,573683
-205,-2,97,37,0,22,-279,-82,180,69,-344,-117,126,-270,-80,-211,25,80,217,-273,-658,-210,45,170,-543,-254,175,103,155,124,389,573684
-208,-9,77,47,3,-4,-299,-256,51,-17,-159,-60,45,-238,-68,-224,54,75,241,-259,-689,-176,58,196,-529,-376,181,129,198,140,278,573685
-66,-17,10,14,-6,-4,-169,-102,-23,-47,144,34,-130,-107,-61,-96,-6,-14,61,-112,-284,-63,1,46,-237,188,44,26,91,32,18,573686
-50,-16,27,-4,-14,9,-186,53,-31,30,-58,73,-48,-87,-52,-93,2,-14,42,-105,-221,-52,13,40,-202,275,39,34,84,4,55,573687
-71,-20,36,-4,-9,-3,-160,-142,-63,-22,-121,30,-6,-197,21,-94,40,23,110,-91,-194,-22,68,85,-177,259,71,101,113,39,155,573688
-18,-8,23,18,-3,-2,-24,102,-45,105,111,68,-27,-112,14,-17,63,61,112,-8,-48,40,108,76,-78,435,73,91,107,51,113,573689
-17,-2,18,24,-12,-17,39,78,-63,137,276,56,49,-22,-7,-13,52,62,72,-15,-34,24,100,39,-91,459,39,49,72,22,122,573690
-42,20,36,41,10,-11,-4,36,4,128,-79,-27,88,57,8,-55,44,37,93,-64,-130,-17,87,64,-173,330,48,63,64,27,181,573691
-97,7,47,36,5,-13,-153,-17,39,90,-217,-80,155,27,-10,-110,67,53,151,-117,-311,-48,104,129,-299,54,116,114,116,73,292,573692
-127,-10,37,15,-9,-6,-289,4,-52,81,20,-68,154,-3,-2,-134,69,41,154,-145,-393,-72,103,129,-340,-73,129,114,140,79,256,573693
-255,-40,69,3,-29,-30,-542,-85,119,39,-142,-143,169,88,-123,-299,83,54,240,-296,-786,-188,112,229,-614,-663,213,163,210,127,492,573694
-310,-46,79,14,-41,-53,-569,-159,64,31,-128,-82,113,24,-96,-362,99,82,308,-353,-1021,-229,134,300,-733,-1052,286,209,282,192,559,573695
-69,-15,17,17,-10,-20,-60,-168,10,-12,75,67,101,-20,9,-103,27,-7,112,-76,-359,-58,68,96,-209,-98,86,97,156,72,103,573696
28,13,-6,35,8,0,208,-138,-9,-8,300,165,70,-163,107,29,30,-4,63,44,-58,26,67,58,27,364,48,93,116,50,-55,573697
-23,3,-7,25,1,-8,191,15,8,-59,33,95,43,217,1,25,51,34,97,19,-137,18,78,116,6,286,97,132,143,96,30,573698
-55,-7,-33,-11,-16,-27,157,17,38,-185,-3,-29,-76,203,-10,27,45,47,69,21,-128,22,68,107,14,322,90,120,144,99,20,573699
-77,19,-17,12,-5,-27,46,-4,-65,-206,110,-12,-143,131,-34,-23,49,58,85,-29,-214,-23,75,119,-72,196,100,118,136,104,121,573700
-75,-5,-6,37,19,-13,-147,-207,-123,-276,-38,-81,-96,-96,-75,-154,-35,-50,31,-152,-356,-142,14,17,-221,15,16,13,23,0,41,573701
-252,-30,87,54,9,4,-391,-481,-6,-126,-216,-183,192,-153,-114,-364,47,56,224,-381,-916,-281,101,212,-654,-863,202,155,157,133,524,573702
-492,-45,171,95,-9,4,-573,-494,184,81,-262,-288,281,-230,-119,-580,208,239,580,-562,-1659,-360,241,561,-1128,-2093,524,419,467,392,1068,573703
-522,-71,166,104,-9,0,-588,-325,254,69,-475,-359,90,-294,-129,-648,197,210,617,-562,-1843,-366,240,576,-1215,-2476,528,425,512,402,997,573704
-359,-71,95,90,-1,7,-399,-120,246,-16,-58,-134,8,83,16,-489,107,101,427,-376,-1411,-258,166,381,-869,-1906,334,297,381,273,493,573705
29,-24,-27,56,43,37,34,140,104,61,80,17,-69,331,124,-72,-3,-44,73,44,-286,13,60,31,-43,-276,3,71,137,37,-252,573706
89,-26,-51,9,35,18,38,29,16,73,12,100,-39,352,171,2,-14,-72,1,93,-19,51,40,-40,96,171,-46,20,52,-20,-205,573707
36,-23,-12,2,34,16,-23,108,-17,100,30,73,69,92,96,-31,12,-25,55,42,-129,25,72,31,2,45,18,41,67,12,-53,573708
22,-12,3,16,39,28,25,176,-25,181,121,47,19,-51,67,-42,21,-7,54,30,-145,21,84,48,-8,20,41,44,66,22,-39,573709
10,-2,2,32,37,35,52,212,1,204,-139,-30,-108,-111,76,-73,1,-32,1,-4,-168,-8,54,17,-29,10,9,10,28,-15,-55,573710
-29,-7,-1,34,32,20,18,130,15,0,-67,-74,-230,-151,-36,-93,-7,-24,-2,-28,-235,-17,42,33,-87,-97,17,18,41,0,1,573711
-176,-39,13,18,2,-7,-136,-143,43,-224,-211,-40,32,-8,-34,-179,39,35,136,-127,-550,-77,63,186,-323,-579,149,119,158,103,267,573712
-271,-39,61,52,-3,-2,-256,-115,-79,-90,-372,-140,-60,130,-12,-294,99,98,309,-234,-922,-160,103,327,-573,-1171,284,234,271,210,545,573713
-345,-42,100,86,4,-8,-336,-207,52,-2,-198,-77,-8,28,32,-426,146,165,428,-346,-1279,-239,159,434,-807,-1779,390,311,357,291,748,573714
-320,-34,59,107,13,-16,-238,-188,112,-98,-129,-28,-53,-19,-21,-386,167,153,421,-291,-1228,-209,203,410,-731,-1772,356,292,357,288,625,573715
-10,-11,-48,78,33,4,133,57,-121,-39,53,30,-46,10,29,-87,40,-34,93,19,-329,-20,126,47,-80,-440,-1,63,89,33,-95,573716
77,1,-35,78,56,34,138,-42,-108,18,-88,117,-80,-8,62,-9,43,-16,66,73,-112,36,133,17,65,-121,-8,60,54,7,-199,573717
62,-12,-30,66,30,19,100,-6,-110,-186,-37,101,-163,119,-8,-18,23,-14,39,51,-104,28,92,12,62,-89,-7,43,38,-4,-127,573718
12,-5,-13,71,27,15,52,23,-72,-66,9,186,31,34,14,-69,6,-22,4,-8,-181,-27,54,-11,-25,-188,-17,3,20,-25,-116,573719
43,-18,-19,49,28,27,73,124,-100,90,42,84,-50,-23,12,-42,-34,-59,-52,22,-68,-12,4,-66,30,-4,-74,-42,-34,-53,-201,573720
83,-20,-17,9,31,24,147,91,-75,-17,219,20,57,-15,17,41,-9,-33,-31,115,90,82,-8,-29,150,229,-47,5,3,-13,-144,573721
-335,-56,116,14,-14,2,-408,-313,82,176,-98,-150,258,-185,-37,-413,81,119,300,-361,-1099,-237,47,349,-758,-1529,320,235,254,222,746,573722
-724,-108,196,74,-51,-31,-928,-458,161,169,-434,-308,112,-252,-149,-895,200,254,709,-805,-2399,-557,183,736,-1647,-3535,680,492,556,486,1462,573723
-813,-105,187,128,-55,-52,-952,-466,185,192,-434,-261,31,-162,-112,-976,269,307,880,-827,-2760,-570,294,860,-1790,-4209,796,611,711,589,1568,573724
-598,-101,92,118,-20,-35,-605,-347,244,333,-252,-77,48,-25,-13,-705,242,221,737,-532,-2211,-364,309,684,-1275,-3518,620,535,646,500,1006,573725
20,-49,-82,72,46,14,174,-2,65,104,-19,203,-13,269,90,-89,45,-23,133,92,-502,17,129,80,-14,-1000,45,128,198,91,-241,573726
123,-22,-106,49,37,12,290,-18,-40,-26,205,172,-2,75,115,22,0,-53,-47,154,-78,54,76,-71,196,-305,-84,-9,18,-32,-364,573727
89,-22,-95,37,20,-1,227,51,-68,53,117,174,-13,231,105,5,6,-37,-41,120,-94,46,81,-47,139,-282,-62,-8,1,-30,-219,573728
114,-18,-70,33,38,28,222,185,-131,-95,27,83,-18,198,100,22,-8,-48,-69,131,-15,48,59,-60,193,-137,-79,-25,-30,-41,-224,573729
102,-11,-50,17,43,38,152,258,-117,-118,62,54,-90,5,74,-11,-32,-71,-103,95,-26,2,39,-77,164,-101,-107,-57,-75,-75,-288,573730
45,-19,-46,6,13,10,82,236,-60,-105,32,62,-17,3,69,-47,-32,-73,-78,38,-93,-40,41,-72,71,-203,-102,-48,-71,-68,-211,573731
-136,-38,11,37,1,5,-106,-7,-53,-71,-106,-81,-42,27,8,-209,41,22,124,-135,-563,-130,92,130,-301,-928,96,97,87,66,274,573732
-413,-64,96,92,-12,-1,-410,-390,64,72,-167,-219,93,-204,-41,-524,136,154,429,-440,-1458,-323,172,427,-949,-2282,387,285,309,271,888,573733
-528,-74,127,125,-5,9,-516,-402,240,245,-422,-177,101,-232,-32,-695,194,202,586,-581,-1937,-412,225,555,-1262,-3099,514,378,415,361,1050,573734
-406,-75,73,127,14,16,-360,-402,115,192,-315,-71,112,44,-5,-577,188,171,509,-427,-1692,-300,238,469,-1022,-2866,412,336,393,323,661,573735
102,-36,-77,46,56,44,210,82,-135,203,17,127,-49,264,100,6,41,-15,14,167,-189,94,115,-15,109,-690,-43,27,75,23,-354,573736
191,-25,-102,-1,41,26,257,268,-180,145,75,120,-182,271,43,167,4,-44,-97,307,306,199,68,-121,424,72,-124,-41,-31,-68,-452,573737
168,-16,-68,-1,43,46,198,230,-155,169,231,84,-55,223,26,169,23,-10,-59,288,321,212,76,-75,422,111,-78,-13,-23,-37,-302,573738
166,-13,-77,-6,41,41,148,77,-188,61,82,75,-172,-45,17,161,19,-33,-73,260,322,175,56,-98,386,142,-112,-52,-66,-66,-329,573739
115,-1,-39,14,44,45,74,67,-116,143,-111,76,-154,-6,-6,97,69,40,2,204,183,138,104,-17,242,-72,-18,1,-8,-13,-24,573740
1,-7,-20,7,22,25,15,80,-112,228,-115,75,109,157,-1,30,133,98,122,124,-50,112,142,106,73,-435,113,92,95,95,158,573741
-208,-11,28,32,-11,-11,-191,-121,45,208,-236,48,63,149,-26,-166,173,155,309,-72,-592,-11,152,310,-316,-1228,291,240,239,212,523,573742
-511,-42,76,55,-46,-71,-585,-510,143,57,-537,-92,141,-3,-11,-488,232,236,559,-379,-1463,-231,205,551,-913,-2538,510,408,429,372,981,573743
-449,-65,69,61,-21,-31,-582,-303,123,67,-479,-100,107,-1,-61,-527,182,152,501,-392,-1519,-265,204,479,-898,-2664,428,358,382,337,827,573744
-181,-47,32,68,35,40,-272,-214,102,140,-59,59,61,51,75,-315,98,46,285,-153,-919,-140,146,252,-434,-1808,213,205,228,184,287,573745
81,-34,-48,36,52,56,115,117,67,31,96,174,-87,50,119,-42,-5,-58,-23,110,-148,20,43,-28,124,-633,-46,16,25,-9,-195,573746
114,-23,-61,30,48,37,244,118,-86,93,73,101,-124,-47,98,30,-40,-83,-110,148,56,50,-19,-90,251,-273,-120,-19,-44,-56,-321,573747
52,-15,-56,45,18,5,205,98,-20,31,98,49,-91,-80,27,-4,-28,-57,-94,76,-53,11,-21,-55,149,-382,-76,-23,-42,-34,-211,573748
25,-15,-47,32,6,-9,150,166,150,66,177,91,-143,-81,61,-65,-37,-67,-111,10,-123,-25,-32,-70,83,-462,-91,-57,-70,-60,-122,573749
42,-18,-45,13,18,15,122,-145,30,191,104,79,-109,-168,18,-71,-57,-90,-143,9,-62,-27,-55,-118,83,-375,-130,-102,-106,-102,-176,573750
64,-30,-39,-6,15,36,75,-151,0,118,212,92,6,-58,-48,-64,-71,-84,-137,4,-52,-43,-74,-126,52,-349,-134,-120,-131,-110,-183,573751
-37,-29,6,9,16,38,-36,-26,59,203,51,-26,-33,-178,3,-159,-30,-30,0,-117,-366,-118,-18,-14,-179,-799,-12,-39,-69,-33,86,573752
-142,-28,18,42,3,16,-92,-59,128,83,111,-114,-152,-189,24,-227,44,30,146,-179,-640,-148,66,131,-356,-1250,124,81,53,61,273,573753
-94,-22,-21,56,4,3,32,61,119,83,6,-43,-203,-33,29,-160,51,41,112,-95,-521,-94,67,111,-234,-1125,91,91,72,70,219,573754
37,6,-44,62,27,31,161,-46,1,48,7,14,-285,255,19,-47,27,25,2,48,-194,12,38,27,34,-657,-12,34,18,27,-18,573755
72,-9,-69,17,11,18,105,-33,-49,-190,52,4,-260,207,40,5,18,4,-27,120,5,53,21,-18,164,-366,-37,9,-11,-21,-108,573756
56,-19,-52,-16,-1,7,-7,-8,-39,-201,-171,22,-175,169,70,52,47,24,30,160,81,104,53,32,213,-284,29,60,41,14,-59,573757
77,-15,-54,-32,4,13,8,-5,-13,-76,-15,9,-53,161,72,76,28,-19,-12,197,199,149,33,-13,271,-111,-12,31,14,-17,-127,573758
64,-15,-32,-15,15,27,13,81,-33,-76,4,-15,27,26,27,8,-7,-52,-28,134,122,100,-5,-22,192,-233,-24,9,-23,-40,-26,573759
48,-16,-14,4,21,29,34,171,38,-117,-11,104,138,-97,20,-30,-34,-69,-65,88,34,76,-54,-39,131,-342,-38,-34,-42,-54,-83,573760
139,10,-34,2,38,40,206,408,33,171,275,115,52,-7,33,52,-69,-92,-171,177,272,124,-114,-116,305,45,-115,-107,-102,-105,-282,573761
7,-8,-9,1,22,28,24,166,19,95,117,-74,-43,-103,15,-105,-59,-54,-94,4,-83,-22,-126,-47,21,-426,-55,-83,-71,-88,46,573762
-125,-32,25,16,18,32,-159,-43,117,2,-18,-47,26,-192,2,-247,-2,5,76,-150,-484,-128,-41,94,-282,-1026,71,24,32,22,209,573763
-110,-27,-4,9,-10,1,-59,-62,6,-40,415,27,-200,80,24,-149,80,55,155,-80,-404,-70,85,142,-181,-933,134,85,84,87,187,573764
-75,-10,-15,19,-23,-20,47,95,-7,107,125,11,-269,237,50,-75,96,46,150,-26,-283,-16,149,129,-76,-764,112,100,86,90,161,573765
-12,-1,-17,27,3,2,85,274,-30,82,3,89,49,-31,17,-52,51,-2,75,-1,-173,7,107,47,7,-593,14,61,38,33,17,573766
56,4,-27,19,33,16,126,185,-15,70,49,3,49,125,-3,0,10,-21,-40,51,-10,26,20,-23,106,-335,-51,-21,-37,-23,-53,573767
61,5,-29,10,21,24,121,166,9,13,53,44,-43,239,26,3,-22,-38,-103,35,-3,10,-47,-66,75,-284,-71,-54,-75,-51,-120,573768
56,0,-40,-7,4,21,99,89,23,-116,-178,62,-76,200,56,10,-39,-56,-114,30,8,13,-70,-78,57,-235,-80,-58,-89,-52,-137,573769
64,-8,-49,-24,1,19,80,33,-4,-121,-171,74,128,123,67,45,-14,-27,-73,73,71,44,-43,-40,91,-148,-45,-24,-63,-27,-105,573770
12,-13,-39,-25,-8,-2,52,130,-34,-139,275,108,19,87,-11,29,22,12,-15,47,11,23,6,-4,46,-229,5,20,-28,2,-35,573771
-55,11,-9,12,0,1,18,-4,28,131,345,117,-71,-59,-61,-60,24,11,16,-28,-150,-32,34,8,-66,-461,12,25,-14,4,78,573772
-158,-9,22,36,-4,-7,-94,-427,130,140,-34,-7,9,-113,-81,-183,22,27,63,-140,-455,-118,46,72,-288,-928,65,25,26,32,267,573773
-137,-16,31,46,8,17,-75,-381,62,-14,-200,-87,-3,-64,-21,-184,4,25,80,-144,-497,-126,30,73,-295,-1003,78,28,42,41,238,573774
-94,-5,35,47,8,31,-33,-138,115,-30,-56,-5,-71,-98,49,-158,9,21,118,-104,-465,-102,23,100,-230,-994,99,77,89,51,163,573775
76,14,-14,33,32,38,104,71,105,13,133,118,-42,184,160,-5,0,-38,0,64,-59,34,5,-13,87,-432,-13,22,15,-25,-148,573776
120,-4,-49,0,25,27,86,247,42,81,118,22,42,194,60,9,-43,-87,-133,99,134,82,-32,-132,184,-181,-123,-75,-94,-116,-181,573777
122,-11,-48,1,18,16,69,218,-42,175,98,67,44,64,70,22,-49,-82,-146,106,206,85,-36,-152,184,-103,-144,-106,-120,-146,-159,573778
58,-18,-4,23,17,13,2,172,-67,243,36,8,97,60,94,-43,-31,-61,-46,46,38,33,-33,-74,31,-367,-68,-56,-72,-96,-69,573779
60,0,7,23,27,26,50,8,48,166,99,-17,55,-11,91,-19,-34,-61,-26,55,72,44,-33,-66,42,-315,-59,-49,-66,-87,-121,573780
37,8,1,12,3,15,78,62,75,146,-67,100,-62,-40,90,43,40,26,56,88,93,91,68,21,75,-310,14,41,20,-16,2,573781
-137,-18,15,19,-30,-13,-107,158,39,124,-40,-6,-141,-59,60,-96,95,97,206,-70,-342,-17,130,169,-224,-934,173,131,127,96,428,573782
-217,-36,18,-2,-29,-12,-207,51,24,-23,36,-69,-14,146,-30,-199,82,76,222,-163,-603,-104,113,194,-370,-1288,195,134,146,118,426,573783
-139,-32,-19,-22,-27,2,-106,33,36,-169,-100,59,-8,169,9,-121,71,65,149,-92,-446,-51,86,132,-191,-1039,132,114,128,90,260,573784
-93,-16,-22,-3,3,16,-53,-56,54,-35,-521,33,65,29,-103,-85,82,80,130,-47,-374,-15,64,123,-111,-921,130,116,125,89,280,573785
-15,1,-19,35,35,31,-23,6,-49,-127,-135,-39,4,-36,-107,-54,47,31,60,-19,-265,-10,20,58,-29,-727,65,58,69,42,53,573786
-8,-11,-11,34,24,38,-44,196,-55,-22,69,-23,-88,-95,-59,-67,27,24,31,-45,-273,-39,19,47,-55,-724,39,30,37,15,51,573787
-35,-26,10,16,7,41,-57,232,34,-76,106,43,-140,-61,81,-104,32,25,40,-72,-344,-79,37,55,-124,-833,46,45,43,23,72,573788
-65,-39,1,-3,-1,21,-108,76,57,-93,95,37,-52,-128,44,-121,36,23,50,-109,-421,-111,50,77,-188,-923,57,60,48,23,130,573789
-83,-36,-6,2,-6,4,-123,-23,-25,-67,9,117,188,26,47,-122,48,44,84,-118,-471,-108,73,108,-222,-1000,87,91,84,57,174,573790
-65,-19,7,17,8,14,-110,10,-18,-69,-30,59,50,143,98,-112,74,68,109,-100,-477,-82,101,138,-211,-1020,117,114,120,80,238,573791
-25,-22,7,0,17,26,-120,67,26,101,33,74,-234,89,93,-89,63,47,66,-69,-396,-50,70,96,-129,-912,79,86,85,53,106,573792
-68,-38,2,-21,9,31,-302,135,-2,-14,-61,70,86,60,-41,-166,9,11,43,-136,-490,-109,6,67,-207,-1077,49,64,59,11,115,573793
-103,-47,14,-16,4,41,-444,-54,-12,-12,-210,-60,126,-13,-112,-234,-20,-32,32,-196,-600,-151,-19,51,-293,-1236,40,45,47,-23,131,573794
-182,-67,46,-24,-15,24,-450,89,-15,36,-39,-132,-3,71,-1,-291,20,4,142,-253,-789,-164,45,133,-436,-1563,127,113,118,28,285,573795
-79,-44,34,26,1,34,-82,79,27,289,74,25,-123,224,77,-150,60,35,127,-119,-541,-39,84,104,-257,-1302,115,112,124,33,127,573796
-98,-30,15,40,-8,15,42,20,48,62,66,53,-25,52,45,-201,6,1,46,-178,-580,-78,-3,41,-335,-1386,53,45,63,-38,146,573797
-183,-28,32,56,1,15,-87,-18,110,86,72,42,67,-155,28,-307,3,16,112,-309,-835,-156,-20,98,-545,-1821,94,85,110,-18,302,573798
-199,-45,27,49,-1,6,-137,-133,131,60,32,-73,-24,-60,-43,-318,23,40,169,-317,-883,-144,25,133,-572,-1993,126,143,144,3,344,573799
-273,-57,29,38,-26,-21,-237,-260,71,13,37,-104,-52,92,-37,-386,62,77,240,-397,-1089,-187,83,199,-700,-2342,188,187,193,22,526,573800
-322,-66,31,62,-39,-28,-298,-262,116,83,-220,21,-122,-86,-4,-453,65,74,277,-465,-1258,-248,112,208,-817,-2625,210,180,205,21,545,573801
-416,-82,57,58,-44,-26,-418,-252,110,52,-280,-57,-130,-156,26,-571,103,104,375,-568,-1562,-337,193,280,-1020,-3105,288,226,259,76,717,573802
-393,-90,62,73,-22,-8,-364,-93,136,-14,-116,-44,-24,-80,36,-545,125,113,416,-520,-1582,-320,240,302,-993,-3170,283,261,299,99,627,573803
-304,-78,43,80,7,17,-262,-128,220,38,139,-10,-20,8,-5,-476,99,66,349,-438,-1433,-286,168,249,-844,-2951,227,240,282,75,381,573804
-277,-67,57,94,21,37,-267,-82,53,28,41,-115,18,-134,-28,-462,105,104,339,-409,-1464,-280,134,297,-822,-2997,262,266,322,117,425,573805
-298,-69,55,91,20,33,-291,-124,-41,87,43,-60,-44,-13,21,-430,149,163,399,-363,-1524,-242,157,385,-813,-3102,352,339,401,205,535,573806
-267,-63,41,64,22,38,-295,-256,60,159,-51,105,-10,76,-39,-384,138,154,377,-296,-1428,-195,160,372,-729,-2971,340,328,397,189,529,573807
-269,-67,31,46,25,32,-349,-156,94,158,-196,40,-92,182,-33,-401,127,121,354,-312,-1433,-234,164,349,-718,-2971,312,313,378,162,455,573808
-232,-74,-12,43,14,24,-306,-177,-9,107,-240,-28,27,171,-36,-361,120,94,305,-261,-1300,-222,164,290,-613,-2802,255,276,331,118,363,573809
-201,-78,-4,59,24,35,-297,-238,54,39,-286,32,-65,227,31,-356,119,81,288,-241,-1252,-229,184,262,-585,-2764,234,250,303,106,319,573810
-193,-63,-2,91,36,31,-216,-231,-36,155,-109,13,-183,216,75,-360,129,86,284,-248,-1260,-238,225,248,-614,-2783,233,218,272,95,337,573811
-214,-69,-18,116,13,3,-99,-107,-3,88,26,8,-35,108,16,-359,143,102,289,-240,-1277,-218,218,276,-629,-2862,241,226,277,119,355,573812
-188,-61,-26,96,13,0,15,156,32,24,-311,34,-30,150,-27,-328,143,105,266,-188,-1170,-170,210,272,-529,-2766,221,236,288,120,295,573813
-227,-69,-3,63,2,7,-14,111,94,-143,75,55,-112,87,-4,-366,125,90,281,-225,-1245,-162,195,291,-585,-2911,236,239,296,131,399,573814
-310,-88,12,55,11,0,-178,-21,136,-50,-198,3,-82,-61,-51,-464,99,56,321,-320,-1465,-232,166,295,-744,-3283,260,252,300,129,496,573815
-164,-70,-42,64,30,3,-47,90,33,95,-266,-27,28,-145,-13,-325,33,-20,197,-179,-1029,-118,106,144,-437,-2739,116,165,199,33,146,573816
-65,-48,-38,74,47,32,22,23,31,103,-51,65,-122,-54,47,-218,21,-38,114,-92,-710,-35,84,53,-263,-2351,35,108,119,-27,-19,573817
-41,-51,-40,63,38,36,-44,-34,-13,117,80,112,-314,11,66,-193,60,-1,134,-73,-583,3,112,58,-216,-2264,48,120,106,-18,-37,573818
-23,-51,-47,43,39,41,-44,116,-25,102,144,93,-116,140,59,-166,76,29,156,-25,-460,65,153,66,-146,-2133,65,120,121,-4,-42,573819
2,-46,-53,42,41,46,38,182,14,172,-7,61,-61,15,95,-152,44,-15,119,-26,-355,71,130,11,-115,-1999,7,86,79,-38,-117,573820
14,-45,-84,52,25,29,128,-124,13,-20,-5,85,-241,139,-5,-135,14,-53,56,-10,-263,58,96,-62,-78,-1850,-60,25,8,-88,-110,573821
-172,-54,-20,67,5,10,-85,-194,55,-110,69,-39,14,27,-36,-321,83,49,198,-203,-755,-77,141,115,-448,-2565,114,133,117,36,358,573822
-719,-121,140,131,-50,-24,-773,-325,156,129,-242,-317,-19,-210,-114,-915,250,256,748,-764,-2449,-468,272,689,-1597,-5094,640,486,557,417,1463,573823
-688,-115,153,177,-5,15,-739,-408,187,106,-120,-223,152,-114,-68,-933,241,229,815,-711,-2663,-490,272,741,-1607,-5453,670,520,658,477,1246,573824
-503,-112,79,158,22,34,-497,-150,152,120,38,-47,146,-140,-21,-771,183,143,667,-507,-2282,-399,246,566,-1250,-4899,508,414,563,378,742,573825
-12,-68,-83,111,58,50,156,-11,-37,129,187,204,-152,165,132,-237,57,-36,186,56,-882,-61,157,122,-170,-2800,75,117,234,85,-235,573826
159,-28,-126,83,58,54,367,148,-34,32,292,338,-244,350,113,-18,8,-76,-41,252,-245,70,108,-46,255,-1773,-79,5,64,-39,-375,573827
136,-30,-119,66,53,55,307,136,-74,93,73,260,-144,220,51,-20,10,-59,-32,230,-213,32,106,-18,238,-1653,-59,15,41,-52,-267,573828
122,-20,-95,74,59,67,298,133,-112,49,197,141,-100,233,52,-35,11,-51,-30,210,-233,2,105,8,191,-1632,-44,27,32,-27,-221,573829
157,1,-101,89,67,63,344,310,-126,87,328,33,-79,198,20,4,-17,-64,-75,239,-146,21,51,-16,271,-1428,-72,1,8,-38,-278,573830
140,-6,-93,61,45,46,286,350,40,77,34,57,-9,95,94,-7,-50,-81,-117,221,-130,22,-13,-23,293,-1344,-76,-19,-15,-46,-281,573831
-62,-49,-26,33,7,46,-26,34,64,-81,-401,-16,90,-90,123,-225,-12,-14,16,-4,-644,-112,0,131,-135,-2103,79,57,84,48,180,573832
-459,-101,66,54,-43,0,-484,-206,94,69,-527,-126,14,-97,7,-612,139,175,452,-392,-1769,-340,154,533,-956,-3844,461,339,397,347,979,573833
-586,-107,88,93,-31,-3,-561,-355,76,223,-198,-53,198,-44,33,-734,226,247,696,-492,-2183,-373,249,698,-1220,-4628,625,484,566,497,1112,573834
-474,-93,57,130,10,29,-431,-157,139,278,4,-45,244,-59,25,-653,210,184,636,-392,-1959,-301,257,585,-1070,-4458,522,432,513,439,772,573835
112,-44,-105,88,85,88,214,132,35,198,202,251,-142,-22,33,-67,8,-72,67,202,-321,108,92,-19,120,-2117,-53,51,100,43,-462,573836
309,-32,-163,25,83,85,443,311,-106,27,322,185,-172,126,42,143,-98,-168,-219,364,465,251,-22,-297,563,-980,-308,-154,-158,-182,-801,573837
281,-29,-157,2,56,60,445,109,-112,-8,122,125,-29,71,50,154,-88,-140,-226,334,596,262,4,-301,558,-830,-291,-174,-209,-184,-652,573838
270,3,-154,6,47,40,461,24,-41,-77,195,256,-85,174,74,232,-24,-68,-186,374,733,333,61,-266,625,-660,-241,-148,-184,-153,-563,573839
317,7,-156,8,38,45,494,173,-32,153,181,241,-228,142,156,332,12,-31,-196,470,998,418,78,-278,807,-292,-242,-134,-183,-146,-572,573840
298,-2,-138,-24,33,45,378,185,-67,83,181,173,-52,82,81,276,-26,-71,-253,413,999,373,5,-311,765,-235,-270,-182,-238,-187,-560,573841
-50,-44,-26,-33,-15,33,-100,-85,78,81,-191,30,48,87,-73,-103,34,36,16,20,30,85,25,5,19,-1565,27,11,-42,-5,194,573842
-627,-100,125,42,-70,-25,-804,-501,263,150,-525,-293,-72,-214,-159,-695,227,273,616,-549,-1739,-309,207,621,-1188,-4185,605,426,445,423,1327,573843
-704,-114,126,89,-60,-42,-852,-597,194,258,-610,-268,-10,-349,-134,-786,263,301,752,-577,-2183,-368,265,740,-1369,-4885,692,527,605,530,1348,573844
-463,-100,43,83,-28,-10,-497,-244,94,26,19,-99,-50,-84,16,-546,198,190,554,-279,-1629,-236,218,524,-859,-4078,474,403,495,403,676,573845
110,-45,-100,37,44,52,236,163,-151,32,261,231,44,252,181,67,21,-40,28,347,-70,132,86,1,352,-1701,-18,69,120,61,-491,573846
347,-20,-154,-17,65,79,467,356,-133,44,257,300,-133,223,250,292,-95,-153,-289,517,643,236,-47,-259,821,-498,-258,-129,-143,-144,-786,573847
337,-9,-146,-3,50,44,441,142,-60,98,318,164,-89,-136,84,263,-105,-150,-303,465,637,199,-86,-228,776,-381,-232,-165,-172,-135,-619,573848
287,13,-112,24,47,37,410,35,-126,246,249,153,-52,-122,52,218,-111,-133,-286,390,534,134,-126,-197,663,-435,-205,-174,-184,-118,-474,573849
266,19,-101,30,52,45,388,289,30,108,298,88,-220,-92,-7,181,-121,-142,-308,346,474,100,-153,-209,608,-438,-216,-198,-211,-139,-452,573850
271,10,-99,13,43,46,335,231,-118,34,14,46,-38,-155,0,183,-120,-159,-315,349,518,105,-142,-218,612,-338,-229,-205,-235,-139,-449,573851
102,-26,-61,-23,-1,17,103,89,-100,-154,96,-39,30,0,-34,37,-57,-78,-160,176,166,-9,-50,-82,285,-858,-83,-123,-151,-43,-86,573852
-181,-27,28,15,-28,-5,-191,-214,91,-107,112,-83,-171,-59,3,-262,83,99,184,-106,-630,-157,98,232,-322,-2098,231,110,89,192,479,573853
-218,-27,10,41,-28,-28,-136,-47,-55,57,123,-125,-199,31,-31,-242,135,151,284,-58,-708,-78,137,311,-352,-2317,310,184,195,288,400,573854
-77,-8,-43,49,-3,-10,15,-119,-167,36,56,-28,47,34,-28,-88,101,100,190,105,-318,62,101,191,-53,-1810,190,100,125,227,75,573855
214,8,-120,1,25,24,308,186,-249,-141,208,151,6,83,20,228,-4,-24,-99,418,601,274,17,-118,587,-490,-103,-104,-91,28,-510,573856
343,28,-138,-31,27,20,456,288,-164,-69,205,330,-143,149,123,409,-30,-65,-218,569,1165,407,2,-249,915,316,-228,-169,-200,-71,-665,573857
346,27,-115,-60,17,23,489,193,-132,-116,133,215,-206,125,18,411,-59,-104,-256,550,1303,429,-35,-301,956,514,-272,-185,-252,-118,-678,573858
370,31,-128,-83,16,25,499,215,-102,0,250,114,-215,-20,39,403,-112,-154,-371,517,1406,407,-107,-385,997,713,-341,-263,-331,-191,-736,573859
388,38,-142,-79,13,24,481,353,-123,-171,116,199,-1,29,37,429,-110,-146,-424,517,1476,411,-128,-397,1025,873,-358,-294,-348,-193,-734,573860
411,40,-139,-74,36,36,413,353,-161,-281,303,76,-19,87,34,419,-159,-180,-482,499,1514,382,-202,-434,1027,1007,-397,-348,-393,-228,-869,573861
336,31,-92,-74,29,29,254,154,-161,12,-8,29,-13,-62,27,312,-166,-155,-442,396,1267,304,-247,-374,828,738,-343,-326,-370,-206,-652,573862
77,25,-10,-42,-16,-16,-5,-61,-37,52,-297,-102,-28,-208,18,103,-38,5,-129,161,517,140,-128,-70,297,-312,-46,-109,-133,8,10,573863
-47,21,19,-10,-22,-33,-90,7,-25,57,-59,-7,-68,-60,28,-9,54,62,58,51,115,28,-8,78,5,-889,104,-5,-8,121,247,573864
-2,-2,-12,-32,-23,-35,-37,-6,-51,-126,143,57,-133,75,32,13,21,-2,-4,85,185,-8,12,-11,74,-749,18,-45,-67,57,20,573865
201,14,-63,-32,-4,-13,241,32,-64,-69,214,83,-79,141,41,235,-17,-69,-158,321,728,154,-16,-162,534,78,-153,-108,-152,-47,-349,573866
275,33,-113,-43,-22,-39,406,139,-200,-112,133,39,91,158,26,342,-89,-146,-330,424,1092,207,-90,-318,798,715,-299,-221,-282,-160,-582,573867
229,45,-103,-30,-15,-29,392,6,-255,-169,88,-28,172,169,-72,322,-85,-105,-341,383,1039,188,-105,-293,741,719,-263,-232,-293,-149,-477,573868
224,61,-78,-23,-3,-29,321,-31,-150,-4,8,6,-66,195,-63,286,-94,-105,-313,345,979,164,-116,-277,686,677,-226,-240,-302,-131,-476,573869
241,39,-81,-45,-3,-28,283,96,-72,-51,-7,68,-115,-137,-7,268,-124,-140,-329,323,987,142,-154,-291,685,735,-263,-253,-317,-157,-548,573870
259,35,-71,-49,-7,-15,313,92,-86,18,287,82,21,-111,-20,313,-118,-118,-334,366,1075,198,-192,-264,756,884,-261,-216,-289,-131,-550,573871
195,32,-58,-60,-31,-23,240,115,-76,-128,292,51,16,-62,4,290,-99,-70,-278,324,964,197,-193,-200,649,748,-194,-170,-231,-77,-350,573872
84,17,-14,-54,-33,-19,94,-12,-43,-3,344,-10,16,-60,40,178,-62,-46,-154,188,631,118,-154,-105,384,274,-88,-112,-167,-5,-176,573873
111,34,-10,-28,-7,0,119,75,-23,-112,123,-44,-81,-197,44,178,-35,-28,-109,198,619,110,-96,-93,413,227,-72,-72,-123,27,-167,573874
147,37,-29,-23,-5,-6,162,21,-24,-251,129,-74,13,-283,-23,201,-70,-57,-163,229,739,125,-117,-134,539,405,-125,-99,-138,-4,-274,573875
219,36,-59,-48,4,-2,200,191,-73,-146,298,-27,57,-123,-1,254,-124,-123,-247,288,943,170,-158,-230,675,744,-227,-182,-216,-77,-451,573876
320,44,-77,-64,8,7,284,226,-110,51,169,16,100,-198,7,372,-127,-142,-344,384,1239,235,-139,-312,842,1224,-291,-252,-305,-122,-656,573877
351,63,-75,-69,10,6,374,211,-37,-78,128,28,69,-37,87,434,-128,-132,-422,425,1406,270,-147,-363,887,1512,-324,-311,-364,-161,-648,573878
299,58,-67,-57,3,-10,343,238,-115,-210,69,116,74,91,103,416,-109,-108,-387,387,1333,253,-167,-327,800,1462,-288,-283,-338,-138,-533,573879
268,64,-48,-60,-3,-16,281,72,-71,-58,-71,46,-83,13,49,396,-92,-82,-315,366,1260,228,-149,-273,743,1392,-226,-241,-303,-87,-497,573880
309,74,-27,-67,12,1,303,394,-104,97,167,-14,70,-22,54,451,-93,-81,-304,415,1370,264,-153,-268,830,1579,-231,-219,-299,-87,-580,573881
413,76,-66,-82,17,8,422,318,-49,-175,238,82,-13,62,55,574,-119,-108,-394,520,1689,340,-196,-363,1068,2094,-317,-249,-356,-144,-707,573882
412,84,-74,-105,11,5,388,133,-30,-178,181,126,46,147,26,551,-158,-123,-469,476,1699,304,-254,-408,1066,2194,-353,-294,-408,-189,-725,573883
359,77,-55,-105,-3,-2,314,285,-98,-174,-99,-28,175,68,32,496,-139,-77,-434,412,1559,295,-235,-350,966,2024,-301,-281,-359,-159,-534,573884
309,66,-68,-122,-20,-29,298,267,-76,-203,-14,4,103,83,45,502,-107,-49,-399,418,1522,330,-207,-312,929,1992,-263,-253,-319,-124,-371,573885
215,65,-47,-105,-38,-55,169,106,-32,-48,108,-68,-75,-84,-119,384,-93,-60,-320,291,1255,234,-187,-266,701,1644,-231,-246,-294,-115,-353,573886
242,53,-48,-69,-19,-43,173,64,-158,-63,-77,-179,-241,-117,-100,359,-141,-118,-339,264,1272,188,-204,-339,677,1707,-283,-304,-353,-178,-462,573887
218,62,-1,-40,5,-12,195,162,-112,-81,-77,-101,-35,-177,30,357,-107,-66,-280,270,1230,210,-150,-292,625,1613,-239,-266,-314,-122,-388,573888
184,49,10,-62,-9,-9,190,279,22,-199,217,-65,-24,-170,42,340,-80,-43,-252,262,1149,222,-137,-243,585,1506,-212,-217,-255,-93,-320,573889
168,49,-17,-88,-42,-31,216,92,-4,-234,173,23,0,-87,50,376,-74,-43,-227,290,1202,255,-138,-220,641,1595,-184,-174,-220,-63,-302,573890
182,47,-23,-105,-44,-31,169,89,-15,-34,-1,35,-60,-121,23,366,-84,-49,-233,270,1207,240,-150,-218,645,1600,-185,-176,-220,-73,-304,573891
306,82,-25,-94,0,3,233,107,78,120,244,60,48,149,37,464,-88,-70,-278,364,1459,293,-115,-299,834,1992,-252,-225,-272,-117,-521,573892
355,84,-29,-86,10,-1,242,286,52,68,324,103,45,-26,42,528,-104,-105,-354,394,1611,304,-127,-368,926,2280,-316,-275,-337,-177,-575,573893
356,69,-59,-94,-17,-28,248,136,-25,4,35,72,78,12,53,531,-141,-140,-439,384,1673,279,-181,-425,947,2455,-369,-338,-386,-232,-686,573894
327,68,-32,-103,-30,-30,241,229,-63,-29,42,39,0,18,92,500,-147,-119,-430,334,1599,248,-206,-398,879,2441,-349,-331,-380,-216,-512,573895
111,57,44,-97,-46,-42,13,-97,71,18,-47,-70,121,74,-4,267,-100,-45,-265,79,938,55,-186,-197,398,1564,-153,-219,-256,-103,-75,573896
92,55,42,-65,-37,-31,25,-85,62,12,100,-100,118,61,-15,246,-66,-14,-180,71,752,38,-167,-104,345,1362,-71,-145,-154,-19,-15,573897
71,49,17,-72,-49,-51,5,-159,81,-123,-49,-80,111,-24,-20,224,-99,-37,-204,46,660,-5,-221,-105,327,1340,-87,-146,-144,-30,-44,573898
47,45,34,-77,-45,-43,-131,-84,30,-126,-238,-16,-67,-136,-30,188,-92,-38,-185,4,537,-48,-222,-90,262,1213,-84,-125,-140,-27,-65,573899
33,39,27,-95,-53,-59,-261,31,-8,-287,-13,-11,91,61,-34,197,-62,-10,-125,20,490,-32,-169,-49,255,1177,-44,-79,-101,7,-44,573900
69,48,29,-108,-56,-51,-235,-23,-66,-67,44,41,100,90,2,293,0,46,-82,126,615,60,-71,-14,361,1352,-2,-29,-37,58,-48,573901
204,44,-15,-111,-42,-42,101,114,-67,8,113,47,-140,99,41,459,-25,-9,-202,290,1049,179,-43,-149,644,1940,-123,-117,-123,-29,-360,573902
653,97,-121,-123,24,20,823,417,-209,-14,311,255,-116,213,138,862,-201,-228,-682,696,2329,446,-213,-637,1502,3843,-596,-437,-510,-373,-1283,573903
689,121,-124,-142,17,19,854,472,-173,12,260,132,-14,-55,41,864,-279,-293,-835,676,2592,448,-306,-770,1576,4268,-726,-547,-664,-499,-1344,573904
507,109,-63,-144,-24,-11,556,9,-247,-87,-9,-3,-31,-110,-37,717,-205,-169,-665,491,2210,368,-255,-585,1222,3707,-532,-456,-555,-385,-820,573905
47,67,47,-109,-83,-68,-20,-219,71,-47,-434,-196,-17,-94,-84,300,-33,64,-184,58,1016,116,-119,-129,299,1883,-70,-146,-217,-47,92,573906
-37,49,66,-75,-68,-71,-106,-270,77,-22,-249,-124,55,-182,-93,181,-22,53,-33,-31,682,63,-102,-41,105,1322,-7,-88,-103,23,105,573907
-1,59,66,-38,-41,-39,-71,-358,59,-139,4,-184,59,-110,-55,153,-61,-12,-57,-38,646,48,-142,-108,95,1216,-81,-123,-130,-28,2,573908
30,49,44,-63,-45,-43,-9,-273,65,-249,11,-82,60,-97,-4,211,-40,15,-58,24,742,101,-118,-132,162,1302,-87,-126,-128,-40,25,573909
-35,37,62,-79,-56,-54,-64,-228,58,-63,-86,-114,-82,-7,-28,175,0,62,-5,-13,626,85,-64,-78,62,1083,-31,-71,-75,0,97,573910
-62,43,67,-51,-45,-44,-85,-261,22,-181,-82,-85,54,16,-41,151,34,95,44,-30,519,76,-27,-38,9,889,14,-28,-23,42,201,573911
119,57,1,-40,-14,-28,112,-7,-157,-261,-32,19,-7,-23,-98,303,-65,-13,-130,128,910,168,-146,-210,368,1521,-160,-137,-143,-84,-252,573912
398,76,-63,-71,20,3,404,147,-187,-172,280,66,70,38,-49,545,-207,-183,-469,352,1650,287,-293,-515,904,2746,-456,-376,-393,-324,-863,573913
460,85,-70,-95,12,-4,476,229,-35,-23,293,119,-82,17,17,641,-218,-189,-581,428,1940,323,-282,-586,1081,3285,-536,-436,-475,-385,-906,573914
331,81,-44,-108,-22,-41,364,31,39,24,63,48,-200,71,-1,573,-160,-110,-491,322,1696,253,-217,-467,887,3056,-415,-375,-425,-321,-537,573915
-95,59,81,-52,-66,-74,-116,-267,24,-59,-52,-199,-17,-87,-156,142,-1,101,-76,-128,463,-62,-92,-20,3,1337,16,-86,-117,-22,282,573916
-195,34,91,-24,-64,-68,-227,-350,55,44,-18,-173,44,-185,-135,-20,18,114,44,-252,-50,-196,-78,99,-273,662,105,0,12,66,429,573917
-99,44,76,-15,-30,-30,-159,89,40,83,78,-157,-179,-155,-33,1,-32,42,-20,-225,-58,-215,-122,51,-200,758,48,-34,-7,16,184,573918
-102,52,116,11,-20,-9,-139,49,1,185,154,-273,60,-39,-32,-32,-20,45,33,-240,-206,-228,-75,125,-266,577,94,16,50,71,191,573919
-113,32,103,10,-24,-23,-89,25,-96,31,62,-240,243,31,-90,-59,-42,13,7,-253,-287,-254,-85,101,-305,481,67,-13,33,53,227,573920
-76,31,73,15,-23,-44,3,100,-36,-139,-156,-86,67,-129,4,26,-15,29,-4,-170,-167,-187,-35,95,-184,650,46,-3,40,53,180,573921
123,55,-4,-4,-15,-52,171,78,-13,-229,8,-10,117,-45,-23,281,-40,-37,-169,92,470,21,-31,-83,285,1512,-126,-104,-66,-49,-349,573922
553,105,-93,-53,44,13,545,251,-185,-209,261,166,107,143,42,712,-190,-208,-569,532,1768,327,-180,-519,1151,3379,-518,-404,-397,-340,-1200,573923
607,86,-88,-106,41,40,538,451,-193,-72,291,145,13,235,91,743,-239,-235,-676,549,2073,362,-265,-620,1250,3867,-580,-483,-530,-420,-1136,573924
431,87,-20,-67,32,32,376,219,-58,-9,17,64,60,128,16,549,-185,-147,-505,330,1665,261,-245,-453,869,3239,-418,-368,-441,-316,-660,573925
20,67,96,-20,-21,-5,-48,16,87,8,-213,-119,44,-390,-63,89,-80,-1,-136,-133,545,-15,-157,-112,-13,1502,-82,-145,-195,-93,94,573926
-93,44,98,-12,-45,-33,-129,29,88,18,-209,-211,166,-373,-77,14,8,79,38,-174,215,-27,-62,20,-208,887,65,-27,-36,37,237,573927
-117,20,85,-54,-50,-45,-217,153,50,-175,-345,-85,127,-26,-22,4,22,81,80,-174,159,-24,-29,22,-244,696,60,10,-1,52,254,573928
-69,28,97,-53,-27,-19,-181,60,57,-182,-241,-49,90,156,-35,55,40,93,94,-113,245,35,22,13,-158,754,57,31,38,62,154,573929
-59,31,100,-35,-25,-20,-153,-164,55,-21,-147,-133,136,65,-5,62,40,89,96,-106,254,49,26,8,-148,712,69,32,48,63,185,573930
-87,12,69,-41,-34,-43,-150,-66,112,-45,-312,-94,-14,-132,-20,26,4,51,70,-134,203,10,-23,-22,-179,622,45,2,11,28,138,573931
64,42,31,-30,-5,-23,52,45,53,121,-166,-7,-5,-174,17,181,-34,-7,-80,45,588,126,-77,-157,155,1214,-97,-61,-58,-64,-206,573932
254,60,-20,-51,6,-15,280,137,-54,2,-41,105,94,-67,17,394,-96,-89,-291,223,1137,225,-173,-331,558,2106,-287,-178,-194,-203,-528,573933
281,75,4,-64,16,9,256,94,-55,-119,-1,101,127,47,3,423,-116,-82,-330,222,1175,209,-188,-327,566,2281,-293,-185,-220,-229,-454,573934
204,61,39,-68,10,21,116,52,-30,-64,39,62,81,131,17,308,-107,-59,-304,103,882,106,-196,-262,343,1969,-229,-175,-198,-206,-278,573935
-91,25,104,-30,-19,-4,-229,-56,161,-46,-221,-100,72,-60,-40,-18,-42,31,-72,-229,-28,-148,-134,-2,-284,743,11,-37,-38,-40,205,573936
-178,25,113,3,-12,2,-288,-90,180,-43,-200,-120,144,-20,-73,-114,-14,66,33,-309,-415,-238,-108,113,-463,261,98,23,61,38,332,573937
-150,24,100,21,-9,-7,-231,16,42,66,-189,-60,220,3,-60,-74,8,89,67,-268,-440,-245,-78,137,-430,315,114,22,70,65,319,573938
-144,25,96,24,-11,-8,-172,-66,69,-71,-100,-103,251,-8,-100,-38,75,142,147,-216,-441,-219,32,192,-397,319,158,81,119,110,376,573939
-185,-3,81,11,-16,-22,-161,-305,57,-174,-21,-242,235,-214,-99,-92,70,86,174,-247,-545,-251,75,199,-454,167,151,111,128,102,414,573940
-175,9,96,26,-10,-15,-102,-468,84,-5,-22,-217,125,-164,-36,-137,25,14,143,-268,-590,-281,65,177,-485,78,119,98,109,80,393,573941
24,38,33,26,14,3,147,-63,-4,166,143,-56,143,24,8,63,-42,-70,-65,-46,-6,-122,-23,-29,-38,887,-78,-42,-30,-51,-147,573942
289,56,-40,-6,39,23,371,188,-139,135,273,128,-51,114,-13,352,-115,-143,-319,233,841,118,-107,-283,559,2068,-298,-217,-221,-212,-596,573943
324,46,-62,-31,22,6,335,-115,-70,-47,341,146,-50,-59,29,436,-132,-133,-395,291,1118,206,-140,-339,708,2416,-349,-259,-284,-248,-614,573944
255,59,-18,-20,25,8,195,-17,102,68,49,21,49,-132,-64,328,-118,-82,-334,177,947,168,-146,-276,513,2121,-288,-238,-257,-213,-448,573945
-30,16,74,-25,-11,-7,-158,-43,164,-79,-191,-35,271,-27,-96,24,-20,36,-60,-135,194,-21,-60,-28,-124,942,-14,-66,-88,-34,169,573946
-89,18,110,-23,-1,13,-207,23,187,42,44,46,214,94,-63,-16,79,121,121,-157,-36,-6,46,132,-264,490,134,68,59,88,354,573947
-109,-6,93,-44,-24,-6,-259,74,86,116,172,6,118,-62,-33,-48,73,94,143,-169,-77,2,58,140,-284,336,108,106,91,85,285,573948
-95,1,77,-34,-16,-3,-232,-89,57,1,-208,-5,140,-130,-5,-35,62,90,121,-153,-36,16,44,128,-241,325,79,102,101,73,191,573949
-89,16,76,-10,-13,-4,-189,-50,-67,11,-154,-15,98,30,-69,-14,69,100,112,-136,-22,30,52,133,-205,304,85,87,106,66,246,573950
-111,12,76,-7,-11,-8,-209,-124,26,-3,67,-127,7,197,-54,-24,49,73,130,-149,-62,11,48,154,-226,241,95,78,109,61,164,573951
-15,12,46,-18,3,-16,-108,-2,-83,-43,86,-14,14,157,-36,62,33,42,69,-60,129,52,43,113,-55,522,45,61,80,33,21,573952
157,34,-20,-31,1,-10,153,144,-176,-257,-16,47,-57,157,-32,274,-22,-12,-123,168,677,189,-13,-35,372,1372,-119,-53,-46,-79,-328,573953
205,38,-38,-57,5,-3,208,17,-206,-166,-166,6,126,129,-23,312,-70,-63,-232,193,847,186,-79,-118,466,1726,-219,-162,-168,-175,-430,573954
169,34,-3,-65,3,1,123,-136,-103,-86,-126,27,127,35,-82,226,-67,-77,-216,103,676,76,-68,-86,284,1590,-195,-182,-204,-190,-255,573955
-62,30,70,-37,-22,-16,-148,-115,56,-150,3,-78,120,-20,6,-3,29,37,27,-129,25,-109,43,161,-197,683,19,-8,-40,-24,274,573956
-148,32,91,3,-30,-38,-218,-67,6,-230,-159,-99,26,170,-20,-65,92,100,176,-172,-288,-152,120,312,-336,262,145,114,91,87,411,573957
-138,9,75,10,-27,-44,-188,-137,-30,-170,-57,-15,62,146,-53,-34,103,99,165,-110,-316,-132,123,347,-274,287,149,118,123,111,391,573958
-153,-7,69,-14,-37,-28,-183,-87,87,27,-359,-83,-46,-109,-64,-84,55,66,105,-134,-420,-191,59,343,-335,202,118,74,104,93,393,573959
-124,-11,60,-8,-20,-7,-99,-57,40,13,-142,-80,-78,-89,-26,-83,12,46,38,-118,-401,-184,-6,314,-292,272,85,26,76,58,284,573960
-71,-4,40,0,-7,-1,-3,-98,-67,-40,-196,-71,-85,-41,-19,-43,-35,6,-67,-76,-261,-167,-68,233,-172,468,-4,-42,6,-7,133,573961
-11,33,56,35,14,26,20,0,-62,141,-21,78,50,-117,3,-10,-43,-6,-80,-46,-159,-119,-69,218,-116,584,-31,-57,-25,-21,5,573962
90,27,7,14,14,10,90,112,-36,145,119,55,135,-54,-39,120,-47,-32,-103,69,173,-7,-55,160,82,1018,-90,-70,-74,-65,-123,573963
115,38,2,6,14,2,102,-40,-84,1,-73,137,19,46,-25,128,-58,-54,-95,49,292,-6,-66,118,110,1147,-114,-74,-115,-103,-193,573964
63,48,35,19,20,3,15,-31,-1,92,181,14,-62,123,59,59,-52,-49,-34,-45,178,-32,-78,154,10,920,-89,-24,-83,-86,-115,573965
-84,15,69,8,4,9,-161,-17,-5,-59,150,-51,0,149,4,-75,-12,1,75,-184,-176,-81,-46,283,-266,283,33,71,22,5,258,573966
-105,5,56,-23,-14,1,-167,28,116,-205,155,-63,66,-26,-22,-73,21,30,102,-180,-206,-45,1,303,-270,142,51,95,60,40,162,573967
-95,-5,55,-36,-10,7,-223,-124,78,100,-26,-57,-14,-54,-63,-83,21,27,109,-193,-208,-47,-6,310,-262,105,63,107,76,37,227,573968
-62,-2,72,3,21,21,-263,-92,37,228,-101,-54,42,-109,-93,-109,-7,-7,98,-223,-219,-64,-31,281,-286,60,46,81,50,11,136,573969
-64,-14,57,15,8,4,-214,-50,28,39,-39,-74,-46,-9,-68,-101,16,18,136,-209,-233,-43,4,304,-305,15,60,82,75,29,153,573970
-89,-1,38,18,-15,-28,-131,-9,72,-131,177,-116,-12,-61,-52,-81,58,60,155,-191,-235,-41,60,321,-312,14,86,103,85,49,170,573971
-104,3,29,11,-25,-49,-72,-123,45,-12,157,-143,-22,-79,-8,-70,48,52,119,-161,-188,-53,76,292,-279,81,74,70,63,42,106,573972
-64,9,21,1,-14,-24,-41,-186,-26,-39,1,-48,-113,19,15,-13,66,57,104,-86,-82,-3,89,298,-164,238,70,81,67,53,124,573973
-5,12,17,12,5,-14,-41,91,30,-18,104,-4,-145,-69,-14,24,52,42,77,-43,10,15,73,279,-74,382,34,66,38,28,46,573974
-1,16,18,20,10,-5,-58,6,76,-138,92,12,-151,-88,-85,8,39,44,70,-44,-53,-9,46,303,-98,326,59,70,52,37,8,573975
-12,-5,11,16,6,-3,-121,126,-8,-121,-119,16,-191,-137,-40,-31,13,11,63,-65,-157,-50,5,318,-152,218,43,49,47,35,55,573976
9,-10,5,0,0,-9,-90,0,21,-96,-192,-58,32,-76,-41,-23,-29,-29,-16,-24,-118,-68,-33,272,-102,326,-7,4,4,-3,2,573977
-2,-3,27,18,3,-9,-27,-76,33,45,-46,48,117,59,3,9,12,23,-4,32,-97,-22,10,318,-54,382,43,39,42,44,89,573978
-42,0,21,22,-6,-12,-21,-214,54,68,29,15,120,122,29,-23,1,19,-2,17,-193,-50,-2,333,-100,292,67,33,49,45,133,573979
-16,6,20,23,1,1,35,-225,63,118,47,-25,-201,61,-31,-48,-50,-25,-81,-2,-164,-104,-51,251,-83,373,-17,-46,-34,-33,-28,573980
11,3,18,25,19,7,60,-122,121,50,23,-22,-18,63,-51,-38,-39,-26,-90,-13,-108,-109,-35,234,-66,406,-44,-59,-63,-53,-37,573981
-2,6,4,13,11,-6,19,-44,62,1,-6,-31,15,46,50,-2,20,26,-14,18,-82,-52,22,293,-59,390,15,20,9,5,15,573982
-20,-5,-6,-5,-12,-28,-37,214,59,-35,-32,31,-23,-29,81,27,48,55,25,25,-43,-8,68,312,-59,413,39,40,37,42,82,573983
-22,7,3,-17,-20,-20,-11,109,34,-72,-334,48,-201,123,4,71,59,69,47,29,20,30,83,309,-40,500,38,57,35,40,53,573984
-43,6,19,-33,-15,-12,-36,48,49,4,-138,58,-49,80,48,61,49,70,72,-21,-23,7,70,320,-101,417,62,67,31,42,160,573985
-129,-8,52,-44,-11,-9,-186,-104,44,-58,152,31,48,86,12,-29,78,100,174,-128,-269,-45,85,412,-265,26,149,136,107,101,374,573986
-81,-1,61,1,17,33,-209,-58,86,-26,-147,-111,154,-127,-1,-84,16,30,102,-175,-272,-81,14,320,-268,-8,51,79,35,26,193,573987
-69,-6,44,15,12,27,-191,154,47,-44,-23,-164,91,-399,-111,-118,-37,-23,27,-209,-271,-106,-32,254,-274,15,5,19,-11,-26,89,573988
-110,-5,52,15,1,9,-132,51,-4,66,128,-35,-15,-193,-21,-113,19,28,95,-204,-312,-77,35,320,-274,-60,83,77,52,43,234,573989
-98,0,48,33,8,15,-121,160,37,-52,-91,77,187,-76,52,-84,53,42,124,-176,-285,-40,62,331,-244,-54,102,98,71,71,253,573990
-56,3,45,29,13,24,-141,28,23,141,-125,46,100,-72,34,-86,57,40,102,-169,-285,-32,58,305,-246,-61,84,84,54,59,173,573991
10,15,45,43,25,32,-54,-125,19,142,24,74,103,12,74,-50,58,36,98,-112,-195,-5,74,284,-176,44,69,74,48,51,79,573992
87,18,25,40,32,30,67,90,40,277,-27,72,-17,115,59,25,0,-10,-2,-24,48,30,52,156,2,409,-21,-9,-43,-19,-38,573993
74,12,17,32,15,10,64,4,113,186,100,40,80,71,-2,27,-15,-35,-42,-11,87,23,19,114,30,492,-55,-40,-81,-41,-130,573994
32,-5,-7,22,-9,-18,17,278,120,63,22,-34,2,-29,-11,29,25,3,20,8,55,33,45,172,-7,420,-9,38,-17,12,-87,573995
-19,2,12,8,-16,-21,-25,-19,38,69,-74,-18,-10,121,4,-2,51,21,91,-3,-53,12,79,216,-81,252,63,93,54,48,132,573996
-12,-6,34,1,0,10,-65,-63,-95,124,-43,-9,58,92,50,-32,13,-8,42,-24,-111,-43,47,174,-128,168,41,52,22,27,77,573997
-18,-24,21,-15,4,8,-114,-82,-54,-43,-216,-77,173,-28,7,-60,-19,-31,3,-31,-138,-79,24,120,-149,134,-8,20,-25,-6,36,573998
34,-31,-5,-19,8,10,-71,-69,-8,-81,-242,18,-22,-141,30,-15,-35,-52,-39,24,-23,-51,-10,55,-50,300,-39,-1,-53,-43,-81,573999
47,1,15,2,18,19,-59,141,139,32,-81,24,-69,-118,20,29,-5,9,-14,62,26,0,-25,87,-12,349,6,40,-11,-2,-23,574000
-36,1,25,6,-6,-4,-148,112,86,84,79,29,-27,61,-38,-19,27,55,70,4,-154,-15,-25,155,-132,63,77,82,63,51,65,574001
3,-12,2,-2,-5,-5,-72,130,0,-63,109,-10,-186,-112,-36,6,-13,7,35,21,-54,-14,-43,87,-47,242,21,31,15,0,-48,574002
26,-16,-18,-10,-7,-10,-5,-132,-95,-275,182,-60,-130,-6,21,18,-39,-41,-36,16,29,-4,-60,12,7,388,-36,-6,-34,-43,-149,574003
35,0,-15,-5,4,-13,28,-137,-52,-114,47,-59,-63,-22,-39,49,-29,-25,-61,26,108,33,-51,1,31,498,-34,-19,-34,-34,-77,574004
-8,-12,-9,-19,-22,-15,-1,33,-57,83,42,-72,19,-262,-55,43,-6,-2,-47,5,55,27,-21,35,-16,460,10,-8,-5,1,-1,574005
-79,-1,23,29,-13,-15,-87,-134,-20,110,235,-92,12,-231,-29,-57,-5,20,24,-112,-227,-65,-13,91,-201,68,58,30,27,33,67,574006
-53,1,24,29,0,-18,-73,-242,-54,12,125,-38,-123,10,37,-47,-2,18,40,-91,-215,-49,-12,93,-171,70,78,31,55,63,113,574007
-7,2,19,14,3,3,-52,-187,36,173,166,22,-93,212,9,9,17,29,40,-39,-106,-5,2,84,-69,242,102,27,63,79,47,574008
-51,-24,-1,-16,-21,-15,-188,-31,27,-12,109,-41,74,36,-63,-63,-4,1,60,-112,-211,-74,-17,64,-177,115,98,17,27,53,71,574009
-17,-19,-14,-21,-9,-10,-214,-116,-22,-173,103,-7,29,13,-49,-50,-3,-10,37,-86,-134,-78,1,5,-127,223,40,1,-12,22,-7,574010
3,-1,6,-5,6,-2,-130,78,-115,-135,129,25,109,57,32,-27,22,26,24,-73,-94,-64,47,-8,-87,265,33,22,5,23,84,574011
-12,-7,8,9,11,8,28,10,-27,-17,-50,-5,76,33,28,-42,-2,1,9,-76,-117,-71,2,-22,-84,245,19,15,7,12,16,574012
69,-5,-20,11,26,23,101,-22,30,30,-15,-56,-36,-159,45,16,-45,-51,-91,-12,69,-23,-32,-120,48,510,-70,-56,-53,-49,-233,574013
53,-25,-29,-20,3,-2,19,64,-101,-27,71,-134,-65,-9,-39,18,-25,-36,-87,-26,75,-18,-30,-134,35,500,-63,-40,-58,-55,-68,574014
8,-24,-6,-36,-11,-25,0,125,-66,31,103,24,55,53,-38,39,20,24,-20,0,70,15,26,-80,43,459,-5,16,-10,-2,32,574015
-63,-27,10,-36,-32,-35,-10,-68,95,66,-128,71,-44,-98,-66,-33,19,33,24,-63,-87,-30,32,-51,-91,210,41,42,15,18,213,574016
-98,-32,21,-25,-23,-28,-61,-225,78,57,131,-88,-193,-119,-66,-103,6,-2,46,-111,-212,-64,33,-64,-198,-19,36,35,17,7,99,574017
-67,-9,29,-5,-10,1,-69,-32,-2,75,136,-185,-286,-155,-76,-110,-21,-35,35,-102,-178,-42,15,-103,-173,-31,10,50,16,-24,35,574018
-53,-3,26,36,10,-3,-14,-34,43,-51,162,-14,-113,-68,-51,-113,-15,-31,39,-105,-188,-37,1,-96,-158,-82,13,65,37,-13,31,574019
-49,3,34,53,11,-11,-7,-137,-13,199,-146,115,-53,49,-9,-107,-10,-3,35,-106,-198,-18,-33,-87,-154,-125,26,50,39,-1,39,574020
-18,-11,-1,25,0,-12,15,135,21,96,-80,46,-143,61,-47,-81,-49,-22,-23,-58,-110,11,-109,-161,-72,41,-22,-16,1,-35,-37,574021
-9,-4,8,23,13,6,25,-24,25,-174,-123,91,18,161,-94,-76,-23,-6,28,-44,-117,18,-67,-130,-81,23,19,19,44,6,74,574022
36,10,3,21,13,4,110,44,-36,-109,-21,7,115,62,5,-13,-14,-16,1,21,33,50,-25,-160,22,270,-16,10,34,-4,-118,574023
98,32,-3,30,26,21,191,361,-34,39,157,9,170,57,16,25,-68,-78,-91,41,182,31,-48,-262,105,571,-95,-92,-79,-78,-220,574024
70,22,-11,28,9,9,153,132,-102,-66,113,63,99,48,-34,-2,-92,-94,-111,-7,144,-39,-68,-287,47,561,-108,-127,-125,-94,-134,574025
13,14,2,35,-1,-11,60,-130,-32,89,48,-12,-127,107,21,-42,-47,-48,-38,-59,-3,-77,-8,-218,-43,377,-40,-88,-63,-44,17,574026
12,2,7,23,-9,-28,84,-138,-107,-74,-65,85,-207,94,11,4,11,17,13,5,12,-22,53,-153,3,404,14,-25,9,24,58,574027
-5,3,-1,5,-9,-23,152,-90,-82,-104,-96,36,-113,190,37,56,55,64,41,35,34,16,88,-129,49,438,56,2,48,70,68,574028
7,1,-31,-5,-14,-35,178,-308,-90,181,-220,-78,-75,68,-28,57,35,27,30,36,43,-3,71,-149,75,482,34,2,26,41,-21,574029
3,-6,-14,-8,-8,-31,117,-206,-38,209,-168,-85,-7,-44,-21,7,13,34,38,-8,-49,-44,33,-143,10,363,44,29,32,35,-31,574030
-9,5,14,13,10,-11,50,167,-22,21,-57,2,213,-109,-11,-7,2,39,21,-27,-110,-57,6,-144,-51,271,52,17,24,42,109,574031
-24,7,18,22,10,0,-6,173,123,120,-175,-19,28,-21,-33,-11,0,-5,15,-32,-105,-60,-1,-174,-56,271,22,8,12,17,96,574032
-30,12,12,23,3,-3,-5,-108,93,113,-65,-11,14,13,48,-36,5,-28,52,-56,-145,-68,10,-167,-101,188,47,39,31,30,70,574033
-3,5,4,24,1,-7,47,48,106,16,-102,82,23,95,96,-36,-20,-27,18,-63,-125,-62,-14,-201,-95,213,37,26,24,16,17,574034
-16,-2,8,20,4,9,14,122,-13,0,-197,-84,9,-9,146,-69,-61,-36,-36,-108,-165,-81,-71,-234,-130,141,-5,-21,-3,-27,-22,574035
-62,-14,18,15,-1,-1,-45,40,17,147,-33,-86,251,-83,48,-94,-40,0,-26,-133,-244,-62,-72,-218,-192,-37,28,-10,19,-5,72,574036
-78,-6,30,24,6,5,-77,91,92,162,21,15,143,-165,10,-91,21,47,62,-118,-287,-16,13,-174,-235,-190,80,47,83,46,143,574037
-45,-8,3,-5,-3,3,-42,0,17,70,78,-92,235,-283,-32,-76,-4,-4,20,-105,-170,-9,13,-264,-181,-56,11,-5,23,-27,7,574038
-101,-12,24,-9,-5,-3,-122,-12,23,-78,133,-20,253,-174,-33,-112,32,30,100,-153,-298,-19,58,-204,-285,-309,79,52,74,19,92,574039
-55,-21,14,-15,1,-8,-107,34,-9,-59,241,43,246,-86,-4,-64,11,0,83,-93,-162,17,72,-244,-199,-157,43,46,57,3,-7,574040
-31,-20,19,-3,6,7,-94,-30,50,-161,-2,-18,43,-51,14,-64,14,-13,104,-92,-144,21,67,-246,-176,-118,53,62,56,6,-27,574041
-46,-8,32,2,19,18,-93,-64,61,-97,-148,-72,-39,-46,-4,-105,0,-9,113,-133,-219,-29,41,-241,-231,-221,50,56,58,6,65,574042
6,-5,14,0,29,22,3,-61,63,-159,-20,14,56,-109,43,-75,-19,-28,29,-64,-81,-6,6,-304,-85,-2,-9,-10,15,-30,-63,574043
43,-11,-6,-11,11,7,66,-62,89,-25,440,-40,65,-68,87,18,15,-14,-19,48,97,63,15,-307,71,293,-20,-18,7,-18,-69,574044
38,1,-10,4,1,5,48,115,-101,-181,144,0,-28,22,2,31,24,-4,-21,59,84,55,40,-278,71,313,5,-9,14,9,-51,574045
4,-6,-17,5,-10,-16,-11,-22,-136,-183,-85,-114,87,-55,-17,-36,15,-4,-4,4,-42,2,19,-251,-7,178,37,-6,33,24,16,574046
5,-7,-21,3,-16,-21,29,-173,-70,102,-65,-33,10,113,26,1,39,29,36,39,-24,5,26,-206,26,251,74,37,62,62,55,574047
-35,15,-10,33,-11,-37,73,-195,-12,-22,-135,81,-52,288,104,14,75,79,117,37,-94,-5,85,-139,-14,147,129,108,117,110,128,574048
-16,5,-14,20,-14,-34,130,145,-50,-143,-99,0,49,178,26,32,18,26,27,58,-47,-12,49,-205,33,244,49,44,62,53,51,574049
-28,-2,0,13,0,-6,111,84,-3,102,25,-109,122,-14,23,-21,-44,-29,-42,-5,-122,-61,-8,-261,-50,189,-4,-29,-8,-7,-21,574050
-44,7,-16,30,-3,-17,82,-350,18,142,-118,-17,-89,50,30,-31,-20,-24,11,-3,-151,-40,10,-210,-62,133,37,3,39,29,33,574051
-20,11,-35,22,-16,-25,59,11,-47,-37,12,-55,-53,-44,-44,38,34,23,45,51,-22,27,58,-188,47,265,48,38,79,48,80,574052
-15,-1,-29,-12,-17,-27,48,174,-10,-12,60,-7,150,-53,7,46,24,26,4,62,31,29,28,-232,69,365,17,10,42,12,51,574053
-12,12,1,-24,0,6,57,-51,-40,-60,38,89,38,-42,51,14,9,25,7,40,4,7,16,-230,38,322,27,3,37,11,73,574054
-19,20,22,0,16,29,44,-100,-157,139,46,-11,88,65,78,-1,2,11,7,-6,-31,-7,26,-238,-24,239,21,-16,9,-6,112,574055
-59,14,24,13,17,20,-51,25,-143,-12,183,-87,-168,-132,-2,-68,2,24,10,-79,-146,-42,19,-242,-148,30,28,-20,3,-4,85,574056
-55,-6,32,12,25,28,-109,-15,-94,-115,0,-20,-29,-246,-74,-99,-5,-4,24,-110,-172,-60,10,-254,-188,-65,13,-21,-7,-20,68,574057
29,-4,23,-10,27,37,-27,-34,6,-49,121,33,-70,-45,-45,-34,-2,-22,18,-44,-17,10,14,-295,-82,103,-14,-21,-13,-32,-22,574058
10,-12,21,-19,2,25,-56,-49,-20,194,163,18,23,32,-43,-36,33,20,60,-37,-40,26,48,-257,-106,20,11,12,19,7,107,574059
-9,-8,15,-11,2,28,-90,-182,-14,-19,178,11,126,-43,-55,-34,56,50,124,-36,-76,24,84,-198,-127,-61,68,50,75,49,150,574060
6,-3,6,-15,4,20,-45,-105,-29,76,161,-73,38,-67,-39,-9,25,24,95,-7,-6,47,70,-229,-63,60,44,40,63,45,108,574061
23,2,9,-11,6,33,15,-110,-90,92,35,-11,91,28,12,13,2,-6,24,15,63,57,21,-272,-3,203,-9,-5,11,-3,55,574062
-17,10,0,-14,-6,10,45,-2,-1,220,143,0,25,191,-42,6,17,25,53,-2,-15,24,22,-217,-44,114,41,30,38,15,123,574063
-76,-9,-17,-41,-32,-30,21,-104,-43,191,-183,-8,-37,192,22,-44,40,42,116,-38,-128,-23,63,-154,-115,-46,90,85,87,52,192,574064
-78,-23,-22,-56,-20,-24,-33,-112,-68,27,-338,13,-141,89,1,-58,40,18,107,-37,-155,-30,54,-153,-103,-56,63,77,79,45,102,574065
-32,-11,0,-34,15,14,-103,-70,-42,-120,-270,-8,-6,-115,-29,-74,-6,-30,50,-40,-148,-34,-12,-189,-91,-17,7,32,52,5,34,574066
-3,-14,-10,-6,11,22,-143,102,-22,25,-67,-4,113,-76,-90,-97,-61,-72,-13,-65,-150,-68,-68,-230,-81,30,-38,-7,8,-50,-53,574067
2,-8,8,26,11,25,-106,-52,71,177,12,9,113,-145,12,-95,-32,-40,12,-54,-184,-56,-57,-172,-81,-33,2,33,43,-12,14,574068
-12,-8,11,27,0,8,-11,165,177,62,144,-4,-59,6,70,-39,30,22,39,-1,-147,16,-15,-105,-32,-10,53,76,100,52,83,574069
-2,-6,15,10,6,19,64,-34,55,109,84,7,-65,72,60,-19,25,25,19,18,-102,34,-23,-104,-7,56,47,55,103,48,83,574070
2,-25,4,5,6,31,27,-209,20,79,-111,-78,-130,-103,-93,-74,-56,-69,-57,-43,-136,-53,-63,-198,-81,52,-48,-43,2,-52,-41,574071
-20,-33,20,6,16,33,-104,-133,-40,119,-118,-127,-95,-124,-91,-138,-78,-77,-38,-121,-254,-128,-32,-214,-225,-110,-64,-75,-38,-73,0,574072
-111,-43,24,-1,-6,8,-208,-47,-2,-51,-57,-75,36,-77,-49,-179,-2,7,99,-157,-442,-140,46,-78,-355,-411,61,28,57,17,205,574073
-143,-16,41,35,7,11,-184,44,70,51,-42,88,54,-226,-3,-163,64,72,217,-124,-497,-91,107,31,-354,-565,183,130,177,124,325,574074
-139,-19,57,46,10,23,-199,-54,-4,73,62,78,72,-19,12,-195,45,59,220,-161,-558,-117,78,32,-365,-693,186,133,182,128,360,574075
-38,-30,12,25,11,29,-90,-255,-105,60,-22,62,62,32,46,-78,45,30,154,-49,-282,-27,72,-41,-143,-327,101,99,126,85,25,574076
17,-2,-24,28,9,-2,70,-78,-68,-50,-126,126,-25,96,62,39,52,36,92,64,0,70,66,-89,66,50,60,83,92,56,-33,574077
50,23,-30,36,14,-11,139,216,32,44,11,173,-119,96,64,97,29,30,37,105,147,102,39,-135,147,248,16,34,52,34,-80,574078
-20,7,-9,17,10,8,2,220,40,149,-75,-94,-117,110,2,9,20,37,66,11,-17,36,23,-107,-6,12,42,32,48,39,61,574079
-68,-20,-13,-2,-8,1,-96,22,-65,-34,-139,-85,44,12,45,-71,26,26,97,-57,-191,-25,42,-93,-135,-246,48,40,59,38,132,574080
16,-6,-13,5,26,22,-2,-45,-14,-82,-14,26,114,-53,63,-13,37,38,65,2,-44,14,73,-113,-35,-50,28,17,30,30,61,574081
-51,-15,4,14,4,8,-69,-182,46,0,-77,-94,129,-91,3,-77,38,57,70,-74,-215,-59,64,-79,-193,-267,55,16,31,42,274,574082
-258,-26,88,47,-6,19,-363,-170,125,131,-317,-75,93,-230,-32,-300,96,135,285,-297,-869,-209,106,150,-660,-1244,256,156,182,161,671,574083
-312,-61,96,60,-12,24,-509,-80,128,25,40,-78,159,-280,-77,-413,83,98,357,-382,-1140,-288,115,193,-788,-1670,285,204,229,178,584,574084
-229,-71,81,48,9,42,-458,-121,215,66,124,-88,144,62,-63,-375,62,61,295,-315,-997,-259,123,129,-647,-1480,210,176,192,126,454,574085
-71,-52,35,20,18,56,-218,84,176,189,-152,48,128,51,9,-154,79,56,195,-76,-529,-71,144,71,-283,-818,130,156,159,97,183,574086
37,-26,4,2,29,71,13,125,108,109,59,68,106,-42,7,-9,14,-5,40,38,-139,24,79,-53,-20,-223,17,52,55,-4,-75,574087
-17,-19,14,28,21,46,-14,81,86,-30,78,-24,185,-103,-43,-106,-37,-49,6,-58,-267,-50,25,-73,-125,-370,-17,4,8,-58,-10,574088
-21,-6,-4,44,14,19,12,-136,29,-15,135,-7,0,-130,61,-108,-52,-66,-62,-54,-236,-53,-5,-120,-117,-337,-79,-53,-22,-86,-23,574089
-33,-9,-16,37,2,17,77,-135,57,156,159,-36,-48,-83,62,-78,-31,-54,-62,-26,-205,-21,-12,-77,-81,-288,-40,-32,6,-43,50,574090
-23,-17,-12,32,4,38,103,-155,103,116,21,34,-111,15,-39,-93,-40,-75,-43,-23,-188,-19,-46,-69,-70,-254,-27,-29,13,-42,53,574091
-54,-34,-3,8,-15,26,-17,34,56,-202,-238,57,-94,-18,-44,-152,-58,-67,-28,-73,-280,-55,-78,-54,-151,-383,-7,-38,-2,-40,15,574092
-194,-39,57,28,-23,4,-231,-73,31,-113,-375,-8,122,70,-71,-281,17,49,177,-222,-701,-144,-2,135,-465,-1043,170,85,121,82,409,574093
-240,-28,63,63,-9,-10,-240,-104,23,162,-181,-68,24,76,-42,-288,81,93,297,-209,-838,-129,89,241,-529,-1306,272,176,221,182,458,574094
-216,-31,24,71,-13,-17,-188,-149,132,79,-163,-28,80,-122,2,-278,62,49,258,-202,-792,-144,91,192,-481,-1288,214,153,197,149,336,574095
-33,-8,-18,67,5,3,22,133,25,-40,-48,66,196,34,71,-95,30,-6,144,-13,-331,-19,65,58,-100,-634,57,107,122,62,-10,574096
69,-7,-45,36,11,9,170,139,74,-41,103,139,187,100,109,59,28,13,75,113,36,86,46,12,181,-91,11,93,84,32,-139,574097
93,-7,-44,21,17,19,169,-5,19,7,88,101,-33,121,150,91,19,19,32,126,124,72,3,-18,236,75,-5,50,38,20,-166,574098
88,-7,-39,-5,8,19,103,-176,-35,27,57,-78,-104,179,56,54,-15,-10,-32,84,124,32,-42,-74,210,116,-49,-6,-15,-28,-151,574099
86,3,-42,-7,2,20,112,157,-49,46,151,27,-72,182,75,75,2,-22,-27,104,174,54,-3,-73,233,182,-57,11,-15,-21,-169,574100
88,17,-31,17,12,20,141,125,-50,-46,42,172,177,142,90,105,28,-13,-8,125,232,66,63,-51,245,240,-46,27,-15,-14,-136,574101
-23,-21,-13,12,-16,-16,-6,237,13,89,14,46,116,80,59,-21,40,12,21,-12,-37,-36,78,0,19,-124,22,41,-8,-5,25,574102
-148,-30,22,27,-18,-21,-162,33,136,-11,-96,-17,-87,80,50,-142,80,65,145,-139,-444,-107,116,144,-249,-729,149,120,103,95,268,574103
-116,-13,36,57,12,4,-141,39,89,-65,43,-31,-128,-108,47,-130,79,82,149,-113,-498,-61,90,179,-248,-839,166,126,163,124,313,574104
-82,-34,19,41,10,4,-84,-136,134,56,12,-103,-32,-90,44,-131,33,47,93,-83,-443,-35,19,132,-198,-759,118,75,133,74,176,574105
-46,-12,18,44,15,27,0,47,26,76,-61,-58,120,-92,103,-92,21,20,50,-41,-335,-7,-1,92,-117,-600,76,59,87,36,47,574106
2,14,-15,20,22,19,96,220,13,123,112,24,12,-29,72,-13,17,-15,-13,48,-95,49,-8,20,47,-278,-4,9,31,-14,-77,574107
-18,-10,-31,-10,-6,-15,40,75,59,-14,309,31,-95,106,18,-39,-7,-34,-17,17,-103,16,-4,2,-5,-267,-14,-32,-2,-42,-49,574108
0,2,-8,20,19,11,-6,96,-39,-88,361,53,52,107,98,-48,37,2,69,2,-140,-7,68,37,-50,-323,28,18,12,-13,23,574109
0,8,-13,26,18,14,-29,230,-32,-122,123,130,61,-25,43,-26,69,9,103,25,-97,4,108,55,-21,-289,41,44,24,1,38,574110
-29,-14,-4,-4,1,12,-87,162,5,11,-95,24,32,185,51,-21,80,53,113,25,-145,36,103,99,-27,-362,76,80,75,33,61,574111
-57,-22,-9,-22,-1,-2,-80,-45,-37,-48,-24,51,-80,111,56,-24,64,65,92,26,-178,45,48,106,-40,-424,89,80,87,54,62,574112
-74,-13,16,3,4,15,-123,81,-28,41,-57,14,-90,-9,-68,-77,53,61,104,-16,-270,0,24,136,-105,-578,98,92,107,63,111,574113
-100,-28,10,6,-5,5,-155,-107,-48,102,5,-83,-137,-15,-85,-106,54,39,119,-49,-338,-35,24,143,-143,-681,99,104,108,66,136,574114
-72,-18,8,8,4,3,-92,-141,-4,-177,-86,-43,-160,-55,-79,-71,75,48,146,-10,-287,-1,75,149,-100,-622,118,129,133,94,204,574115
0,-9,-17,13,12,16,34,-75,-4,-207,-105,-1,-77,48,-52,-22,24,-7,57,32,-121,5,50,64,21,-352,44,40,60,38,7,574116
64,1,-32,11,19,10,153,-45,-70,-97,32,30,-10,113,35,48,-4,-33,-35,97,109,44,12,-4,182,28,-26,-13,-6,-19,-217,574117
31,3,-26,13,11,-15,122,-61,-55,-127,8,114,-71,273,7,68,29,21,30,102,116,66,37,61,194,53,17,32,36,25,-78,574118
67,2,-26,-6,8,-8,129,94,-113,-21,-82,171,-120,190,95,116,24,4,-20,136,241,84,38,20,273,231,-11,-2,5,3,-151,574119
18,-3,-14,-29,-6,-18,40,95,-7,-51,-279,58,-96,254,63,50,32,21,-36,42,94,16,38,18,118,48,-6,-31,-22,-4,18,574120
29,-7,-27,-32,-14,-12,37,70,-43,43,12,91,34,208,39,53,8,5,-78,55,121,8,14,-25,127,104,-57,-56,-52,-37,-97,574121
78,1,-39,-25,-11,-16,70,33,-46,62,253,103,-70,131,52,92,-18,-42,-112,101,235,49,-15,-56,216,284,-84,-75,-82,-66,-205,574122
27,7,-9,23,3,4,27,79,-5,175,-13,-2,10,147,-51,5,-18,-41,-56,10,43,-14,-22,11,66,7,-29,-33,-48,-26,-80,574123
15,-2,3,37,18,19,60,107,-64,-50,-130,61,-34,35,-107,-14,-26,-30,-50,-9,-4,-30,-42,10,43,-67,-43,-23,-34,-39,-88,574124
17,24,3,43,22,22,91,132,-32,-89,35,77,2,-102,11,5,-16,-11,-23,13,23,-14,-20,12,69,-49,-27,-11,-21,-36,-89,574125
-32,11,-3,26,-9,-14,65,147,66,32,-25,49,-70,40,-32,4,9,12,16,6,-26,-11,26,42,37,-120,2,9,-7,-14,-48,574126
-54,1,-14,13,-12,-35,19,-111,-23,-10,-17,31,-70,22,-41,36,25,20,9,42,3,21,56,42,59,-77,-9,4,-5,-8,-41,574127
-91,-15,-22,-22,-26,-40,-122,14,-69,-31,-67,72,0,7,-66,15,23,20,-5,29,-34,24,34,41,11,-124,-9,-3,0,-11,31,574128
-109,-8,-7,-24,-19,-25,-264,-115,8,62,-139,86,-65,-40,-63,-35,41,46,50,-3,-137,14,36,85,-68,-294,51,24,38,16,72,574129
-24,-11,-6,-46,0,-2,-208,5,-72,-110,-347,38,-125,101,-110,-27,23,8,42,17,-82,25,-5,52,2,-240,23,15,30,0,-63,574130
38,-26,-6,-43,9,12,-26,156,-190,-166,-306,-11,61,75,-18,-13,-14,-9,33,29,-31,34,-33,38,70,-156,-8,11,11,-17,-154,574131
22,-9,-10,-2,9,4,91,-21,-16,-82,-88,-3,122,145,4,16,5,19,57,44,-42,39,-16,61,65,-148,16,46,30,9,-88,574132
97,28,-26,31,29,9,225,109,-16,64,322,-29,26,125,-28,96,-27,-28,-69,113,197,77,-36,-36,201,198,-72,-35,-56,-52,-216,574133
77,22,-31,21,10,1,179,-84,-14,-85,-1,-124,19,-65,2,45,-72,-82,-130,53,174,5,-67,-96,114,207,-144,-114,-140,-118,-217,574134
62,-1,-26,-10,5,4,117,-130,55,-2,13,-35,-22,-103,-71,29,-73,-82,-137,40,167,-14,-84,-108,105,246,-147,-119,-151,-130,-284,574135
3,-4,-5,-4,-3,-6,56,-79,97,79,147,-2,112,-44,-42,15,-16,-18,-50,20,57,-11,-40,5,48,59,-39,-37,-53,-38,-71,574136
11,8,-14,-8,-20,-19,72,153,52,67,-58,34,-158,95,-21,61,43,52,7,62,73,55,16,63,112,65,21,14,25,35,52,574137
10,-8,-41,-22,-25,-35,70,37,72,45,-142,38,-24,76,-25,49,32,30,-36,53,116,41,1,40,146,148,-17,-23,-4,8,29,574138
57,16,-26,5,4,-25,118,107,6,-182,39,83,-109,42,32,60,-14,-45,-91,59,182,22,-38,-5,185,258,-63,-52,-49,-46,-151,574139
48,16,-25,9,5,-29,145,163,40,-46,-134,51,-228,-20,2,44,-57,-85,-116,43,190,6,-87,-28,192,305,-86,-66,-74,-71,-222,574140
33,4,-29,5,-7,-35,120,-68,35,-117,-187,-17,-190,7,-26,49,-19,-50,-93,42,180,19,-55,-1,188,279,-61,-41,-47,-51,-221,574141
84,10,-27,-7,7,-11,158,158,25,-149,-130,14,-193,55,44,119,4,-18,-87,119,318,83,-17,-5,301,467,-69,-32,-37,-35,-223,574142
89,6,-14,-23,7,-3,134,-26,-17,-45,-30,-68,-39,6,-1,113,-8,-12,-86,106,332,75,-36,-23,295,493,-82,-50,-60,-41,-214,574143
100,18,2,-9,15,9,115,-101,-74,63,160,-19,136,130,-17,121,-25,-23,-108,104,331,76,-70,-37,276,503,-100,-67,-69,-63,-223,574144
67,25,4,15,7,-3,85,-37,41,3,37,-43,39,-184,-6,78,-21,-31,-89,63,219,58,-52,-14,168,331,-64,-50,-55,-60,-79,574145
-22,4,11,12,-15,-31,27,53,-16,120,-71,1,-43,-176,-51,-17,17,1,-5,-26,-6,-2,18,53,-21,-22,23,-2,-5,-3,95,574146
-29,7,6,4,-13,-41,76,28,-41,11,-40,-18,-74,-16,32,-1,52,38,60,9,-22,14,49,82,-18,-60,61,33,32,39,71,574147
-14,18,17,8,-6,-24,113,37,6,15,-121,29,-127,43,75,20,63,58,82,33,-3,32,41,95,-5,-45,73,48,48,54,99,574148
-5,15,12,9,10,1,71,123,-62,48,-108,-20,92,-115,-125,-32,0,7,24,-5,-59,-17,-36,49,-50,-106,17,-5,-2,1,67,574149
-35,8,4,22,7,-5,4,-8,-75,-21,52,33,132,-145,-110,-59,-33,-27,-18,-32,-108,-52,-55,11,-72,-146,-28,-38,-36,-42,26,574150
-61,7,23,5,-6,-20,-87,76,85,-96,286,112,65,37,-45,-36,13,18,41,-9,-101,-25,-4,66,-40,-178,35,15,21,22,70,574151
-56,14,44,-1,6,1,-97,1,169,-39,334,127,214,161,-11,-31,32,31,54,1,-110,-7,8,95,-12,-207,65,43,56,55,81,574152
-41,0,27,-12,8,14,-64,-208,149,-83,69,37,-3,34,22,-34,21,8,27,-5,-101,-1,-6,70,22,-190,33,33,48,32,55,574153
22,-2,-3,-14,13,14,8,-13,84,-65,108,66,-49,170,-12,2,1,-10,-27,31,42,20,-23,8,123,16,-44,-15,-2,-32,-146,574154
22,-6,-30,-31,4,-7,29,80,33,-34,104,-9,-28,209,-11,31,5,-9,-36,61,112,55,-30,12,136,123,-36,-20,0,-28,-118,574155
3,17,4,-20,12,-5,17,105,34,-27,-43,16,13,321,-29,18,22,7,1,48,65,46,-35,54,67,76,12,2,29,13,66,574156
44,2,-16,-19,2,-4,-1,156,-116,-63,47,7,-39,350,-40,-10,-65,-87,-91,13,109,-22,-91,-56,57,178,-90,-101,-79,-77,-112,574157
72,-12,-30,-26,8,0,-11,-146,-93,12,-89,-7,-79,63,-41,-16,-121,-145,-179,1,192,-53,-115,-143,81,322,-177,-175,-168,-150,-247,574158
45,-8,-13,-5,3,-8,16,50,55,67,109,190,74,-12,-28,28,-38,-48,-71,30,158,2,-6,-18,83,258,-65,-73,-62,-42,-106,574159
77,22,-7,-1,9,9,176,253,56,18,342,42,-48,-89,-43,152,23,16,-41,142,358,110,43,13,263,535,-29,-25,-15,-3,-98,574160
35,12,-28,-36,-23,-25,153,86,-15,17,240,47,-51,-74,-36,130,5,7,-68,101,337,78,-9,-8,241,532,-45,-34,-33,-23,-138,574161
-11,5,-34,-54,-32,-48,58,-121,-45,-112,30,27,-224,69,-60,74,0,13,-54,48,216,63,-23,20,148,354,-19,-19,-17,-10,-56,574162
7,7,-30,-60,-18,-40,-10,-62,-36,-187,122,-23,-123,13,-9,72,-15,1,-63,60,223,63,-39,-3,159,366,-44,-28,-12,-19,-30,574163
30,1,-34,-64,-2,-12,-68,-187,-46,-262,-280,-39,-190,4,-20,67,-38,-42,-86,48,228,47,-55,-41,144,397,-86,-46,-60,-55,-131,574164
26,9,-2,-29,3,3,-34,-33,-7,-144,-213,51,-1,-226,-61,73,14,2,-20,70,160,57,-14,18,106,294,-22,-6,-9,-6,-37,574165
-42,-14,10,-8,-10,-15,-47,-62,12,-151,-118,-2,-129,-83,-17,8,16,14,41,-13,-29,-7,-27,57,-25,24,24,2,22,21,154,574166
-28,-6,19,15,-6,-11,-4,86,-54,-67,-55,-35,53,176,46,-14,21,27,72,-22,-67,-24,2,66,-52,-56,23,17,33,23,146,574167
1,15,24,12,13,6,41,-4,-97,83,-240,25,117,22,57,18,58,60,96,30,-31,9,46,96,-25,-30,49,62,65,62,138,574168
5,1,6,4,2,3,66,-68,68,-30,-159,91,160,73,-102,26,45,60,80,36,-22,23,7,98,-7,-11,57,70,69,66,63,574169
-38,-16,16,5,-11,-24,-29,-160,73,-77,69,4,110,178,-80,-45,-9,15,35,-29,-134,-49,-42,51,-131,-152,25,24,22,20,66,574170
-42,-5,19,1,-3,-23,-106,-186,92,119,227,1,60,-61,-28,-71,-50,-38,-18,-54,-152,-92,-77,-4,-151,-142,-26,-28,-36,-24,-24,574171
29,15,16,7,20,4,-24,-48,-8,175,353,54,-16,-64,61,20,-23,-15,-12,28,19,-20,-43,9,-5,88,-25,-3,-15,-2,-42,574172
63,-1,-21,-28,6,-9,39,117,-15,-9,400,68,-46,65,46,83,-22,-38,-71,91,206,45,-41,-49,135,360,-78,-37,-47,-44,-136,574173
89,3,-18,-19,8,2,16,159,2,-140,181,3,147,-41,21,52,-54,-60,-132,67,226,37,-68,-97,148,406,-136,-98,-79,-86,-168,574174
81,7,-10,-6,9,11,16,162,-15,-92,215,24,2,-53,-39,42,-33,-29,-105,55,193,39,-38,-62,156,381,-96,-85,-57,-59,-50,574175
46,2,17,2,13,21,-31,101,-89,56,38,-22,-135,-75,0,22,4,11,-21,32,98,37,12,20,101,230,-11,-18,-6,-1,-43,574176
28,-9,-8,-16,-10,5,-54,-28,77,5,-21,-21,-70,-157,-37,14,-28,-30,-66,15,96,29,-22,-24,84,225,-50,-74,-32,-30,-78,574177
75,20,-9,-14,-6,7,20,157,64,60,66,13,135,-134,-43,85,-38,-38,-121,63,265,77,-41,-82,172,465,-85,-112,-62,-56,-147,574178
-25,0,-22,-14,-26,-26,-98,184,28,1,105,-4,12,-46,-37,0,-36,-19,-54,-31,78,24,-41,-23,3,190,-30,-72,-48,-26,20,574179
-12,-3,-15,-1,-11,-6,-124,-4,55,-3,-16,27,-63,17,-120,-13,-53,-23,-64,-35,64,27,-75,-15,-2,167,-30,-78,-47,-17,18,574180
32,10,11,14,21,26,-54,21,-9,16,76,-43,-78,-22,-103,-6,-59,-32,-57,-30,68,39,-90,-6,14,175,-16,-85,-37,-13,9,574181
40,8,7,15,18,31,33,60,-25,91,222,-22,104,7,-61,-23,-83,-50,-67,-54,76,-6,-101,-47,14,210,-70,-96,-75,-57,-85,574182
47,-9,-20,-9,-14,-1,81,-59,-34,63,186,46,-6,-224,-59,13,-65,-52,-90,-9,159,-2,-78,-71,71,335,-97,-81,-84,-78,-163,574183
31,6,-21,-20,-21,-11,97,48,-3,79,130,81,33,-34,12,45,-17,-35,-71,40,202,31,-22,-46,106,382,-46,-35,-57,-41,-49,574184
-5,2,-22,-41,-37,-32,45,3,-149,9,18,46,55,184,12,47,0,-7,-49,34,165,26,0,-20,77,339,-29,-26,-53,-27,-36,574185
-51,-12,-9,-43,-22,-20,-64,-26,7,-50,33,-48,132,145,-98,-11,12,31,24,-30,-17,-33,5,44,-68,76,18,15,-6,13,174,574186
-54,-21,7,-37,-9,3,-121,-170,51,-58,88,-52,62,-65,-84,-73,-9,20,35,-87,-159,-101,1,41,-179,-121,2,3,-18,-12,196,574187
-11,-11,35,4,16,39,-68,-58,53,-71,-48,-115,57,-282,14,-73,1,11,39,-74,-168,-97,33,20,-165,-136,-7,3,-12,-22,119,574188
-16,-12,20,3,-1,22,-5,-99,66,-69,-41,-66,62,-43,12,-46,-3,-6,21,-46,-135,-78,8,22,-104,-89,-8,8,3,-12,105,574189
-62,-12,15,1,-28,-2,-12,-13,96,150,30,-63,106,-1,-18,-37,-1,17,25,-29,-136,-64,21,39,-78,-92,16,16,24,8,93,574190
-51,19,6,25,-13,-14,-6,97,100,160,258,-14,56,-92,-51,-1,42,34,29,11,-72,-26,72,49,-29,-18,26,25,38,16,80,574191
-5,6,-3,17,-13,-20,-3,126,81,39,106,-17,-63,-49,-3,-10,18,-6,-7,13,-8,-39,66,4,-9,80,-10,-12,-8,-24,-15,574192
179,-2,-53,-27,11,4,193,5,-97,-93,67,58,-168,98,-8,177,-47,-84,-179,182,478,82,4,-167,352,831,-173,-134,-130,-138,-384,574193
264,21,-53,-42,37,38,280,287,-101,8,41,119,-115,60,29,293,-57,-70,-228,272,751,178,-33,-193,546,1251,-204,-141,-151,-144,-484,574194
195,30,-42,-49,20,36,172,75,-123,35,-42,146,-56,37,59,265,-60,-60,-221,222,703,149,-59,-169,476,1205,-194,-133,-155,-137,-409,574195
48,18,0,-40,-10,14,-53,-62,-46,39,-22,1,-34,-81,33,105,-26,-16,-90,58,331,56,-34,-51,184,672,-78,-52,-79,-60,-67,574196
-22,13,19,-36,-8,11,-170,-104,-8,161,46,-41,98,-80,51,9,11,26,43,-36,44,3,14,64,-27,206,34,39,14,28,49,574197
43,20,15,-26,-4,22,-16,55,-90,65,12,21,208,194,52,81,-1,11,-12,25,213,53,-3,20,98,416,-1,16,5,23,-31,574198
-36,22,20,4,-15,0,11,-125,-65,-120,-210,-58,405,-31,-84,27,22,48,51,-35,70,27,17,68,-16,207,42,52,40,57,60,574199
-6,36,18,17,0,9,59,-209,-54,-17,-47,27,172,-117,-43,61,31,62,50,16,155,79,20,55,68,318,29,59,50,54,-3,574200
11,23,19,17,-2,7,26,-147,-53,-18,-43,-29,-12,-83,50,80,39,43,40,43,205,93,15,57,109,377,36,52,44,60,21,574201
13,10,7,-9,-12,-3,29,-78,-59,-43,58,12,184,-75,-6,84,-7,2,-25,45,239,84,-42,7,135,450,-8,-2,1,22,-92,574202
127,21,-29,-14,-3,1,139,88,-20,-131,170,114,5,-23,5,123,-90,-102,-185,91,425,84,-114,-159,245,802,-165,-136,-139,-120,-345,574203
175,34,-44,-15,-3,-9,228,197,20,173,146,3,3,-37,41,168,-89,-79,-228,133,532,104,-100,-194,298,1020,-178,-177,-179,-147,-333,574204
123,32,-25,-31,-8,-5,174,178,2,216,157,7,90,195,11,162,-67,-29,-178,115,444,72,-85,-144,215,926,-129,-142,-144,-105,-188,574205
-2,25,17,-14,0,13,-30,-24,22,10,190,-56,82,-51,-26,2,-35,17,-55,-29,56,-34,-72,-22,-58,368,-24,-57,-60,-37,94,574206
-63,7,26,-14,-9,0,-133,99,69,-121,-55,-64,98,-127,-45,-132,-56,-13,-19,-139,-215,-122,-88,20,-241,-32,15,-38,-43,-25,145,574207
-42,-4,17,-10,-3,0,-78,21,22,-135,-132,-187,58,-21,-17,-119,-54,-26,-17,-118,-221,-118,-71,4,-220,-55,9,-56,-54,-36,30,574208
-14,5,21,0,-3,9,0,68,-28,-17,-43,-75,-127,28,72,-62,-29,-30,-8,-67,-148,-87,-47,19,-145,39,11,-41,-23,-24,28,574209
-32,8,20,18,-2,8,-6,86,46,-107,25,-66,-268,17,95,-57,-7,-3,15,-61,-142,-68,-8,45,-137,36,33,-21,2,1,65,574210
-60,18,23,28,-1,4,-66,-5,-13,16,-42,-148,1,-223,68,-58,37,42,41,-64,-175,-63,50,64,-180,-38,67,4,22,26,167,574211
-71,-7,16,16,-18,-11,-110,-24,-88,57,-176,-79,-7,-29,-20,-79,44,41,57,-72,-190,-81,77,61,-199,-94,53,3,12,17,151,574212
-96,-5,15,16,-26,-12,-105,2,9,-10,-380,-32,-196,-55,-38,-73,63,63,126,-61,-204,-73,113,112,-178,-164,87,68,76,63,205,574213
-60,4,0,6,-24,-28,-26,-19,-15,144,-54,72,-26,114,-17,-5,52,45,94,-5,-74,-13,73,85,-38,11,71,73,73,50,75,574214
-59,16,12,23,-14,-29,-27,-45,39,109,67,92,202,150,24,-18,46,30,98,-15,-95,-8,51,109,-52,-41,93,98,86,67,101,574215
-24,-3,-5,10,-7,-16,-26,14,35,87,-18,38,58,27,2,-39,22,3,64,-33,-89,-10,21,70,-72,-40,53,67,56,55,139,574216
0,10,14,21,27,20,29,-35,77,60,-1,-45,97,-252,31,-42,14,-15,30,-33,-61,-5,7,40,-95,-14,19,46,19,30,20,574217
42,23,2,13,19,27,133,105,-67,-35,124,-69,32,-117,35,-1,-36,-51,-44,-8,72,16,-41,-27,-5,192,-48,0,-35,-25,-166,574218
23,21,18,9,22,38,84,-134,-124,5,125,-118,106,-118,24,-16,-9,-21,0,-38,4,-2,-19,14,-31,105,-11,31,-6,11,2,574219
35,11,8,6,23,26,41,-203,-36,-9,163,-14,152,-124,57,-29,-13,-24,-4,-38,-2,1,6,3,-25,115,-15,0,-10,11,-2,574220
76,24,-8,26,31,35,58,23,-7,-1,101,-24,-6,-44,87,-4,-67,-73,-72,-22,72,-8,-23,-66,6,239,-75,-59,-63,-46,-132,574221
48,15,-3,10,16,31,-2,9,-73,56,110,-83,-108,-88,-1,-17,-60,-58,-41,-45,41,-36,-17,-40,-39,200,-55,-42,-56,-36,-48,574222
22,4,4,1,12,28,12,184,-159,-98,-10,-20,8,98,29,20,12,16,32,5,53,8,52,10,-19,204,24,8,1,20,28,574223
39,22,0,0,6,15,119,163,-17,89,-104,60,-76,69,115,85,45,52,21,81,182,67,88,21,98,384,19,8,13,28,34,574224
40,22,-9,1,-1,-6,127,-68,-40,143,59,71,-186,136,118,97,34,40,16,79,211,70,64,26,133,426,7,18,18,20,-90,574225
-20,37,4,17,-7,-6,22,-219,19,-13,45,-24,-39,186,77,24,27,37,28,13,45,-1,47,47,16,191,27,30,27,26,-96,574226
-12,35,13,23,11,17,-22,-171,105,28,-131,-3,78,-59,31,25,17,22,1,20,40,3,34,49,23,178,33,22,38,26,-61,574227
-50,6,13,1,4,-5,-101,-60,35,19,-130,21,-59,-45,-70,-11,-2,12,-5,-14,-33,-14,18,58,-19,69,37,17,41,22,29,574228
-37,-8,15,-14,-6,-10,-93,36,9,4,-114,62,-268,-6,31,3,15,22,9,4,-17,5,60,55,-24,84,33,24,43,23,-44,574229
-26,-2,25,-21,-3,3,-84,71,38,-92,-127,79,-162,-184,51,7,43,59,72,3,-36,18,86,99,-38,28,77,73,77,54,31,574230
-21,-14,21,-38,5,25,-112,95,-17,-148,-299,59,0,27,37,-3,22,39,66,0,-43,6,44,89,-39,19,56,64,57,33,70,574231
-12,-12,-5,-44,0,11,-163,18,-85,-8,-341,54,106,28,1,28,4,22,20,25,15,23,12,49,11,103,18,28,41,5,14,574232
20,4,-5,-42,-8,-2,-204,31,-82,226,-336,106,233,167,55,49,-4,18,-28,61,121,42,-6,1,60,258,-8,-8,7,-7,-2,574233
4,-3,-12,-59,-25,-18,-176,32,-4,-93,-94,75,-5,142,74,83,68,66,16,95,162,84,60,54,79,312,52,41,46,49,107,574234
60,17,-16,-9,-9,-8,93,28,-44,-35,-125,78,-93,20,48,131,66,74,28,132,243,106,81,35,132,452,31,38,26,40,54,574235
29,26,-12,41,-1,-11,240,-25,17,35,82,-80,-60,-184,-20,27,-13,9,-27,15,86,-7,20,-18,-5,265,-18,-29,-38,-30,29,574236
-67,28,30,58,7,-1,149,-86,14,58,-1,-125,-6,-235,-112,-79,-1,21,30,-103,-180,-75,13,46,-174,-118,37,13,10,10,127,574237
-53,22,23,57,15,4,133,-13,44,31,149,-71,21,-45,-103,-52,28,32,66,-77,-193,-48,31,77,-152,-142,63,62,36,47,120,574238
-49,5,14,21,8,5,57,-206,66,-9,-240,-105,-94,-106,23,-74,5,10,17,-104,-209,-77,-28,21,-183,-166,24,15,0,13,30,574239
-12,9,21,24,14,5,21,-119,-37,7,-277,-108,18,-54,85,-66,0,7,22,-101,-193,-92,-29,18,-182,-149,15,0,-12,3,-51,574240
-31,-3,0,16,6,2,-8,159,2,44,-359,-16,39,22,16,-50,23,36,70,-85,-206,-71,25,53,-177,-181,37,38,21,39,44,574241
-9,7,12,25,24,4,43,158,3,65,-96,45,77,-99,94,7,57,56,87,-15,-128,-14,53,78,-94,-104,64,71,69,72,64,574242
74,26,-2,29,32,20,169,54,-32,189,-102,20,23,-58,76,88,25,4,8,91,130,62,13,8,113,285,3,8,19,28,-114,574243
116,31,-17,29,27,14,221,-16,0,-78,-1,75,58,24,-14,130,-29,-39,-98,130,320,75,-36,-79,215,593,-85,-78,-66,-53,-189,574244
87,24,-15,0,14,-2,172,-18,163,-105,113,-66,-185,135,62,60,-93,-88,-160,63,283,35,-94,-120,143,581,-132,-125,-121,-92,-162,574245
-19,8,-4,-15,-18,-39,41,-112,45,66,-43,-52,-121,-3,108,-61,-87,-74,-108,-33,43,-31,-82,-59,-49,240,-66,-88,-84,-63,-152,574246
-19,6,-4,5,-5,-26,-36,126,7,186,-217,-40,-58,11,34,-71,-78,-76,-73,-47,-23,-41,-72,-34,-66,134,-32,-57,-55,-44,-75,574247
-2,7,12,22,7,-2,-59,-31,2,15,-20,-65,8,-64,-79,-55,-60,-51,-45,-47,-29,-37,-63,-12,-56,115,-12,-42,-34,-26,-13,574248
-11,7,26,23,8,-3,-34,107,19,15,18,-141,18,-86,32,-21,17,25,32,-10,-8,9,32,48,-18,95,40,15,31,29,63,574249
41,26,18,43,26,15,63,261,83,136,32,-19,-149,-31,100,67,77,81,71,82,126,86,82,87,120,246,66,60,74,68,95,574250
25,21,2,24,6,2,105,138,61,-6,-44,-40,-139,25,75,60,79,93,73,76,101,75,85,105,100,198,69,79,86,72,150,574251
0,20,5,40,13,7,118,-24,4,-34,-27,-42,26,-75,67,21,79,95,89,42,12,69,89,119,46,67,74,104,111,78,126,574252
17,29,15,51,17,21,161,-75,-5,64,-221,-57,199,-85,81,-11,34,50,40,13,-17,39,40,57,5,51,25,51,60,28,41,574253
-27,24,35,49,12,17,143,-165,54,8,-220,-32,23,150,-6,-28,32,60,65,-24,-111,4,37,78,-89,-82,60,53,59,42,176,574254
-60,12,34,19,2,3,26,-4,29,125,40,-42,-179,166,-5,-66,37,34,57,-56,-187,-31,23,88,-162,-210,79,51,61,43,182,574255
-78,-4,9,-28,-8,-20,-70,-83,39,22,-127,-10,-43,194,61,-69,18,-2,27,-63,-177,-46,11,56,-147,-197,47,29,40,20,171,574256
-64,-27,23,-25,1,5,-125,-44,-33,14,-73,-69,126,62,3,-87,-8,-19,33,-92,-196,-73,5,35,-148,-200,21,20,18,-12,187,574257
-76,-26,38,-7,15,16,-119,34,56,-1,-101,-10,-46,-182,10,-97,37,21,105,-99,-263,-71,59,98,-163,-300,62,74,68,43,176,574258
-6,-12,24,-1,13,10,-4,132,1,74,20,79,-270,-149,0,-32,31,10,59,-32,-109,-16,57,58,-39,-77,36,52,58,37,-8,574259
3,-3,17,27,22,13,-63,25,-108,-2,72,-90,48,-178,-8,-100,-33,-52,7,-106,-195,-88,-19,22,-121,-182,-5,18,12,-14,20,574260
20,-6,2,18,20,-3,-34,172,-48,202,81,-28,56,-100,-13,-82,-65,-76,-47,-86,-114,-91,-69,-28,-45,-43,-61,-24,-26,-51,-35,574261
31,3,0,20,16,-11,0,119,72,-10,-230,64,-110,14,18,-9,-10,-7,-30,-7,-10,-12,-21,8,29,87,0,4,16,-4,-24,574262
-206,-4,66,28,-20,-27,-265,-258,113,-94,-201,-22,-37,193,-23,-177,112,148,228,-172,-555,-76,67,280,-369,-780,255,183,211,192,511,574263
-279,-26,81,29,-25,-16,-342,-212,39,-116,-139,-37,-171,199,-13,-244,126,168,339,-216,-776,-104,96,351,-485,-1154,319,255,287,260,550,574264
-236,-32,56,24,1,-5,-294,-38,54,-111,-321,-15,34,58,-21,-225,131,138,322,-170,-718,-89,126,310,-405,-1131,277,237,267,231,448,574265
-75,-15,24,37,28,29,-107,-20,-63,-182,-61,12,52,67,31,-89,96,74,202,-28,-372,-19,149,166,-172,-656,147,137,159,137,109,574266
111,15,-10,41,45,46,148,139,-125,-132,138,59,-115,89,61,122,64,21,45,184,174,127,105,26,216,131,16,44,69,51,-226,574267
97,6,-40,6,9,10,153,1,-55,28,169,149,-147,225,-16,124,24,6,-37,187,263,129,13,-17,269,309,-32,0,20,11,-168,574268
40,-4,-11,-10,17,27,44,55,-46,50,-150,100,-3,118,35,37,-6,-4,-45,92,137,67,-7,-31,136,161,-41,-23,-18,-21,-87,574269
43,0,-3,-10,24,13,24,-43,-60,117,-211,24,150,46,29,30,-6,-19,-39,71,101,46,3,-21,56,108,-38,-28,-25,-24,-38,574270
61,-2,-7,21,26,10,70,-249,-50,-24,54,28,-49,198,38,18,-18,-42,-9,57,94,18,-1,-20,35,115,-29,-10,-31,-19,-78,574271
11,11,12,28,23,14,81,-21,18,-18,75,-9,-64,21,77,-41,-34,-48,-29,-9,-30,-22,-31,-16,-43,-35,-23,-20,-30,-27,61,574272
-186,-2,82,70,9,12,-128,31,143,-46,233,-18,98,-234,77,-239,21,37,142,-226,-624,-155,1,179,-471,-916,168,88,102,102,453,574273
-343,-34,109,84,-9,-6,-319,-200,8,8,126,-103,173,-268,13,-435,33,72,310,-406,-1148,-291,39,310,-827,-1735,287,178,213,190,669,574274
-327,-44,97,89,6,-3,-342,-123,153,-25,115,-208,165,-211,-20,-423,62,103,344,-386,-1174,-271,73,304,-790,-1835,282,191,248,202,588,574275
-124,-38,22,49,15,11,-152,33,104,35,253,40,-122,-11,-24,-174,65,78,218,-131,-633,-95,80,169,-345,-1083,129,128,192,115,98,574276
53,-22,-35,15,5,6,76,106,44,45,126,130,-304,325,74,61,40,32,57,88,-47,56,75,13,80,-203,-27,33,70,1,-79,574277
35,-6,-23,21,6,11,14,2,-60,84,77,152,-339,112,78,21,43,27,61,51,-82,30,68,31,15,-240,3,41,68,13,2,574278
38,-17,-21,7,19,19,-32,53,4,82,76,123,-274,41,-13,-12,17,5,24,23,-92,16,38,15,-16,-233,-5,25,40,-11,6,574279
-8,-26,0,-7,10,16,-68,55,77,99,1,56,-80,93,13,-36,24,15,61,-18,-191,-18,48,52,-87,-389,37,57,54,17,55,574280
15,-15,-1,-16,12,31,-27,80,53,-52,93,60,-64,10,-21,-46,-4,-11,20,-9,-128,-16,12,2,-42,-285,-10,14,13,-22,-40,574281
3,-11,12,3,19,31,-77,74,119,192,-93,117,-56,-101,-99,-104,-32,-43,-17,-59,-173,-55,-42,-34,-86,-333,-45,-18,-31,-59,44,574282
-199,-22,71,29,4,14,-341,-106,157,302,-237,104,-20,-146,-111,-262,56,70,180,-220,-680,-150,29,197,-426,-1132,168,137,145,112,450,574283
-250,-41,62,19,2,14,-410,-113,33,80,-104,37,163,3,-12,-284,84,90,265,-232,-806,-158,73,264,-469,-1376,215,193,213,174,386,574284
-143,-46,41,26,13,22,-302,-59,-61,38,85,39,188,-54,-22,-214,90,80,236,-138,-636,-95,91,219,-303,-1163,179,167,197,157,283,574285
14,-30,20,19,39,44,-80,195,-82,61,-87,104,-44,-11,20,-57,78,52,135,9,-282,6,91,112,-37,-662,90,111,141,103,171,574286
98,-19,-24,18,19,28,128,-45,-66,-39,200,62,-71,93,35,68,39,6,11,122,61,80,75,-6,177,-150,-38,23,41,14,-63,574287
60,-7,-43,18,-5,6,138,-119,-40,101,309,76,-89,114,68,52,18,-5,-19,98,87,63,53,-17,166,-82,-46,18,11,-5,-81,574288
-3,-2,-51,16,-12,-17,53,-185,23,174,182,40,122,13,47,-2,7,-7,-5,37,-26,18,35,8,71,-233,-12,29,19,5,32,574289
28,-3,-42,27,0,7,59,-165,2,231,210,26,314,1,-32,6,-7,-20,-29,51,3,24,-8,-14,94,-179,-30,6,-2,-10,-79,574290
28,-2,-31,15,3,13,92,40,-88,100,201,14,-48,54,-57,5,-33,-30,-89,47,0,27,-54,-39,88,-170,-57,-36,-24,-33,-86,574291
39,1,-27,23,11,12,136,97,-55,-10,108,18,-71,-12,-113,16,-35,-44,-82,42,5,37,-54,-34,85,-150,-57,-34,-19,-21,-32,574292
64,2,-33,25,21,14,176,3,4,-71,354,25,-118,-43,-12,18,-60,-85,-93,35,55,21,-63,-66,109,-45,-88,-60,-62,-54,-196,574293
23,9,3,43,35,28,85,87,92,-45,130,-65,-86,-262,40,-51,-41,-48,-46,-35,-112,-32,-37,-19,-31,-286,-45,-29,-33,-28,-81,574294
7,-5,-11,7,13,18,4,3,89,-13,-84,-159,42,-110,24,-50,-35,-24,-44,-35,-110,-24,-22,-29,-28,-282,-62,-36,-33,-37,-91,574295
16,1,-7,11,14,12,-23,29,-35,-71,-34,-58,83,4,-18,2,-5,12,-15,33,-24,15,24,-1,54,-149,-17,-19,-13,-14,-126,574296
24,13,-16,23,3,-3,32,-40,-70,-57,-27,87,8,184,12,61,18,37,8,93,57,64,57,30,146,-20,32,18,22,14,-85,574297
52,6,-28,7,9,-2,18,-128,14,-76,180,52,21,191,29,73,18,26,-7,110,103,82,47,23,170,54,16,0,21,4,14,574298
29,13,-12,13,9,6,-23,-43,83,-65,61,60,30,334,50,29,17,25,15,69,21,52,32,31,84,-60,24,-4,18,-1,41,574299
23,1,-26,-5,-7,-6,47,139,41,61,-69,116,-37,211,12,53,14,13,-12,101,105,52,26,1,93,36,5,-18,-10,-14,-12,574300
18,15,-8,-2,-3,-3,52,-2,-29,84,126,102,59,183,48,78,59,48,32,124,119,78,68,31,115,38,42,27,23,23,33,574301
25,18,-13,0,0,0,24,-127,-86,13,88,41,171,123,0,74,42,16,-4,110,119,79,60,10,146,47,16,4,3,7,-20,574302
57,8,-29,-8,2,-11,-3,-90,-37,-46,-7,39,111,-70,24,49,-27,-33,-117,61,138,27,7,-81,134,96,-82,-96,-75,-76,-98,574303
102,4,-20,-28,17,11,23,-39,0,-121,20,-52,107,-38,-12,48,-75,-86,-178,57,233,-1,-63,-149,159,254,-147,-155,-143,-122,-233,574304
92,-1,3,-24,19,30,3,222,-130,-11,-38,-67,363,-23,-56,46,-49,-61,-135,48,194,-2,-58,-121,108,228,-110,-126,-124,-96,-193,574305
46,1,16,-12,6,18,-19,249,25,141,7,24,139,-61,-79,52,7,-6,-33,38,90,26,-13,-20,58,47,-29,-14,-33,-22,50,574306
-6,9,6,-15,-4,4,3,88,79,73,238,68,-105,-132,-33,53,35,34,15,25,13,48,0,36,38,-67,11,42,5,27,8,574307
-7,-5,-14,-18,-10,-12,21,120,19,61,163,-20,-22,-81,-55,41,13,-2,8,7,32,18,-11,5,25,-49,-2,49,-12,15,-23,574308
-15,-4,-22,-6,-6,-16,-5,35,-114,31,79,-77,-134,-19,-70,-3,-6,-13,4,-22,7,-28,-16,-10,18,-87,-20,32,-23,-9,5,574309
-9,15,-3,7,4,-2,-3,31,-127,-73,52,56,-129,67,-43,-6,-6,-6,-19,-20,2,-18,-14,-14,40,-77,-24,4,-25,-17,14,574310
-18,-4,-8,-5,-10,-11,1,18,-27,-113,-26,61,-81,-98,-23,-19,-17,-22,-51,-42,-23,-17,-21,-45,14,-89,-42,-30,-37,-23,9,574311
-3,3,12,11,-6,11,24,25,94,-25,-28,66,-133,59,8,-31,-13,-27,-27,-51,-46,-36,-33,-20,-32,-131,-15,-26,-25,-8,-32,574312
51,5,-29,1,-2,12,131,-79,-79,60,209,33,-217,-140,-82,50,-54,-61,-105,25,144,13,-61,-83,113,149,-89,-71,-63,-58,-143,574313
89,-2,-32,-16,6,18,130,-11,-84,185,-49,36,4,-207,-46,33,-130,-138,-227,6,194,-24,-159,-173,143,285,-182,-158,-160,-144,-236,574314
74,-2,-4,-21,4,28,29,60,-7,-12,-126,38,101,18,-60,-1,-119,-123,-228,-15,142,-46,-164,-165,97,213,-158,-155,-163,-144,-150,574315
27,7,28,2,-5,4,-65,151,82,-100,-98,7,225,-31,22,-15,-31,-26,-101,-12,55,-2,-73,-49,39,38,-46,-60,-65,-43,3,574316
1,14,1,15,-11,-28,-22,63,-15,-73,-77,22,96,4,10,26,16,19,-28,52,82,50,-5,2,68,58,9,-5,-2,10,-4,574317
22,-2,-22,-6,-19,-28,8,-66,-21,-9,-257,-14,40,11,43,60,-4,8,-50,95,190,64,-7,-40,142,232,-38,-34,-30,-31,-52,574318
10,-6,-8,-7,-11,-6,-38,152,43,85,-70,-77,128,-62,31,19,-1,-1,-35,53,113,12,18,-33,79,131,-39,-36,-38,-40,46,574319
3,-11,-4,-24,-12,-9,-2,71,69,-23,-73,130,72,66,70,24,32,7,-12,56,118,22,67,-14,95,123,-23,4,-28,-27,87,574320
5,9,5,-11,-12,-10,1,-152,121,-117,118,82,95,91,9,42,57,28,37,81,104,45,106,30,94,92,15,57,22,11,28,574321
74,19,-7,-18,-5,7,63,-75,-30,5,264,29,-41,29,-11,96,41,7,-18,134,251,76,76,-20,190,323,-41,15,-26,-29,-78,574322
65,3,-16,-15,-2,-3,70,106,-22,31,204,-87,19,-43,63,81,39,19,-8,84,218,38,74,-32,140,287,-46,20,-41,-31,-78,574323
31,1,-15,-7,-12,-24,32,46,70,211,-23,-80,86,-219,35,36,36,28,46,24,98,7,87,1,61,111,-7,56,-14,-7,-24,574324
10,1,-23,-8,-24,-23,3,-32,-39,119,-146,-6,-126,-226,-18,25,26,28,49,13,66,1,70,21,57,56,3,52,-3,-4,-54,574325
-32,-7,-15,-20,-34,-23,-68,-254,34,7,-37,70,-135,-164,-99,12,34,51,23,-6,15,2,22,43,22,-11,23,30,21,28,65,574326
-29,-4,6,-25,-30,-17,-62,-199,-20,-31,58,98,-3,107,-27,38,51,69,17,10,48,17,16,32,45,47,29,26,31,44,40,574327
-34,4,25,-31,-9,-6,-89,16,71,-57,-78,52,195,-39,68,20,49,62,17,-16,-3,13,38,41,14,-25,35,44,36,45,57,574328
-23,-10,13,-40,-22,-14,-123,-127,62,-51,4,62,68,31,-79,3,11,-2,-6,-34,-34,-1,4,26,-13,-67,28,34,22,34,39,574329
-34,-25,10,-38,-32,-25,-149,-163,-37,-232,41,21,0,-4,-34,-16,-7,-3,14,-60,-95,-16,0,36,-56,-154,51,43,26,39,50,574330
-11,-13,12,-11,-13,-13,-103,112,-113,-137,-84,134,69,-73,29,15,11,19,30,-37,-59,17,9,40,-17,-109,54,52,39,52,7,574331
-54,0,13,-7,-18,-15,-108,-77,-60,18,-113,11,67,-93,34,-25,20,20,53,-66,-134,-20,4,49,-81,-232,62,45,25,51,52,574332
-109,-5,17,-7,-14,-25,-161,-41,-32,-129,-221,-19,103,-4,-18,-83,37,39,103,-108,-250,-68,23,97,-172,-415,97,86,49,75,146,574333
-132,-17,-2,-12,-22,-45,-191,-241,81,-111,-25,-60,43,86,-58,-102,62,51,130,-123,-304,-76,48,116,-203,-519,134,101,84,91,142,574334
-110,-27,-8,-12,-36,-43,-163,-234,-43,13,-109,1,47,-73,-10,-86,61,57,144,-94,-305,-64,65,138,-204,-532,143,118,109,112,146,574335
-82,-15,11,16,-4,-12,-66,-111,-32,4,-86,-21,46,-126,-31,-59,48,57,122,-39,-249,-34,59,109,-149,-464,106,108,95,96,34,574336
-34,-7,-15,1,-15,-26,37,47,-51,-109,82,-10,-97,-21,31,-8,31,22,29,39,-59,-1,31,31,-18,-207,29,37,43,45,-105,574337
52,10,-39,-21,-3,-24,135,217,2,-47,-81,-59,34,55,38,90,-9,-19,-99,138,214,47,23,-91,159,232,-63,-65,-62,-47,-173,574338
-1,2,-31,-13,-10,-27,39,-27,-5,13,112,-126,167,46,9,45,-2,9,-58,88,99,22,20,-39,71,66,-21,-23,-30,-34,-6,574339
-3,-6,-40,-10,-12,-34,24,-115,24,-62,130,-128,31,179,32,42,-15,-16,-70,93,87,34,-13,-48,93,83,-48,-36,-37,-50,-68,574340
29,4,-27,-7,-2,-13,81,64,-62,-9,-35,11,-42,-22,-5,63,-28,-33,-97,96,155,46,-23,-68,134,195,-75,-59,-60,-59,-135,574341
6,-4,-33,-13,-11,-15,93,-14,-94,-77,17,-10,-38,85,36,29,-39,-35,-78,46,107,7,-14,-64,60,123,-75,-62,-69,-60,-68,574342
-57,-9,-17,-14,-10,-10,48,-31,3,41,-52,-96,-100,21,-1,-54,-11,-9,28,-33,-88,-35,32,14,-104,-164,4,17,-12,-6,44,574343
-79,-9,-31,-17,-18,-29,-5,-110,47,-13,-79,-122,101,-180,-94,-108,-34,-55,2,-102,-206,-84,-10,-10,-175,-334,1,-4,-15,-25,81,574344
-31,6,-16,23,11,-13,-32,-123,91,-80,104,-64,-155,-232,-39,-126,-108,-114,-95,-131,-185,-116,-115,-83,-163,-283,-79,-84,-88,-92,-1,574345
-56,-15,-9,-4,-7,-14,-109,-62,115,98,66,-13,3,59,-3,-143,-117,-110,-97,-156,-222,-115,-151,-63,-173,-333,-64,-70,-81,-81,-5,574346
-28,-28,-4,-33,-5,-2,-123,-3,121,91,-35,74,-25,82,54,-97,-80,-67,-48,-102,-136,-65,-107,-40,-95,-234,-31,-32,-56,-46,6,574347
-5,-10,19,-4,20,18,-94,64,79,11,-69,10,34,-164,54,-88,-69,-54,-44,-106,-120,-70,-90,-40,-99,-206,-32,-43,-64,-49,-58,574348
35,17,25,37,31,28,25,-208,103,-153,184,-33,102,-200,-36,-12,-25,1,5,-47,-38,-12,-27,-4,-36,-117,4,-2,-22,-2,-59,574349
-11,4,-3,18,5,-9,35,-80,-5,-132,80,-69,-28,-97,-46,-17,-12,32,33,-52,-77,-23,22,13,-46,-160,31,27,-4,25,-20,574350
-40,9,-4,8,2,-18,2,26,47,183,-121,-123,149,2,-16,-36,-6,16,48,-64,-117,-29,18,18,-61,-214,27,29,13,25,33,574351
-17,-4,-15,-8,6,-19,-26,101,-5,191,-4,-111,62,-3,-22,11,37,54,105,-13,-64,20,78,64,1,-164,57,73,54,56,-7,574352
21,-6,-34,-24,-2,-27,-38,112,-15,115,116,-99,-7,226,-27,51,42,54,71,24,31,40,98,23,46,-23,35,39,28,36,-63,574353
20,-8,-30,-32,-21,-33,-87,-71,-39,95,83,-91,-10,197,-25,88,79,68,67,68,105,65,129,35,71,62,47,37,25,47,-40,574354
25,1,-9,-17,-5,-12,-129,-112,-107,89,37,90,-102,54,74,78,60,30,42,77,132,72,100,16,89,96,32,32,11,27,-24,574355
-36,-11,-1,-28,-11,-15,-229,50,-78,-35,-190,79,-112,-38,68,-14,3,-22,0,-8,-11,-7,7,4,-10,-95,13,-2,-12,3,35,574356
-53,-24,10,-25,-4,-3,-206,144,-24,-76,10,23,106,-98,53,-61,-25,-32,-11,-39,-84,-49,-40,-2,-62,-207,-1,-17,-16,-8,16,574357
36,-2,-7,4,13,4,126,89,-20,-157,88,60,138,-173,-12,36,-54,-62,-99,81,176,16,-73,-86,146,187,-83,-71,-79,-74,-217,574358
50,17,-10,5,13,2,223,112,-12,-105,-102,-3,-96,-114,14,49,-56,-78,-133,85,207,30,-78,-98,178,256,-99,-80,-97,-81,-160,574359
21,11,-23,-13,-7,-18,171,-26,-93,-43,-2,-122,-200,85,-101,38,-40,-46,-107,74,166,51,-71,-66,153,195,-67,-59,-60,-49,-108,574360
6,0,-26,1,-1,-14,143,-190,-125,-24,-54,-67,-159,131,-49,53,-24,-17,-93,75,157,47,-62,-50,144,188,-44,-50,-43,-41,-107,574361
45,-11,-19,1,25,19,82,-183,-40,-201,-79,-151,-7,-87,45,23,-60,-46,-115,39,127,1,-78,-77,91,168,-70,-82,-80,-73,-148,574362
95,-14,-24,-6,22,29,87,50,-48,-289,16,-170,11,-90,-33,14,-106,-90,-156,22,150,-28,-125,-130,87,251,-122,-103,-123,-123,-159,574363
89,-5,-15,8,11,5,170,26,-71,-96,91,-16,-128,66,-27,60,-48,-47,-95,52,176,34,-65,-77,129,280,-81,-24,-61,-75,-75,574364
41,18,-11,4,-6,-8,228,-211,143,-99,77,79,-170,155,49,95,-2,-9,-29,75,217,60,5,-18,162,301,-28,22,-11,-25,-94,574365
-31,23,8,-2,-5,-12,132,-140,6,-68,131,-15,93,106,-32,7,-22,-14,-20,-20,64,-8,-26,-3,38,105,-2,0,-17,-22,-36,574366
-39,12,9,4,7,-10,13,-63,-51,-47,-105,-97,133,59,-129,-58,-67,-65,-46,-88,-42,-60,-80,-31,-33,-33,-19,-42,-31,-39,-12,574367
-23,7,7,4,20,5,-94,-32,-95,-111,-169,-81,-28,93,-107,-95,-70,-69,-60,-129,-106,-81,-73,-53,-114,-125,-34,-78,-58,-60,21,574368
-47,0,17,-9,2,-2,-69,88,-13,21,-183,43,-26,119,-32,-45,-6,-7,-1,-86,-106,-31,1,-5,-123,-146,7,-31,-15,-3,28,574369
-62,-9,11,-17,-8,-8,-20,232,3,-116,-187,-10,77,136,45,-22,22,15,22,-45,-60,-10,12,30,-100,-133,25,0,30,10,55,574370
-14,-23,9,-19,4,0,-59,-49,115,-62,-202,-79,47,125,70,-51,13,-7,34,-61,-50,-51,-8,7,-125,-115,9,-1,-9,-8,47,574371
0,-19,12,-22,-3,-4,-79,-257,49,-27,-84,-6,-28,17,92,-40,25,25,69,-56,-33,-58,31,2,-137,-93,41,12,-24,-1,20,574372
58,-7,10,-6,7,3,0,-69,30,62,-71,61,-137,15,109,51,71,70,98,46,118,34,84,28,37,98,54,57,16,25,-4,574373
74,4,-13,3,1,3,85,109,-87,-108,46,29,51,-40,75,79,35,38,42,84,200,80,46,-15,151,232,-21,27,11,0,-81,574374
72,11,-9,20,19,0,135,183,-110,-47,112,19,-41,-62,30,24,-43,-44,-49,27,147,26,-34,-74,120,204,-85,-41,-58,-58,-161,574375
56,14,-3,24,27,18,133,-21,-5,87,97,67,-69,41,-7,-22,-51,-52,-31,-33,39,-16,-54,-51,19,50,-61,-30,-56,-47,-75,574376
27,-4,17,11,20,26,26,-49,100,162,57,46,47,-183,0,-91,-66,-91,-36,-89,-95,-73,-72,-45,-99,-134,-49,-42,-65,-54,-7,574377
52,-8,-4,-2,11,20,-16,179,-8,-19,89,48,-33,-172,25,-53,-74,-117,-93,-43,14,-48,-92,-83,7,22,-93,-70,-81,-78,-183,574378
46,-9,-4,-2,2,17,-35,174,-73,-49,-63,61,76,-96,-68,-7,-46,-54,-73,-1,49,15,-63,-37,65,60,-45,-30,-32,-40,-103,574379
32,11,22,10,14,34,-43,253,-20,-12,-55,-89,93,-186,-1,11,-18,-3,-9,11,7,43,-36,21,54,7,13,7,16,16,23,574380
41,5,15,10,12,21,-32,45,1,-63,-90,-36,-78,-134,-8,-16,-48,-35,-50,-11,-3,11,-70,-18,18,19,-24,-60,-36,-25,-63,574381
68,7,-4,-1,7,1,76,124,4,-58,36,63,-125,-63,51,35,-75,-58,-117,27,143,11,-78,-97,94,252,-77,-111,-92,-69,-216,574382
46,14,2,1,-1,-4,83,-95,-38,10,85,103,-89,86,13,52,-38,-45,-66,24,142,24,-34,-65,77,246,-48,-74,-73,-48,-123,574383
25,15,2,8,-3,-4,51,-78,-86,-18,93,117,-77,81,-61,34,3,0,-5,13,81,31,7,-18,38,152,-13,-21,-33,-11,-16,574384
-5,8,-19,7,-17,-22,37,-80,-119,8,-54,40,-39,8,4,11,9,7,18,-7,29,9,24,-12,10,67,6,13,-20,11,14,574385
-31,-3,-14,14,-15,-22,-14,-143,-129,4,-156,-27,17,-14,10,-24,19,28,36,-46,-60,-30,31,23,-68,-68,34,19,0,27,118,574386
8,-8,-13,17,-1,-13,-4,-100,-21,120,-310,-60,88,-69,83,13,47,39,62,5,5,16,66,37,-11,-23,23,40,30,27,80,574387
15,1,16,17,3,8,23,-49,40,42,-163,-15,62,-119,110,41,86,83,109,50,16,63,102,85,38,-29,72,79,90,67,120,574388
-3,-1,22,7,4,4,-16,109,28,10,-70,-14,-33,-19,101,-8,47,50,66,-2,-49,25,18,55,-18,-115,54,47,65,49,81,574389
1,-4,1,9,4,8,-25,15,120,85,-127,-56,-118,-79,1,-36,-12,-23,-8,-42,-60,-21,-41,-12,-43,-131,-1,-13,1,2,27,574390
14,8,-4,10,0,7,15,-67,1,40,78,-69,-144,-33,-55,30,9,7,-30,24,29,22,4,5,54,-13,8,-21,13,10,28,574391
-21,-5,-2,4,5,0,-19,-3,43,-4,131,-81,20,-74,-111,15,20,28,-46,7,-10,36,2,17,46,-51,6,-21,24,14,87,574392
14,-11,6,-7,11,7,5,142,53,-84,-155,-173,18,92,-48,-13,-16,-30,-101,12,50,30,-39,-51,68,53,-46,-78,-36,-29,-40,574393
54,9,3,3,10,16,73,320,-90,-21,-305,-69,-205,151,-63,9,-36,-48,-82,27,121,20,-33,-74,72,168,-61,-87,-62,-51,-120,574394
83,11,-24,-4,9,9,158,191,-30,-11,-96,-39,-85,71,-72,46,-57,-59,-91,39,209,10,-21,-109,100,337,-100,-118,-103,-84,-166,574395
69,8,-19,-5,6,9,157,-39,-24,43,103,95,-209,181,-68,30,-36,-35,-60,11,159,-20,-11,-76,55,284,-59,-92,-90,-62,-69,574396
4,13,29,4,18,31,2,20,82,74,-57,8,-46,62,-50,-49,-4,27,31,-80,-85,-63,-9,25,-101,-74,36,15,-9,12,101,574397
36,2,4,-7,5,19,-49,-18,-69,73,217,5,-68,188,-38,5,6,21,25,-21,1,0,-24,22,-2,26,3,50,6,23,-3,574398
18,-6,2,-6,-4,-3,-54,33,-111,22,76,12,98,116,28,27,23,35,50,17,37,34,5,40,34,71,24,72,22,34,-48,574399
55,2,-4,-4,3,12,24,36,-68,-21,-1,-10,-143,17,8,69,9,18,-9,64,162,45,-15,-4,121,276,-4,24,-4,13,-126,574400
41,-9,-10,-19,-8,-6,-3,-1,-4,135,-22,36,26,-32,27,53,-5,-1,-12,34,128,32,-32,-19,100,255,-6,-2,-11,0,-51,574401
18,-12,-12,-15,-17,-19,-5,11,37,51,-219,41,76,50,-8,63,20,14,55,39,117,72,2,28,96,233,32,36,29,31,7,574402
120,23,-24,-4,5,-3,141,217,28,58,16,185,-1,96,59,194,-4,-22,-44,174,414,174,-3,-55,328,669,-48,-37,-39,-18,-331,574403
331,47,-71,-22,35,24,362,447,-91,32,85,226,-51,268,112,385,-96,-104,-324,360,1014,265,-93,-290,699,1597,-264,-247,-251,-188,-656,574404
322,49,-59,-40,23,20,350,406,-133,26,-72,149,146,328,64,397,-71,-70,-329,354,1055,279,-86,-286,672,1714,-250,-240,-260,-181,-486,574405
157,31,7,-11,7,6,147,270,26,-19,100,-94,134,34,47,220,-25,-14,-171,163,611,140,-22,-164,306,1083,-122,-146,-190,-111,-165,574406
-62,14,56,22,-9,-6,-111,64,132,5,-6,-123,232,-261,-57,-65,18,44,19,-119,-83,-73,16,25,-204,62,49,-20,-64,-1,182,574407
-87,-6,30,8,-31,-27,-80,67,109,36,58,-100,158,-38,-62,-54,32,60,91,-81,-110,-52,32,68,-172,-37,76,46,16,49,201,574408
-52,1,33,7,-5,-5,-60,-15,82,0,-122,-77,63,-1,-6,-35,26,81,84,-41,-71,-20,6,60,-111,-17,60,38,30,44,112,574409
-31,4,23,-1,2,10,-64,-69,66,152,-94,-76,72,50,-57,-59,8,40,43,-60,-64,-40,-36,17,-91,8,14,7,-9,6,56,574410
-71,4,28,3,-10,-14,-83,-15,90,204,-2,20,18,-31,-46,-70,35,62,94,-74,-132,-42,17,65,-125,-131,70,50,39,38,203,574411
-61,-5,17,-2,-21,-23,-76,52,113,-99,64,12,61,-18,-55,-62,5,22,50,-46,-94,-20,-1,33,-93,-75,28,21,29,18,90,574412
133,19,-18,-9,10,10,144,149,0,-79,372,141,41,-101,-15,140,-45,-87,-112,154,401,99,-33,-133,275,668,-124,-88,-92,-87,-312,574413
300,28,-51,-33,38,31,349,221,-97,121,340,237,82,127,70,325,-86,-141,-270,316,898,200,-32,-284,608,1456,-267,-180,-225,-187,-542,574414
304,42,-49,-41,38,28,395,185,-36,-83,172,155,-70,86,24,365,-58,-84,-277,330,1015,226,-23,-272,658,1645,-257,-166,-231,-183,-479,574415
157,16,-30,-50,-10,10,207,25,-60,23,9,-58,59,27,-8,212,-45,-44,-192,142,626,107,-47,-153,347,1146,-141,-111,-165,-116,-153,574416
-7,21,32,-20,-4,15,-34,-176,68,-49,-91,-86,0,-77,-62,18,8,30,4,-60,71,-11,-15,36,-45,350,48,2,-21,19,144,574417
-1,13,27,-11,1,3,-83,-164,99,17,9,100,20,-184,-40,2,-13,10,25,-70,6,-6,-45,40,-65,253,41,2,1,37,78,574418
-21,5,43,-11,-7,6,-122,-132,20,23,-46,28,75,-105,-27,-9,-5,18,38,-88,-51,-34,-47,54,-114,164,60,-1,7,46,95,574419
-45,1,31,-19,-13,0,-136,120,28,-20,-189,99,49,-113,-62,-34,2,30,47,-112,-112,-84,-48,60,-145,70,68,12,21,55,113,574420
-44,-4,20,-16,-12,-10,-134,103,103,-76,-110,-25,-98,-30,1,-22,16,40,72,-90,-125,-66,-18,89,-130,18,88,61,62,77,201,574421
-56,2,25,-5,-20,-16,-125,214,136,-91,-115,-29,-94,102,-10,9,50,63,98,-39,-113,-9,3,122,-80,21,121,106,112,114,192,574422
-17,10,13,1,-6,-12,-100,170,1,-36,-93,27,81,-23,11,62,51,59,59,28,13,45,-7,81,39,189,67,72,92,83,25,574423
99,14,-6,-15,17,10,-18,114,-20,-48,157,66,-82,-54,137,168,14,10,-71,135,340,102,-8,-50,240,682,-71,-40,-37,-27,-189,574424
62,-4,-3,-35,2,9,-52,11,-29,-134,206,80,-10,95,-3,133,38,17,-51,88,267,81,49,-36,135,579,-35,-37,-39,-21,-62,574425
-4,3,13,-3,-2,10,-60,49,43,-171,-144,27,-48,-33,-33,41,77,61,68,9,65,50,111,56,-22,249,62,41,34,39,85,574426
-128,-5,33,22,-23,-14,-113,-259,-65,-102,-74,-52,-92,-110,-48,-126,80,69,146,-156,-314,-65,89,118,-299,-301,125,86,74,66,288,574427
-217,-17,50,18,-27,-23,-185,-223,-67,-179,-19,-99,-3,105,-35,-216,77,73,210,-266,-589,-154,74,173,-479,-730,175,124,126,93,400,574428
-237,-29,73,22,-3,6,-295,-125,17,-206,-266,-187,113,-27,-25,-311,56,34,209,-356,-803,-245,45,172,-619,-1061,174,119,126,76,471,574429
-213,-22,93,44,14,20,-313,-363,117,32,-242,-122,-103,-25,32,-320,77,37,231,-348,-847,-218,69,185,-642,-1186,173,147,157,85,511,574430
-229,-33,57,34,-18,-10,-261,-476,48,-18,37,-26,-42,-41,27,-273,94,63,255,-314,-815,-158,108,200,-605,-1188,187,185,191,100,398,574431
-215,-18,56,60,-8,-12,-199,-266,15,-46,-29,52,-53,-49,10,-244,85,60,248,-273,-787,-142,100,195,-550,-1175,180,191,206,98,321,574432
-31,-2,-3,37,11,10,27,-58,-47,13,209,154,40,-107,-34,-70,8,-23,41,-91,-288,-49,20,1,-166,-441,-20,59,68,-34,-30,574433
89,9,-11,22,35,35,160,60,-55,19,296,244,6,71,68,50,-23,-43,-81,14,38,18,-39,-88,81,69,-88,-2,-15,-108,-190,574434
65,5,-23,11,8,24,141,62,28,9,11,184,-58,103,109,67,8,-3,-61,29,58,30,-11,-58,80,125,-52,13,-11,-80,-128,574435
-103,-4,25,14,-11,-10,-62,-145,26,60,76,-38,35,55,44,-66,86,86,111,-124,-351,-56,89,106,-232,-481,105,112,105,24,248,574436
-257,-13,45,34,-16,-30,-273,-247,-61,20,-66,-116,-29,33,-29,-203,155,159,282,-262,-809,-139,167,261,-536,-1195,261,218,241,150,509,574437
-269,-23,40,34,-25,-27,-319,-184,-5,64,-169,-113,44,158,-26,-250,121,125,282,-286,-906,-178,141,254,-593,-1376,248,197,241,156,464,574438
-181,-35,25,32,2,-10,-208,-286,-18,9,117,12,-21,27,-16,-203,79,70,211,-236,-747,-177,83,171,-495,-1170,157,133,166,88,246,574439
-123,-30,32,48,17,12,-146,-223,-26,5,146,61,120,-95,7,-212,50,44,166,-232,-720,-190,84,125,-484,-1156,109,108,126,40,235,574440
-156,-29,32,47,1,-7,-160,26,58,52,55,-101,165,-63,23,-243,55,42,162,-244,-799,-189,87,148,-529,-1284,116,134,142,42,284,574441
-149,-8,38,64,0,-13,-81,67,113,268,169,16,49,69,-3,-203,65,47,137,-187,-713,-145,87,144,-436,-1183,111,148,155,49,230,574442
-104,-29,8,44,-3,-8,5,85,67,258,25,17,26,25,15,-181,17,-9,44,-154,-538,-143,24,44,-289,-942,26,57,74,-15,116,574443
-18,-26,12,30,21,44,33,24,7,-68,138,-69,73,-48,11,-144,-27,-51,-41,-126,-373,-134,-35,-36,-175,-706,-28,6,4,-73,-64,574444
-42,-29,18,17,19,28,-37,269,-19,-11,238,-73,127,-53,-58,-185,-42,-49,-87,-160,-438,-149,-58,-23,-262,-788,-17,-12,1,-72,15,574445
-117,-29,25,21,5,10,-129,93,76,119,73,26,-127,-139,66,-218,-9,-9,-30,-203,-581,-152,-11,55,-427,-1029,51,17,58,-19,211,574446
-151,-29,25,31,-7,-2,-166,-31,124,8,-4,94,-85,6,59,-219,36,33,68,-195,-673,-130,46,111,-511,-1202,113,33,105,38,308,574447
-60,-13,-1,60,3,2,-45,-19,54,29,82,147,-115,251,45,-94,76,60,159,-45,-435,3,76,119,-317,-916,123,70,119,71,173,574448
-47,-14,-35,48,-8,-18,1,4,-48,8,191,41,-108,6,11,-55,88,60,262,9,-332,41,110,145,-189,-781,127,163,146,87,160,574449
-8,-10,-13,44,15,8,1,-3,20,71,236,63,32,-68,-41,-64,53,25,231,-11,-289,9,109,103,-75,-680,76,147,98,50,14,574450
-15,-20,-3,26,24,29,-10,250,-22,1,-42,4,90,-54,-18,-108,-18,-43,86,-58,-273,-41,34,16,-37,-648,-14,36,26,-25,-81,574451
-27,-24,6,25,26,36,-23,156,-42,38,-23,1,13,63,-7,-114,7,-33,71,-46,-278,-30,40,37,-53,-701,-2,45,60,-8,56,574452
-118,-25,9,22,6,17,-113,-8,-4,116,-116,56,145,87,-41,-163,47,29,134,-107,-479,-55,61,123,-228,-998,84,103,123,49,227,574453
-193,-20,32,40,2,21,-215,-158,241,172,-21,42,81,-14,-58,-210,103,97,240,-162,-702,-68,97,234,-387,-1366,204,179,189,139,384,574454
-219,-43,23,34,-15,10,-250,-127,106,112,40,-102,-10,-41,-63,-205,126,115,292,-137,-765,-34,91,282,-404,-1495,241,219,246,182,423,574455
-143,-52,18,31,7,17,-158,94,53,-181,-85,-145,-16,-55,7,-122,103,61,211,-36,-570,19,57,205,-239,-1233,168,174,222,148,237,574456
22,-31,-24,14,19,34,45,138,123,-76,8,-29,-34,131,18,46,67,27,55,140,-111,130,25,52,85,-564,20,47,97,48,-50,574457
31,-17,-12,8,15,37,103,79,183,57,-86,19,13,28,84,33,33,17,0,120,-67,82,5,2,67,-464,-6,-11,27,4,-48,574458
31,1,-9,26,25,35,124,-8,122,-60,26,111,-41,116,81,11,19,-15,5,73,-84,14,23,-14,11,-451,-10,-27,-9,1,-82,574459
15,-9,-31,17,18,21,66,-92,-1,-45,-42,136,-77,115,39,-2,10,-46,23,44,-82,-22,77,-35,-34,-449,-27,-33,-41,-29,-96,574460
-7,-15,-18,14,20,19,21,-154,-1,-81,-18,-48,-29,-108,-3,-51,19,-16,45,-2,-136,-65,116,-27,-88,-536,-9,1,-33,-23,39,574461
-41,-21,0,5,12,11,-17,-119,63,40,98,-105,208,-115,22,-98,64,45,80,-40,-236,-81,118,42,-149,-710,44,62,28,20,236,574462
-400,-56,99,27,-23,-11,-455,-370,128,-16,-167,-174,159,-48,-59,-473,186,210,450,-403,-1266,-312,202,412,-900,-2279,398,303,309,269,1035,574463
-635,-92,138,73,-52,-28,-754,-338,201,71,-415,-281,22,-239,-114,-724,269,295,768,-625,-2044,-428,286,690,-1373,-3532,647,517,565,468,1332,574464
-561,-84,137,112,-12,9,-633,-174,274,179,-127,-143,-90,-107,-67,-677,257,248,779,-539,-1996,-344,274,678,-1208,-3571,612,537,621,463,1097,574465
-315,-58,67,114,27,37,-292,34,169,101,125,6,-27,101,20,-446,167,117,561,-269,-1361,-180,199,445,-648,-2700,392,396,480,320,446,574466
91,-8,-35,59,66,67,197,304,-68,-89,243,189,-201,253,61,-8,24,-60,93,163,-172,102,64,15,229,-900,-11,101,144,29,-282,574467
144,-5,-70,14,40,48,231,89,-167,11,147,237,-160,295,50,52,-62,-130,-141,191,125,107,-33,-128,367,-371,-148,-46,-42,-99,-383,574468
99,-4,-61,9,20,44,185,57,-165,39,165,205,13,159,21,34,-62,-110,-188,151,112,93,-40,-115,301,-328,-126,-89,-66,-102,-241,574469
58,0,-55,16,22,26,148,182,-69,-67,21,120,-41,107,26,15,-35,-71,-132,137,66,104,-36,-66,200,-372,-80,-62,-31,-63,-200,574470
68,-4,-41,22,36,40,119,75,32,-166,-131,116,-102,208,-14,10,-38,-78,-71,135,60,88,-56,-30,159,-350,-61,-25,-28,-29,-266,574471
71,-1,-24,26,50,63,98,17,-81,22,-157,14,-107,325,87,-5,-54,-70,-44,106,40,46,-76,-26,133,-359,-41,-2,-33,-15,-186,574472
-185,-15,48,47,14,36,-203,-307,6,139,-344,-80,-12,65,36,-262,41,71,217,-166,-677,-133,26,223,-395,-1421,191,155,145,146,460,574473
-467,-65,101,60,-24,-3,-559,-679,219,-103,-277,-232,-38,-325,-77,-566,161,195,526,-435,-1533,-304,177,515,-983,-2779,448,347,389,354,963,574474
-448,-54,104,86,-8,3,-531,-576,213,-42,-252,-145,163,-165,24,-537,227,235,638,-379,-1596,-252,281,581,-952,-3017,503,440,504,433,1019,574475
-199,-49,12,61,11,11,-195,-94,77,-101,90,-25,312,-50,36,-275,163,127,413,-88,-923,-76,249,326,-435,-2092,263,278,340,284,341,574476
215,-16,-112,27,41,20,346,230,-180,139,299,190,146,237,95,155,-10,-85,-60,327,318,170,82,-134,423,-228,-169,-47,-29,-32,-555,574477
245,-1,-101,10,39,28,363,189,-124,29,43,169,-143,262,107,180,-47,-96,-161,310,479,144,37,-204,441,91,-198,-113,-120,-102,-558,574478
175,13,-69,18,33,28,215,162,45,-22,-95,151,-159,102,103,98,-15,-26,-91,227,298,92,51,-131,258,-145,-106,-77,-78,-48,-253,574479
131,10,-57,21,18,14,206,13,-19,129,280,64,-92,57,77,83,-13,-21,-69,200,226,97,36,-102,188,-228,-68,-67,-62,-30,-273,574480
185,32,-64,22,38,35,314,46,-93,-33,303,129,52,106,107,148,-34,-73,-112,260,403,135,9,-157,300,48,-116,-98,-116,-80,-419,574481
186,25,-70,6,37,37,269,115,-185,-103,205,79,76,127,72,151,-41,-87,-122,240,430,107,3,-178,287,105,-140,-113,-159,-123,-325,574482
-63,-15,5,12,2,27,-83,-97,-39,-136,-77,-58,117,45,-12,-136,14,-13,55,-60,-272,-95,39,22,-256,-922,53,10,-14,-14,223,574483
-252,-20,60,46,2,22,-259,-184,109,94,-318,-93,208,37,-6,-303,105,93,289,-206,-836,-150,106,265,-597,-1812,287,186,204,173,552,574484
-176,-6,38,68,12,26,-174,-150,131,240,-238,-126,113,-222,29,-225,103,98,282,-94,-693,-70,83,253,-403,-1647,253,195,219,191,413,574485
-15,-6,-38,28,12,18,6,-58,-18,125,-209,42,-18,-128,-29,-45,55,29,139,102,-198,62,34,110,21,-918,86,118,127,111,21,574486
266,17,-118,-13,32,18,347,156,-242,125,106,95,-205,284,-14,293,-15,-74,-108,444,714,297,-15,-120,696,425,-150,-25,-41,-24,-597,574487
344,27,-113,-30,34,26,434,359,-138,173,83,173,-67,154,88,380,-53,-102,-288,521,1044,345,-51,-222,884,994,-239,-147,-166,-83,-654,574488
347,39,-114,-29,22,12,462,306,-137,256,256,212,-125,73,56,388,-94,-132,-405,513,1179,323,-76,-297,918,1293,-291,-249,-254,-139,-735,574489
327,47,-122,-28,16,0,473,377,-109,-6,239,205,-61,30,50,402,-115,-138,-399,521,1248,323,-78,-304,901,1458,-298,-288,-293,-152,-653,574490
356,62,-112,-33,21,12,473,324,-99,-11,352,112,70,22,80,431,-107,-127,-372,548,1335,334,-83,-314,925,1657,-302,-285,-316,-148,-674,574491
361,55,-96,-42,22,21,416,157,-43,15,174,111,-61,21,70,417,-96,-98,-342,497,1286,290,-87,-286,872,1653,-268,-256,-302,-121,-555,574492
239,42,-61,-47,-3,-3,246,66,-18,25,106,-49,18,182,82,302,-76,-41,-245,368,1002,215,-109,-184,641,1270,-162,-201,-233,-56,-299,574493
74,32,-11,-19,-20,-21,66,115,14,-172,-76,-126,8,18,23,128,-52,0,-111,206,570,121,-124,-46,321,653,-26,-107,-118,44,-97,574494
53,14,-9,-9,-21,-11,41,125,-21,51,135,-42,68,70,-24,68,-82,-54,-139,156,459,80,-157,-71,236,517,-52,-136,-134,27,-175,574495
188,43,-29,-4,20,16,206,157,34,116,59,83,-123,29,65,186,-100,-83,-229,285,744,182,-157,-164,439,930,-135,-171,-185,-16,-283,574496
333,49,-87,-31,12,12,418,122,-151,-5,108,128,30,-21,106,348,-167,-161,-400,434,1218,247,-184,-350,739,1665,-308,-296,-336,-161,-587,574497
393,62,-92,-34,15,19,491,313,-207,5,294,86,84,60,-39,441,-149,-157,-406,481,1440,271,-141,-375,863,2024,-331,-295,-371,-185,-711,574498
319,60,-88,-58,-5,-3,396,176,-31,46,414,55,-81,205,-31,411,-127,-123,-346,426,1352,247,-117,-326,789,1948,-290,-253,-324,-138,-588,574499
324,65,-84,-70,-14,-6,392,-53,28,27,197,86,32,75,105,456,-104,-109,-348,471,1455,306,-127,-320,854,2126,-293,-243,-306,-129,-589,574500
286,61,-54,-79,-14,3,318,21,-75,38,-50,200,36,94,2,438,-82,-75,-309,435,1373,303,-134,-280,778,2062,-256,-230,-271,-94,-612,574501
312,70,-46,-89,3,22,316,96,-109,42,28,177,34,-19,-79,452,-107,-91,-308,415,1385,298,-141,-298,769,2118,-281,-253,-298,-114,-587,574502
239,55,-40,-96,-18,-16,255,-22,-103,-29,176,-2,36,-50,-53,397,-92,-51,-264,349,1230,258,-119,-230,642,1930,-205,-195,-256,-58,-384,574503
125,48,-35,-77,-49,-53,191,-169,-75,27,-27,67,44,45,-51,317,-58,-7,-185,268,980,193,-102,-148,484,1611,-119,-133,-176,12,-220,574504
170,54,-35,-55,-19,-27,129,-429,-237,-29,-238,-10,-96,55,-7,269,-119,-65,-232,219,957,138,-191,-219,483,1636,-203,-202,-238,-66,-390,574505
189,47,-25,-54,-11,-10,95,-138,-193,-87,93,-125,-11,-20,-9,234,-164,-107,-269,176,910,90,-239,-250,479,1641,-242,-228,-280,-116,-363,574506
216,54,-11,-43,2,10,193,194,-25,-26,222,-10,179,-33,84,323,-104,-60,-235,258,1005,169,-170,-179,606,1785,-173,-149,-204,-55,-339,574507
210,51,-22,-52,-17,-7,207,303,116,89,133,-35,-24,-310,-14,332,-126,-83,-318,262,1020,161,-209,-213,629,1860,-190,-191,-223,-91,-342,574508
193,63,-20,-40,-20,-12,193,193,93,55,126,45,8,23,50,321,-124,-71,-321,249,979,154,-200,-198,584,1838,-178,-208,-213,-79,-314,574509
181,48,-31,-63,-24,-26,168,-32,-89,-96,86,19,65,38,49,343,-87,-41,-318,266,985,155,-169,-170,566,1868,-131,-203,-190,-40,-290,574510
189,62,-12,-46,-11,-14,173,100,-26,-118,-62,3,42,25,-3,326,-75,-35,-301,259,976,131,-127,-191,515,1875,-128,-213,-216,-53,-239,574511
139,37,-32,-69,-37,-38,126,109,-24,-81,-95,6,238,-76,-95,284,-73,-33,-251,202,889,107,-90,-180,409,1760,-135,-196,-221,-60,-223,574512
46,30,11,-57,-45,-41,-6,-113,81,-141,-110,-60,77,-61,-19,222,-13,35,-121,133,639,102,-26,-59,215,1380,-38,-118,-130,31,-47,574513
19,34,19,-41,-47,-47,-8,34,-80,-151,-236,-143,-31,-17,-46,189,-4,22,-104,114,559,90,-37,-58,155,1266,-19,-120,-126,33,12,574514
25,41,35,-34,-25,-37,14,151,-19,-166,-147,-129,85,-16,-122,147,-40,-17,-142,73,508,44,-85,-103,86,1194,-45,-171,-182,-6,-29,574515
72,35,17,-26,-10,-24,57,-13,-42,77,-197,98,42,-172,-152,148,-78,-46,-206,88,554,43,-123,-173,109,1265,-100,-241,-240,-70,-267,574516
151,32,-7,-44,-8,0,137,-10,-23,-109,-170,99,-16,-82,-86,178,-128,-106,-284,119,715,59,-154,-268,183,1514,-193,-313,-295,-168,-414,574517
226,63,-9,-31,24,18,240,-26,-108,-171,138,42,9,-5,24,289,-105,-116,-275,209,922,137,-130,-271,311,1818,-205,-273,-262,-177,-348,574518
127,51,0,-51,-12,-9,136,-26,-83,78,50,-120,28,-73,-72,223,-98,-91,-237,143,775,118,-136,-206,221,1611,-163,-194,-198,-132,-173,574519
129,49,13,-53,-17,-11,112,244,23,108,136,-10,145,-89,-37,220,-92,-65,-210,155,785,156,-175,-167,280,1639,-148,-135,-148,-82,-185,574520
168,33,6,-67,-18,-4,111,277,-19,36,273,-5,166,-46,-3,270,-108,-55,-193,208,884,224,-197,-169,371,1786,-167,-128,-153,-68,-248,574521
189,22,-9,-75,-8,-1,93,201,-40,-240,-13,-2,-61,-62,-57,290,-148,-95,-247,199,912,215,-230,-237,394,1882,-215,-185,-212,-103,-353,574522
194,43,-9,-63,-12,-3,108,125,68,-128,-17,23,-108,-64,-42,325,-128,-74,-246,210,935,201,-202,-212,422,1959,-192,-167,-202,-75,-395,574523
166,51,-16,-60,-25,-30,144,87,-11,-52,112,44,-165,-121,-67,321,-84,-43,-180,209,935,161,-134,-139,428,1997,-156,-109,-152,-25,-264,574524
141,59,-10,-65,-24,-33,160,113,28,-126,37,11,-40,-137,-31,340,-14,25,-89,208,904,152,-19,-93,403,1961,-101,-65,-118,16,-136,574525
86,42,6,-78,-43,-51,97,-4,10,-67,-58,-45,265,38,-10,277,11,54,-60,142,758,86,18,-98,270,1763,-68,-84,-137,4,-72,574526
-3,20,15,-74,-52,-57,-25,-154,-21,59,-89,-160,170,54,-19,165,21,67,-1,35,509,25,30,-33,94,1404,-21,-24,-85,37,-26,574527
-57,30,62,-53,-21,-32,-95,-107,-23,-63,29,-204,83,-209,-38,84,43,90,36,-63,300,-56,78,10,-39,1096,19,30,-28,43,143,574528
-31,30,68,-31,-6,-15,-118,-71,21,23,66,-124,22,-122,-13,58,17,31,-24,-97,247,-120,54,-29,-34,1013,-17,-26,-43,7,110,574529
-33,15,65,-50,-18,-4,-188,-101,56,132,-5,-99,-65,-152,-10,49,17,14,-41,-91,193,-75,23,-1,-52,904,3,-23,14,24,103,574530
-29,0,58,-73,-27,1,-304,-369,-68,183,-130,-46,-83,-189,-35,37,27,32,1,-104,122,-47,16,33,-82,786,34,29,48,40,109,574531
-57,2,34,-72,-48,-38,-355,-275,4,-60,-135,-57,94,-154,-38,32,27,36,15,-102,88,-51,2,32,-90,734,48,32,52,42,99,574532
2,2,13,-68,-45,-49,-199,141,76,-125,-111,61,-138,-41,69,111,4,20,-58,-17,266,5,-34,-19,64,993,7,10,25,17,-43,574533
79,11,-5,-49,-23,-36,49,192,-10,-3,20,-51,-103,-54,118,157,-32,-7,-97,31,438,28,-39,-83,202,1250,-64,-21,-18,-28,-164,574534
119,40,7,-23,-2,-14,148,139,-14,-102,29,-14,-62,-54,55,149,-48,-27,-115,28,491,6,-39,-114,224,1347,-98,-41,-59,-62,-155,574535
28,41,36,-3,-12,-7,24,61,0,-55,-55,0,51,56,-6,59,-29,1,-7,-70,253,-49,-28,-14,50,1025,-13,39,7,-2,-37,574536
-93,29,72,8,-25,-10,-105,-160,19,-66,-103,-51,-21,24,-57,-34,34,68,119,-149,-62,-75,12,134,-149,521,125,164,133,110,240,574537
-6,31,33,9,-4,-16,7,-90,-2,-85,108,-79,-131,-109,-23,43,-2,17,11,-34,160,37,-29,30,30,808,13,85,62,51,78,574538
-12,11,13,-10,-15,-27,-7,88,-76,-15,105,-132,-168,-203,-69,22,-53,-27,-68,-51,144,19,-105,-27,-1,813,-45,24,-8,-20,21,574539
-24,-7,39,-20,-14,-14,-56,133,-70,4,36,-83,-122,-74,-67,-5,-63,-11,-99,-86,64,-8,-135,-17,-76,701,-25,7,-8,-15,55,574540
26,11,47,-6,5,21,-30,106,-67,-98,-50,28,-160,105,-1,14,-75,-36,-176,-48,123,4,-180,-54,-55,788,-48,-58,-28,-23,-29,574541
34,3,24,-3,2,17,-17,64,-99,10,-18,26,-205,204,19,-17,-135,-92,-282,-77,136,-55,-220,-146,-59,857,-125,-191,-124,-93,-157,574542
161,43,4,14,14,19,149,195,9,12,191,22,-152,33,1,122,-155,-119,-390,39,474,33,-192,-271,237,1390,-248,-315,-225,-195,-441,574543
253,63,-19,-9,19,7,270,185,44,67,238,32,-21,66,33,249,-139,-117,-423,146,759,114,-152,-350,431,1825,-307,-388,-291,-248,-417,574544
169,34,-16,-36,-8,-24,206,38,15,-223,119,16,-11,94,67,229,-99,-67,-344,86,635,63,-109,-290,259,1674,-235,-356,-280,-206,-228,574545
11,8,25,-42,-24,-37,7,-105,-63,-122,-166,-73,82,13,6,87,-58,0,-227,-90,188,-69,-62,-151,-159,1044,-92,-253,-191,-124,62,574546
-155,-13,65,-24,-36,-35,-233,-76,90,-50,-195,-119,198,-263,-33,-134,-31,47,13,-319,-410,-256,-11,16,-588,162,58,-100,-67,-21,239,574547
-171,-11,75,3,-17,-9,-273,-215,80,-96,-185,-114,88,-195,-20,-176,27,71,183,-348,-580,-247,33,92,-665,-155,128,26,30,36,325,574548
-136,-15,53,7,-16,-22,-219,-135,176,13,-177,-137,60,-162,-53,-122,55,81,219,-279,-524,-172,30,115,-578,-152,133,111,94,60,263,574549
-134,-11,70,18,-22,-16,-182,-191,69,-12,46,-147,176,-153,-17,-117,86,123,272,-278,-551,-172,76,164,-520,-238,167,212,147,95,403,574550
-182,-17,66,22,-26,-30,-152,-175,49,63,102,-136,88,-45,-19,-160,89,133,267,-295,-630,-202,88,201,-519,-383,184,227,203,112,455,574551
-165,-3,70,35,-13,-20,-89,-33,72,155,42,-5,-3,-27,-1,-149,89,112,233,-262,-593,-169,111,198,-460,-387,165,190,216,112,388,574552
-7,11,29,36,8,5,67,246,16,65,-187,132,-21,-46,-66,-9,34,25,79,-104,-189,-49,73,41,-135,191,18,87,110,14,14,574553
121,13,-12,-1,19,23,130,272,-78,176,-89,108,95,-13,26,136,-43,-46,-101,39,229,42,-23,-110,162,832,-124,-28,-10,-92,-220,574554
105,7,-26,-32,14,2,82,64,-95,105,-37,-21,-27,-41,-56,125,-100,-89,-162,22,290,18,-93,-160,154,970,-174,-95,-85,-157,-340,574555
-47,-8,7,-18,-15,-18,-71,-221,77,48,-121,-36,-29,20,-94,-24,-58,-36,-25,-118,-46,-70,-39,-37,-134,483,-78,-21,-21,-75,93,574556
-161,-2,59,22,-22,-14,-221,-38,130,39,-88,-34,48,-92,-105,-125,47,70,179,-203,-404,-88,67,143,-384,-103,110,122,123,89,474,574557
-111,5,49,21,-13,-15,-135,-16,-33,33,-74,-61,-122,-61,-69,-41,69,78,181,-85,-239,27,100,113,-251,65,101,89,106,96,233,574558
-43,5,31,8,0,0,-13,99,-84,-1,-65,75,-21,3,80,49,91,76,157,27,-11,107,131,78,-85,351,72,58,77,86,75,574559
-46,4,14,-2,-13,-8,-13,-41,-43,-75,-47,46,-39,79,-6,21,77,59,140,4,16,17,137,59,-58,386,48,53,62,69,124,574560
-47,6,21,8,-3,-10,-56,2,-5,13,-98,-98,-26,15,-17,-28,65,45,124,-65,-66,-33,127,47,-94,274,41,35,44,36,151,574561
