-105,12,53,-12,-28,-26,-198,-74,16,-173,-199,-119,-102,-225,-87,-30,15,79,25,-165,13,-83,-17,71,-202,542,44,-5,-8,25,334,485560
-118,8,81,2,0,-4,-308,-182,64,-230,-232,-113,-102,-173,-111,-73,39,81,81,-187,-122,-106,73,104,-262,330,76,5,29,57,413,485561
-137,-10,69,-29,-24,-19,-291,-139,112,-268,-31,-112,-41,-92,-57,-49,54,91,99,-145,-121,-61,90,125,-216,326,101,27,74,92,356,485562
-147,-3,60,-31,-38,-21,-229,-18,129,-169,-111,-105,31,88,-55,1,109,136,145,-88,-84,16,118,185,-140,314,146,91,148,142,354,485563
-151,-7,56,-28,-35,-27,-181,-212,53,-76,-38,-103,-182,221,-36,-17,90,109,140,-101,-115,-1,73,170,-141,275,148,89,130,133,295,485564
100,24,-24,-41,6,-10,166,-39,-114,-120,26,68,-234,194,41,241,35,10,-47,174,557,185,35,-42,345,1229,-49,-18,-16,15,-308,485565
486,82,-125,-62,33,19,629,243,-229,-148,352,273,-154,193,53,620,-91,-142,-426,556,1672,439,-75,-429,1058,2895,-418,-250,-326,-262,-982,485566
567,98,-148,-68,35,18,722,268,-256,-232,406,251,-48,155,92,731,-142,-163,-527,636,2014,490,-126,-513,1216,3467,-495,-311,-423,-337,-1042,485567
442,85,-80,-80,26,13,519,135,-132,-96,226,138,65,-40,58,618,-130,-103,-477,474,1721,384,-143,-403,934,3101,-404,-271,-389,-292,-743,485568
-51,15,63,-69,-39,-20,-242,38,69,29,-282,-123,36,-247,-133,62,-36,33,-111,-85,291,-52,-85,3,-82,1089,-27,-61,-115,-48,234,485569
-180,0,105,-57,-46,-25,-538,-101,186,44,-314,-161,114,-177,-73,-105,5,76,64,-207,-214,-164,-52,149,-342,328,93,35,38,60,421,485570
-159,-1,88,-50,-34,-14,-580,6,73,34,-175,-150,208,-185,-96,-68,22,99,81,-133,-200,-110,-31,160,-278,291,115,71,92,96,323,485571
-148,-2,78,-47,-31,-23,-507,-112,118,68,-162,-41,183,-122,-34,3,114,154,157,-43,-151,-45,74,226,-210,296,179,151,173,175,370,485572
-170,-37,89,-48,-41,-26,-338,40,60,-10,-27,-78,128,1,-25,-54,122,131,195,-78,-264,-88,122,235,-275,105,186,173,182,173,387,485573
-96,-2,84,14,-3,4,-84,74,5,-7,84,-21,182,-137,-28,-35,71,87,159,-52,-184,-65,99,176,-211,176,131,130,144,125,238,485574
86,29,3,34,19,4,180,235,9,134,272,-19,243,-154,12,101,-36,-29,-69,91,274,35,3,-50,100,848,-81,-38,-40,-31,-168,485575
270,54,-49,21,27,17,360,377,-10,16,294,142,44,-48,46,259,-118,-128,-300,226,799,135,-76,-260,412,1643,-290,-201,-221,-185,-437,485576
259,66,-29,-7,16,11,299,476,-25,-102,276,180,-160,-161,2,240,-145,-149,-356,180,844,108,-118,-308,383,1787,-321,-257,-298,-249,-474,485577
114,30,6,-19,-13,-19,73,165,-140,106,65,17,119,50,-96,81,-146,-129,-263,-4,472,-32,-141,-213,97,1332,-229,-206,-247,-200,-203,485578
-74,8,47,-16,-31,-24,-133,97,88,102,-173,73,251,14,-49,-72,-73,-16,-65,-172,-16,-131,-81,6,-229,640,-33,-61,-69,-46,168,485579
-120,1,57,-1,-26,-20,-110,65,133,-2,-68,13,14,13,-77,-96,-28,24,-9,-196,-157,-122,-62,80,-290,420,33,-10,11,17,289,485580
-115,9,81,13,-5,4,-103,-82,120,61,-113,-133,9,-162,-80,-118,-22,35,25,-199,-232,-129,-65,119,-315,294,71,21,63,51,307,485581
-102,7,78,15,2,0,-137,-202,19,87,-131,-150,-4,-196,-63,-122,-20,29,42,-198,-267,-128,-66,108,-332,240,69,31,61,61,260,485582
-54,-5,46,13,3,-3,-84,-128,-51,-55,-331,-54,-29,-191,-52,-94,-36,-8,-15,-160,-164,-102,-84,54,-239,382,3,-25,19,12,166,485583
-35,-14,46,24,-1,2,-24,-121,113,-178,-269,-41,30,-138,-32,-77,-39,-10,3,-145,-138,-90,-66,62,-186,408,14,-6,30,9,107,485584
29,4,13,43,3,-7,113,123,39,46,-128,47,186,-158,41,-18,-58,-52,-55,-70,43,-45,-72,-16,-31,667,-58,-35,-22,-46,-81,485585
132,23,-23,27,12,-7,249,375,-50,186,126,30,-12,-93,-28,97,-98,-103,-180,44,367,49,-110,-131,207,1142,-175,-109,-95,-125,-366,485586
191,24,-30,1,22,2,252,309,-122,46,295,-80,-47,40,-36,176,-123,-118,-238,114,588,93,-123,-201,344,1467,-228,-160,-169,-160,-446,485587
139,13,-23,-21,4,4,155,204,-82,-115,85,-68,-61,-185,55,133,-150,-128,-275,51,493,20,-134,-195,234,1364,-218,-197,-202,-174,-382,485588
-62,-7,29,-15,-29,-27,-64,26,67,-69,-134,-114,23,-227,-27,-61,-64,-24,-90,-132,-60,-112,-76,7,-165,562,-33,-64,-37,-36,71,485589
-92,6,43,16,-22,-33,-73,-51,36,16,-147,-49,150,-163,-78,-71,8,52,37,-121,-215,-92,-20,114,-235,286,67,43,76,61,201,485590
-57,5,13,22,-18,-41,16,-150,-77,-201,-297,-42,-113,94,-107,-27,4,43,49,-61,-150,-63,-8,111,-159,344,57,52,74,53,81,485591
-24,4,2,18,-25,-35,93,-47,-91,-254,3,-19,-18,32,-143,4,-7,4,36,-19,-30,-52,18,72,-102,454,27,30,33,31,-8,485592
-55,2,5,0,-41,-45,16,139,2,-32,158,-86,73,13,-80,8,9,15,38,-21,-44,-53,29,77,-121,421,33,42,37,26,83,485593
-42,17,14,7,-16,-37,-56,-71,41,-51,178,-86,100,-70,-74,45,34,48,28,19,1,9,50,76,-82,461,45,56,60,44,67,485594
-48,6,39,1,1,-7,-116,115,48,-109,-127,-93,-23,-72,-91,27,71,69,66,-1,-54,9,92,120,-109,361,85,86,107,84,163,485595
221,28,-10,-13,41,33,212,331,-77,-140,103,140,-140,69,27,261,-35,-58,-198,242,634,178,-5,-160,376,1405,-181,-105,-109,-97,-414,485596
221,23,-20,-42,26,26,173,141,-192,-199,195,106,-36,-30,29,237,-100,-110,-288,189,713,127,-77,-235,344,1571,-243,-182,-212,-184,-377,485597
89,15,4,-26,2,3,-10,287,-69,-111,-137,-35,-43,31,-53,89,-96,-64,-193,19,368,4,-93,-129,75,1109,-141,-118,-142,-122,-101,485598
-43,1,29,-17,-9,-1,-159,56,34,77,-219,-21,94,7,-32,-17,-3,35,-8,-89,-3,-53,-15,62,-137,568,38,24,20,20,165,485599
-51,-4,27,-3,-10,-2,-130,-200,-33,-42,-122,-47,25,-120,52,-18,33,66,60,-84,-75,-31,19,118,-144,459,95,63,85,71,171,485600
-42,10,52,2,-10,15,-112,-8,35,41,19,-95,129,-146,-78,-35,22,53,39,-85,-118,-43,9,111,-160,418,78,48,71,54,207,485601
-47,2,56,14,-9,14,-105,99,119,30,73,77,47,-130,-88,-31,32,62,49,-80,-144,-43,39,115,-161,377,85,60,81,56,179,485602
-67,-6,35,25,-12,-17,-86,-21,49,-20,-5,71,-25,-132,-55,-42,21,40,48,-83,-154,-43,51,107,-161,359,76,55,89,51,147,485603
-68,-15,32,14,-12,-11,-63,121,-40,15,-10,96,-17,-180,-3,-56,12,25,49,-86,-160,-48,42,93,-183,339,58,44,76,45,130,485604
-228,-39,78,18,-37,-22,-253,-17,35,66,-247,-66,173,-160,-114,-232,38,53,191,-274,-627,-199,59,219,-518,-338,177,124,157,110,442,485605
-379,-37,139,53,-27,-10,-440,-335,133,-36,-178,-181,251,-36,-149,-407,86,120,342,-435,-1168,-314,99,389,-855,-1161,342,225,297,234,735,485606
-462,-55,140,55,-39,-12,-542,-391,97,-110,-284,-72,210,-26,-63,-471,127,156,426,-481,-1443,-351,119,487,-993,-1620,440,302,407,316,950,485607
-424,-71,91,43,-46,-31,-485,-270,171,-10,-265,-1,96,32,-24,-432,132,126,432,-393,-1347,-298,131,452,-854,-1558,390,323,413,307,651,485608
0,-25,-6,36,33,21,44,36,24,-128,47,49,-180,260,54,-18,66,21,121,48,-238,22,90,107,-53,-36,82,126,165,100,-109,485609
91,-11,-19,33,43,23,159,-17,5,-60,-97,157,-23,205,-2,33,-7,-33,-57,73,43,33,23,-40,72,404,-40,-9,1,-31,-173,485610
31,-5,3,47,36,10,126,-24,41,-4,-52,41,108,71,12,-41,-34,-29,-48,-17,-109,-45,-21,-4,-61,202,0,4,1,-12,-104,485611
-32,-12,3,36,8,-3,83,-14,43,34,-65,-61,-132,74,-31,-54,11,10,37,-38,-240,-31,-16,93,-134,10,71,88,95,51,78,485612
-35,0,-27,30,-8,-23,68,132,18,0,25,-55,-177,-58,-3,-40,-7,-7,34,-20,-183,-3,-25,65,-81,93,35,75,87,29,19,485613
-57,-3,-20,14,-14,-22,-24,129,-65,29,38,-11,-126,122,-23,-69,-14,-5,12,-46,-220,-41,-37,45,-116,51,12,48,58,9,58,485614
-388,-67,86,-16,-59,-38,-509,-169,12,13,-200,-138,185,-144,-148,-412,53,104,235,-425,-1114,-330,24,293,-771,-1227,265,171,218,159,696,485615
-1023,-150,269,48,-108,-66,-1315,-626,297,58,-697,-320,447,-415,-180,-1053,321,394,951,-1048,-3020,-788,328,982,-2031,-4084,906,628,751,618,1974,485616
-1041,-172,256,90,-93,-64,-1318,-885,432,71,-548,-332,298,-161,-113,-1091,429,451,1167,-1014,-3318,-762,533,1118,-2098,-4711,1033,781,941,758,1987,485617
-731,-132,181,133,-27,-30,-893,-349,352,165,-329,-136,283,60,-16,-805,382,351,972,-658,-2627,-498,518,901,-1491,-3866,817,689,840,643,1286,485618
-53,-55,-15,95,55,27,-21,129,52,191,34,187,-45,340,79,-188,109,11,272,9,-799,-28,242,187,-192,-1263,157,226,294,171,-243,485619
140,-20,-51,62,68,45,244,149,-24,189,83,197,-125,335,68,-25,-35,-117,-62,135,-118,62,60,-107,158,-226,-98,-3,8,-66,-555,485620
102,-11,-50,41,48,26,210,271,-12,150,214,165,63,150,35,-12,-37,-77,-46,110,-76,62,19,-63,120,-135,-55,10,13,-54,-316,485621
91,-15,-57,39,33,15,174,79,-24,38,204,133,9,103,33,7,-22,-40,-22,113,-45,68,28,-37,91,-62,-21,17,7,-34,-211,485622
84,-27,-71,25,19,-4,127,127,-110,-105,243,88,-161,177,56,-4,-12,-36,-30,94,-31,48,56,-51,36,-18,-41,5,-26,-51,-166,485623
98,-10,-46,23,35,25,90,-128,1,-72,-41,62,-38,35,102,37,24,-10,0,121,0,79,97,-23,23,23,-28,30,6,-26,-158,485624
-223,-64,37,12,-19,-15,-333,-336,81,36,-346,-63,54,-87,-52,-277,93,102,262,-222,-813,-171,154,231,-573,-1138,223,192,184,132,568,485625
-790,-113,194,67,-68,-65,-1011,-377,325,64,-637,-265,54,-181,-79,-841,296,340,854,-785,-2442,-586,341,824,-1623,-3567,781,576,630,530,1625,485626
-997,-143,229,111,-73,-69,-1210,-491,427,290,-685,-244,-91,-92,-52,-1044,393,418,1079,-941,-3165,-703,434,1049,-1950,-4759,976,742,882,726,1856,485627
-793,-139,154,115,-41,-38,-939,-515,279,204,-450,-268,39,7,-93,-870,343,308,916,-717,-2803,-545,402,864,-1551,-4348,789,653,832,627,1352,485628
9,-52,-54,70,80,66,58,156,-97,109,-37,48,-197,125,70,-125,63,-44,162,71,-676,22,167,79,-37,-1329,48,175,264,108,-326,485629
201,-43,-122,19,67,59,317,56,-176,49,182,118,-240,296,53,70,-50,-137,-146,219,83,121,34,-195,368,-203,-178,-20,-26,-115,-582,485630
128,-12,-86,41,63,28,285,123,2,235,307,143,-168,129,70,65,27,-31,-38,170,17,114,101,-63,270,-283,-44,69,33,-30,-256,485631
130,2,-70,70,63,21,342,319,-53,243,207,163,-21,188,18,55,23,-15,-52,150,-4,99,76,-65,219,-249,-34,35,16,-38,-237,485632
86,-6,-76,60,41,7,254,120,-23,-59,-37,36,-129,88,84,-13,-8,-27,-74,75,-93,30,27,-86,88,-336,-53,-10,-32,-54,-121,485633
44,-10,-69,38,19,5,128,0,-3,39,145,45,-55,112,131,-28,44,31,-6,45,-165,18,86,-23,21,-433,3,38,9,-10,-20,485634
-355,-53,50,34,-28,-27,-401,-289,34,145,-51,18,75,-34,36,-387,176,216,348,-344,-1201,-253,214,355,-713,-1934,357,269,287,233,921,485635
-1221,-172,277,108,-127,-85,-1474,-992,403,130,-753,-426,184,-484,-145,-1294,428,505,1202,-1229,-3757,-893,450,1210,-2384,-5727,1152,827,958,796,2526,485636
-1282,-212,280,180,-87,-55,-1532,-745,496,12,-792,-376,35,-395,-203,-1422,474,493,1439,-1255,-4280,-932,543,1365,-2529,-6687,1269,978,1179,943,2361,485637
-830,-168,165,195,-2,21,-962,-493,372,80,-377,-188,41,-153,-32,-1034,373,316,1108,-774,-3284,-599,463,986,-1691,-5412,901,778,963,725,1347,485638
38,-67,-78,134,89,73,156,19,-133,144,307,155,-275,389,98,-167,93,-50,237,129,-834,70,197,100,16,-1966,96,220,317,152,-449,485639
243,-30,-141,70,74,50,436,183,-136,93,9,284,104,360,131,66,-30,-149,-116,304,9,207,54,-202,456,-701,-164,6,15,-95,-682,485640
195,-26,-138,40,47,19,389,315,-140,-83,201,292,-49,391,210,55,-14,-116,-144,264,75,195,34,-184,427,-568,-153,13,-16,-101,-539,485641
172,-24,-125,32,39,20,339,274,-179,142,170,304,-234,352,85,27,-23,-110,-148,213,84,150,24,-168,391,-518,-146,-5,-40,-112,-494,485642
171,-11,-112,35,53,40,319,100,-67,250,146,210,-8,122,53,57,-47,-109,-143,202,123,124,9,-164,388,-410,-134,-18,-69,-113,-410,485643
158,10,-90,42,56,37,284,260,-8,155,82,219,-4,-74,59,75,-9,-72,-133,200,131,131,33,-133,359,-391,-98,-4,-60,-76,-398,485644
-135,-26,-26,45,7,-9,-82,-125,8,-114,71,-60,4,-82,41,-197,66,42,106,-98,-617,-86,85,124,-218,-1445,143,141,109,87,285,485645
-610,-88,103,84,-49,-43,-665,-441,219,-87,-346,-214,98,-134,-18,-675,212,242,569,-561,-1981,-432,225,586,-1147,-3461,575,429,490,392,1221,485646
-683,-111,133,114,-39,-34,-768,-311,304,31,-176,-249,122,-107,-63,-839,254,258,693,-672,-2415,-517,254,674,-1383,-4182,648,491,594,466,1271,485647
-482,-92,93,125,11,10,-529,35,101,32,-128,-137,18,116,-90,-691,212,171,594,-477,-2029,-382,234,508,-1035,-3692,501,432,509,379,931,485648
94,-21,-69,103,80,45,264,165,7,49,184,120,-139,355,110,-105,7,-92,86,130,-425,46,51,-39,91,-1416,-6,103,114,28,-299,485649
245,-10,-127,64,75,37,506,57,-144,-111,209,196,-155,228,80,50,-112,-200,-204,246,156,130,-91,-277,400,-506,-211,-95,-129,-161,-658,485650
208,-8,-116,36,50,31,484,58,-201,9,92,134,-221,142,108,40,-91,-169,-212,209,168,102,-85,-257,352,-416,-199,-102,-151,-163,-495,485651
199,15,-111,37,55,30,450,145,-106,-9,141,221,-168,68,104,69,-70,-125,-171,227,213,126,-39,-225,372,-315,-172,-83,-120,-145,-447,485652
226,41,-103,43,62,37,435,47,-101,-123,202,293,-180,179,79,150,-49,-100,-187,282,377,178,-14,-220,462,-58,-160,-91,-126,-129,-503,485653
179,19,-103,-3,33,20,315,-18,-125,-14,-22,169,-154,18,25,127,-44,-110,-181,253,369,130,-3,-218,415,-39,-152,-103,-152,-127,-404,485654
-110,-48,-19,-28,-9,-9,-95,-278,9,-56,-289,0,-256,169,7,-143,54,23,59,-48,-369,-85,99,38,-147,-1103,95,59,23,29,252,485655
-501,-87,85,15,-52,-36,-580,-456,120,60,-422,-161,7,-21,-112,-498,218,241,461,-398,-1470,-315,240,473,-852,-2753,489,355,387,324,955,485656
-509,-98,77,50,-30,-11,-576,-564,110,127,-373,-170,93,9,-21,-530,229,251,546,-386,-1662,-295,223,529,-881,-3111,521,413,490,401,881,485657
-284,-66,27,31,6,18,-259,-440,76,-29,-39,-65,-101,98,76,-316,176,149,370,-144,-1107,-112,180,332,-454,-2390,336,304,361,291,373,485658
70,-28,-82,4,32,14,209,-73,-92,-148,312,103,-194,52,44,43,51,-28,19,219,-50,154,81,-60,272,-876,-21,68,73,35,-290,485659
169,-11,-128,-19,10,-5,307,3,-73,-112,6,196,-110,106,72,168,22,-54,-99,319,347,239,58,-171,464,-284,-116,-8,-45,-60,-444,485660
184,-7,-125,-25,28,-3,246,-22,-127,-100,68,208,-90,187,132,167,-6,-64,-164,291,429,228,22,-212,465,-147,-157,-63,-105,-99,-445,485661
179,-8,-76,-31,53,41,94,176,-41,-132,-215,156,-8,63,117,71,-58,-104,-215,182,325,141,-52,-239,372,-240,-189,-119,-161,-149,-347,485662
166,-11,-46,-52,56,61,59,180,48,66,-56,109,-19,128,128,71,-37,-71,-169,155,271,129,-50,-195,338,-291,-137,-87,-126,-99,-271,485663
113,-14,-64,-50,13,2,96,155,-122,127,295,118,-43,300,93,118,17,-1,-108,197,326,169,10,-134,371,-215,-76,-36,-59,-40,-159,485664
10,-11,-46,-30,-22,-10,-74,9,-61,60,113,-9,-230,263,66,34,45,48,-23,116,99,108,40,-27,192,-530,29,14,3,21,27,485665
-159,-46,8,-9,-26,-2,-406,-84,54,78,-219,-78,-113,-61,44,-196,74,74,125,-112,-481,-70,61,126,-210,-1342,155,93,95,102,327,485666
-171,-50,12,3,-10,-3,-383,-62,137,328,-234,12,-5,-115,-14,-207,98,79,180,-121,-602,-85,89,159,-277,-1534,178,138,140,140,330,485667
-101,-35,5,28,6,8,-111,35,137,220,63,52,25,0,21,-121,111,99,167,-28,-455,-29,104,128,-168,-1363,159,135,132,130,179,485668
76,-6,-60,34,4,2,225,-53,6,-44,189,167,45,125,-19,35,14,-20,-31,131,27,77,22,-85,170,-631,-48,-17,-36,-29,-272,485669
138,16,-71,27,15,15,231,249,21,-13,212,175,-109,-95,13,74,-46,-90,-103,164,210,79,-8,-169,273,-317,-136,-77,-123,-109,-340,485670
130,12,-58,5,15,26,111,125,-22,-141,-178,116,-7,-242,39,64,-45,-90,-104,132,184,36,2,-168,223,-318,-124,-70,-123,-103,-255,485671
123,6,-40,-14,32,34,55,38,28,-21,52,137,13,28,137,68,-35,-73,-135,125,187,27,-7,-177,214,-286,-133,-93,-133,-102,-232,485672
164,6,-35,0,43,54,170,41,23,4,41,142,181,226,54,111,-24,-63,-161,180,304,76,-2,-189,292,-114,-143,-93,-140,-109,-291,485673
139,19,-32,25,35,54,252,50,-14,-113,-57,11,127,-8,17,29,-92,-121,-200,103,214,-1,-80,-220,192,-201,-181,-150,-187,-160,-311,485674
112,31,-25,40,33,36,251,44,-67,58,-28,-83,-38,-5,22,-16,-118,-135,-199,56,136,-19,-126,-208,135,-279,-171,-158,-194,-160,-300,485675
-20,-1,-34,19,-10,-7,97,-141,6,68,-80,-122,22,-33,12,-107,-80,-78,-103,-56,-143,-87,-112,-97,-46,-669,-68,-86,-98,-87,-82,485676
-40,-5,-47,28,-19,-21,107,47,14,120,-130,5,176,71,13,-82,-29,-16,-32,-29,-160,-37,-80,-25,-25,-726,-10,-27,-18,-15,32,485677
21,18,-51,32,-7,-8,175,95,-126,121,142,106,-6,49,96,2,-16,-5,-32,46,1,43,-76,-32,88,-524,-15,-26,-14,-4,-69,485678
70,15,-56,23,3,-13,181,244,-52,-152,-108,-95,-166,-60,68,7,-57,-61,-92,33,64,26,-101,-107,100,-411,-86,-73,-82,-70,-95,485679
124,27,-35,39,40,45,187,265,94,-42,46,-42,-21,-10,-39,-4,-84,-110,-136,31,123,27,-120,-153,142,-324,-142,-107,-121,-116,-177,485680
120,4,-47,15,22,26,200,22,45,33,101,51,-36,39,-22,-1,-87,-113,-170,36,172,35,-121,-182,172,-259,-170,-136,-142,-137,-255,485681
118,21,-59,19,2,-5,300,55,-8,-41,19,35,83,15,83,79,-36,-79,-130,121,328,106,-58,-154,278,-53,-146,-101,-115,-103,-283,485682
102,37,-32,37,13,15,264,67,-55,19,212,13,19,141,39,57,-15,-58,-67,89,275,89,-33,-102,236,-130,-103,-56,-93,-63,-161,485683
76,28,-26,25,22,20,194,17,6,-30,280,-87,61,-160,-6,-11,-68,-93,-127,12,169,10,-101,-141,154,-229,-129,-112,-139,-94,-172,485684
202,48,-30,25,45,52,360,-32,51,60,202,23,10,-73,28,108,-73,-93,-211,146,458,105,-116,-218,366,191,-192,-155,-181,-127,-435,485685
349,53,-96,-17,36,40,583,170,-131,123,140,164,-91,82,34,294,-128,-153,-375,321,953,229,-153,-379,681,950,-348,-260,-306,-238,-666,485686
367,65,-92,-27,34,33,576,209,-199,2,339,143,32,50,27,317,-144,-170,-414,320,1052,220,-157,-427,662,1164,-388,-334,-387,-293,-715,485687
304,71,-67,-20,36,34,398,38,-186,16,289,89,1,-68,86,267,-125,-127,-320,237,903,166,-138,-348,476,1008,-307,-293,-354,-241,-500,485688
40,43,-19,-25,-18,1,44,-65,-88,-66,-71,-25,109,-115,32,77,-12,6,-34,28,296,19,-18,-66,60,126,-54,-92,-136,-64,-19,485689
0,35,9,-16,-10,16,3,67,-28,-20,-174,-83,32,-171,94,47,24,35,32,26,118,16,-1,9,14,-135,19,-35,-41,13,59,485690
55,11,-1,-26,-17,30,51,135,-64,-60,-68,-54,113,-152,28,64,-25,-30,-63,60,218,37,-65,-84,97,22,-73,-117,-89,-56,-50,485691
27,14,18,-21,-7,31,-7,-14,-32,-94,0,-39,236,69,25,4,-31,-28,-51,-5,148,-19,-43,-87,32,-75,-71,-110,-121,-77,-67,485692
-33,-6,21,-33,-24,-1,-98,-159,-114,27,-49,-55,148,-68,-20,-28,8,5,4,-44,14,-57,10,-16,-60,-279,-7,-46,-69,-29,40,485693
-32,1,13,-25,-16,-10,-73,-73,-58,-7,-175,19,142,-87,2,27,49,32,25,15,47,25,41,26,8,-253,35,9,10,18,26,485694
277,44,-79,-20,16,18,341,200,-103,-62,8,110,-68,37,88,355,-24,-77,-190,360,869,289,-48,-214,610,914,-200,-115,-141,-121,-536,485695
718,107,-175,-49,76,68,857,659,-232,-146,540,288,-246,146,127,749,-206,-263,-620,740,2080,552,-236,-660,1380,2744,-611,-419,-520,-430,-1337,485696
762,126,-163,-71,76,74,866,739,-301,-90,397,273,-58,146,118,790,-253,-284,-732,727,2322,547,-300,-749,1425,3203,-686,-518,-646,-525,-1334,485697
576,100,-134,-87,29,42,626,396,-178,-6,313,141,50,5,66,616,-249,-248,-638,510,1948,399,-297,-646,1078,2765,-582,-486,-612,-467,-936,485698
68,33,11,-66,-34,-7,-32,107,-41,-42,-17,-51,203,-245,-44,109,-107,-48,-204,-22,587,4,-165,-168,88,851,-147,-207,-276,-173,115,485699
-108,0,48,-44,-52,-26,-233,-31,-19,-1,175,-96,-116,-247,-39,-29,14,69,41,-131,36,-71,-27,65,-196,3,52,-36,-50,28,417,485700
-94,4,46,-29,-46,-20,-172,-209,82,95,-105,-48,-32,-216,-36,17,77,112,137,-64,-9,-29,44,130,-134,-98,113,38,43,96,321,485701
-107,18,27,-21,-55,-46,-89,-213,105,101,-118,-147,14,93,-70,30,76,100,133,-50,4,-25,53,113,-82,-128,99,49,62,99,215,485702
-112,17,13,-12,-60,-52,-72,-169,112,-45,-69,-119,80,19,-98,5,61,75,94,-61,-11,-31,34,69,-88,-167,67,19,39,73,167,485703
-90,1,11,-4,-38,-25,-90,-55,-114,-139,-574,-133,44,-17,-28,-39,17,26,98,-95,-55,-62,-8,46,-107,-235,31,-3,9,23,118,485704
265,49,-56,0,38,31,358,220,-84,31,118,83,29,127,66,278,-64,-96,-180,251,799,193,-88,-233,511,988,-227,-181,-182,-143,-626,485705
855,102,-225,-78,81,70,1109,582,-237,128,723,401,-128,315,155,878,-265,-342,-814,848,2542,624,-279,-845,1646,3572,-797,-582,-663,-549,-1719,485706
1030,147,-258,-130,70,63,1289,681,-365,-44,654,343,5,352,111,1089,-362,-422,-1046,1006,3256,749,-379,-1047,2018,4750,-984,-721,-885,-720,-1948,485707
857,143,-213,-148,29,21,990,433,-256,-183,371,363,-154,89,130,955,-335,-337,-958,816,3012,626,-378,-936,1731,4538,-859,-681,-862,-655,-1508,485708
46,47,13,-110,-78,-60,-84,20,17,-85,-31,6,94,-341,-7,198,-56,29,-225,6,855,41,-136,-141,189,1512,-107,-199,-301,-150,208,485709
-191,22,112,-46,-67,-36,-374,-200,190,34,-157,-133,116,-285,-45,-52,77,160,156,-217,-57,-120,24,192,-338,174,182,32,30,106,559,485710
-103,12,78,-57,-55,-20,-244,-154,280,-83,-4,-96,33,157,-89,-18,19,62,56,-153,60,-78,-24,47,-205,327,53,-49,-22,24,242,485711
-118,3,70,-45,-53,-21,-276,-208,90,34,-191,-138,-32,22,-60,-7,48,98,96,-132,10,-54,-16,104,-199,210,94,12,35,79,277,485712
-121,10,71,-49,-54,-18,-333,-209,-51,40,-106,-212,-28,-191,-73,10,53,117,150,-117,-36,-27,-12,146,-170,129,131,71,93,111,245,485713
-25,-6,51,-63,-24,-1,-272,-81,42,-56,-80,-88,-34,-12,-79,71,-7,44,31,-50,151,7,-88,23,-27,408,18,-24,6,27,63,485714
438,56,-66,-57,49,59,362,352,-25,-119,285,124,-81,211,108,483,-153,-177,-361,416,1372,328,-217,-404,856,2155,-385,-287,-297,-255,-1063,485715
1695,234,-398,-140,186,144,2028,1247,-508,-133,1181,675,-252,662,388,1783,-526,-649,-1562,1715,5043,1275,-546,-1624,3311,7554,-1525,-1058,-1234,-1041,-3420,485716
1826,284,-437,-223,135,91,2202,1097,-520,-132,1159,589,-276,323,369,2007,-634,-701,-1936,1814,5928,1358,-696,-1891,3625,9104,-1762,-1303,-1590,-1289,-3402,485717
1331,248,-287,-234,47,10,1539,778,-474,-239,654,357,-74,140,165,1572,-530,-505,-1606,1282,4904,975,-642,-1498,2695,7848,-1369,-1098,-1390,-1073,-2228,485718
6,83,88,-184,-109,-89,-189,-155,-3,-24,-376,-262,396,-472,-112,287,-135,39,-369,-80,1300,-20,-286,-224,122,2764,-185,-313,-471,-253,469,485719
-378,34,206,-92,-108,-80,-696,-361,121,29,-301,-340,221,-361,-114,-121,64,222,214,-409,-122,-291,-81,282,-666,625,276,41,13,162,929,485720
-328,11,173,-78,-102,-67,-615,-140,105,87,-246,-339,136,-338,-227,-102,48,177,216,-341,-225,-249,-93,241,-607,421,232,28,56,169,701,485721
-278,22,155,-49,-73,-55,-476,-62,212,-2,-301,-344,303,-371,-101,-47,82,202,248,-253,-230,-174,-46,258,-527,333,247,82,127,192,677,485722
-245,1,113,-51,-74,-72,-372,-79,42,-216,-353,-227,50,-390,-107,-51,52,143,208,-224,-206,-162,-67,199,-462,321,200,69,110,154,440,485723
-174,5,96,-20,-48,-31,-272,73,98,-165,-130,-300,-4,-339,-148,-92,-33,35,116,-240,-216,-199,-142,89,-453,301,93,-4,33,60,223,485724
234,63,3,-10,28,23,283,353,-38,-50,115,-32,-45,-168,-79,276,-156,-148,-236,163,844,92,-213,-284,335,1790,-277,-227,-215,-187,-634,485725
738,120,-168,-74,61,27,957,391,-305,-157,554,103,-38,209,57,826,-278,-316,-729,705,2452,515,-306,-784,1396,4146,-731,-531,-630,-519,-1519,485726
972,166,-218,-123,58,23,1217,643,-231,-212,577,227,-214,136,149,1140,-343,-357,-1003,963,3358,721,-355,-1042,1931,5566,-943,-706,-874,-689,-1925,485727
900,162,-169,-171,33,23,997,379,-278,-263,295,173,-76,2,88,1094,-352,-348,-1024,855,3338,664,-390,-1013,1813,5694,-912,-730,-895,-705,-1608,485728
-131,15,106,-165,-104,-55,-386,-330,25,-184,-348,-322,95,-181,-201,101,-55,54,-155,-201,591,-87,-136,-51,-145,1841,-21,-153,-212,-98,584,485729
-362,-10,162,-92,-102,-79,-627,-205,84,-169,-333,-415,240,-130,-142,-113,137,220,269,-364,-272,-194,89,315,-580,516,302,128,149,206,888,485730
-301,6,133,-43,-76,-86,-457,-174,2,-140,-4,-274,136,-52,-122,-63,117,177,263,-274,-193,-121,103,277,-446,555,255,125,169,198,640,485731
-286,-12,121,-28,-85,-88,-400,-310,133,-90,-90,-302,109,-253,-136,-109,68,120,230,-295,-281,-153,36,234,-470,428,215,103,159,162,547,485732
-238,-17,87,-20,-63,-77,-336,-270,237,-16,-77,-236,22,-289,-129,-130,32,84,179,-284,-264,-149,-13,157,-427,442,150,59,120,110,509,485733
-202,-26,83,-12,-56,-54,-294,-121,136,-5,-27,-130,-69,-37,-70,-126,32,92,155,-266,-232,-120,-9,141,-383,455,143,49,118,104,408,485734
193,47,-9,-21,3,-8,185,118,-19,-71,292,94,-91,70,16,277,-53,-25,-114,150,754,170,-76,-168,355,1851,-161,-122,-81,-82,-441,485735
781,123,-153,-76,72,40,870,486,-219,-62,407,278,-192,305,132,867,-252,-272,-693,735,2454,574,-274,-753,1454,4343,-696,-492,-561,-478,-1486,485736
727,124,-133,-120,36,0,779,371,-217,-58,440,169,-216,247,136,860,-254,-257,-763,674,2557,524,-286,-761,1391,4590,-695,-516,-638,-511,-1330,485737
444,91,-59,-127,-15,-46,419,279,-188,-170,114,-47,-78,15,-43,632,-163,-122,-544,415,1939,325,-211,-511,921,3783,-471,-368,-489,-370,-679,485738
-126,41,127,-66,-56,-55,-288,-11,63,-74,-221,-264,-106,-167,-46,63,14,114,8,-166,322,-110,-47,66,-181,1449,55,-28,-72,3,460,485739
-286,12,176,-23,-48,-42,-446,-229,125,-236,-258,-340,50,-119,-69,-159,37,127,192,-340,-325,-246,-16,227,-529,480,197,70,95,126,619,485740
-249,3,140,-12,-43,-35,-349,-153,156,-124,-203,-286,104,-25,-133,-160,9,58,173,-305,-336,-230,-4,180,-480,404,145,52,99,109,433,485741
-191,-2,95,1,-43,-41,-220,-394,91,54,87,-296,-38,-27,-117,-81,36,72,170,-211,-217,-152,34,160,-373,511,130,72,111,110,293,485742
-204,10,90,12,-45,-48,-246,-384,75,-99,48,-194,120,-157,-73,-96,46,96,176,-211,-278,-158,36,188,-393,393,160,89,137,130,317,485743
-178,12,109,10,-28,-24,-274,-342,200,-52,82,-74,72,-41,-72,-119,37,78,164,-218,-341,-164,33,165,-428,302,142,76,112,118,352,485744
-48,8,71,-8,-6,-11,-87,47,82,-107,121,-35,39,81,-18,30,29,46,97,-72,-7,-50,33,65,-196,742,41,42,57,55,81,485745
180,53,17,-27,19,9,251,40,-64,-144,137,20,26,41,22,300,-26,-12,-73,184,685,141,-32,-128,283,1733,-123,-63,-71,-62,-345,485746
158,53,8,-41,12,-1,224,-136,-53,-247,43,-61,77,-99,-30,285,-68,-35,-121,158,729,135,-96,-144,305,1831,-137,-86,-106,-96,-253,485747
78,23,22,-66,-8,-14,19,-130,-64,-138,-135,-152,88,-16,-54,175,-80,-24,-123,46,510,59,-128,-95,162,1561,-98,-81,-89,-83,-118,485748
-103,4,104,-47,-11,-4,-261,-110,39,68,-179,-186,176,-10,-20,-30,-46,42,15,-166,-30,-102,-104,56,-218,801,60,2,26,39,269,485749
-189,7,100,-18,-23,-27,-312,-273,-6,-52,-161,-108,96,-8,-70,-85,35,111,167,-206,-296,-124,-41,190,-356,395,181,99,155,144,425,485750
-144,18,78,8,-6,-10,-192,-212,-32,62,-15,-104,-2,35,-38,-13,81,145,220,-131,-202,-47,21,210,-246,494,190,148,185,157,360,485751
-136,5,72,16,-6,-12,-185,-125,104,79,-36,-118,39,-160,-8,-71,56,99,179,-172,-251,-75,21,162,-268,432,142,112,143,116,262,485752
-146,-7,71,5,-16,-24,-220,126,170,119,-49,-15,24,-170,-22,-161,23,38,140,-234,-343,-142,15,99,-373,305,98,48,88,61,218,485753
-122,-3,72,11,-7,-27,-202,43,73,223,-84,-21,-139,-26,-9,-131,25,39,198,-201,-330,-131,39,128,-341,316,118,81,106,88,256,485754
-51,-11,30,-3,-8,-34,-120,-22,43,73,36,35,58,-58,-22,-18,15,34,136,-97,-89,-69,31,74,-151,623,71,67,79,63,139,485755
-38,-21,16,-21,-7,-29,-110,0,20,90,-7,6,-91,-64,-36,53,40,50,79,-25,47,-5,43,58,-33,785,44,57,75,61,80,485756
-40,-2,38,-33,-1,-21,-126,-174,-42,-39,85,-86,-95,-35,-21,64,62,73,73,-1,65,24,70,74,-7,787,65,72,85,73,157,485757
-128,1,60,1,-12,-37,-200,-126,130,-98,-94,-18,-59,-41,-79,-17,89,100,172,-81,-174,-59,96,158,-186,413,146,129,145,124,345,485758
-142,-2,58,11,-19,-34,-197,-203,149,123,-274,59,-73,-82,-39,-55,82,97,173,-112,-265,-82,86,166,-252,250,154,117,143,132,188,485759
-144,-23,55,-9,-21,-31,-204,-237,81,8,-231,-132,153,-117,17,-107,38,64,146,-169,-320,-125,57,112,-320,155,100,90,96,79,188,485760
-113,-10,80,32,18,16,-174,-169,37,-10,-72,-182,305,-203,104,-129,19,43,157,-176,-324,-126,36,107,-321,134,87,96,88,65,214,485761
-95,-15,65,17,22,27,-200,-70,-48,-26,-11,-11,69,-91,-41,-131,-1,20,125,-179,-338,-109,13,85,-302,118,61,63,75,63,142,485762
-57,-14,58,8,25,25,-144,-121,-21,105,-5,4,12,-96,0,-49,36,63,128,-86,-209,-33,59,96,-196,249,77,71,111,73,130,485763
-105,-34,53,-15,-14,-28,-171,-155,-1,140,162,111,-14,72,37,-12,125,139,231,-45,-207,23,151,190,-161,207,156,174,201,148,319,485764
-211,-46,39,-36,-54,-64,-299,-187,67,-97,-80,48,17,-111,64,-106,108,112,271,-147,-424,-66,130,235,-301,-96,202,187,219,164,442,485765
-231,-37,82,-5,-23,-35,-364,-263,49,-38,-178,-39,36,-247,40,-177,88,106,296,-211,-606,-124,95,263,-405,-371,240,186,242,193,450,485766
-293,-46,107,13,-18,-21,-435,-196,90,18,-250,-43,-75,-159,-60,-252,117,135,333,-275,-810,-183,138,323,-539,-710,282,233,290,225,584,485767
-361,-61,109,20,-32,-40,-466,-28,125,57,-200,-126,-82,67,-156,-304,190,196,415,-300,-1017,-200,207,425,-634,-1058,369,314,390,296,727,485768
-84,-29,41,28,19,-14,-108,141,52,103,51,38,-128,212,-51,-46,120,102,191,-24,-349,4,147,177,-129,-114,152,179,228,152,151,485769
7,-23,-14,16,23,-4,-15,-148,-16,-3,33,7,-69,155,-136,-27,-4,-22,-20,-6,-82,-23,10,-26,-11,323,-37,20,22,-15,-97,485770
-37,-17,14,28,25,14,-80,-277,-25,95,-43,7,17,-157,-7,-123,-56,-37,-13,-108,-258,-134,-32,-8,-171,146,-13,0,-10,-20,-14,485771
-7,-3,13,29,32,29,-38,87,-14,136,-105,47,56,-210,6,-76,-60,-46,-15,-58,-203,-90,-53,-5,-96,266,-1,-5,11,-9,-24,485772
-27,-1,13,19,20,10,-73,125,48,7,-90,157,45,-5,16,-46,-46,-28,-6,-44,-206,-76,-64,27,-68,270,21,10,50,20,24,485773
-53,-11,10,10,-4,-5,-149,108,30,103,42,72,11,4,20,-49,-47,-17,-31,-70,-245,-103,-75,23,-105,209,18,8,24,17,50,485774
-321,-47,84,14,-32,-27,-525,-168,79,198,-289,-65,219,19,-71,-284,88,134,233,-320,-921,-253,71,283,-598,-802,260,178,204,177,657,485775
-635,-95,166,56,-66,-61,-803,-421,196,69,-524,-228,190,-13,-133,-613,220,267,616,-624,-1863,-460,217,629,-1210,-2260,572,412,501,417,1230,485776
-615,-87,161,95,-41,-24,-642,-260,137,75,-399,-222,33,-30,-116,-659,210,222,676,-637,-1998,-480,230,631,-1231,-2552,569,441,535,423,1077,485777
-498,-71,134,121,-4,11,-486,-224,265,15,-373,-176,110,16,-86,-591,171,160,590,-545,-1815,-417,209,536,-1045,-2394,462,384,482,350,722,485778
-22,-25,-7,81,57,49,126,-9,67,-4,-80,81,90,268,16,-98,36,-30,147,-11,-465,-12,75,78,-73,-536,44,111,177,76,-226,485779
99,14,-29,69,63,54,272,145,-22,35,193,23,26,172,-6,44,12,-49,10,116,-13,101,54,-34,183,135,-45,47,66,-14,-249,485780
76,22,-9,62,57,53,219,206,-52,-7,31,-33,-129,28,15,1,23,-27,26,64,-18,66,76,-14,111,123,-34,59,29,-13,-126,485781
43,0,13,40,57,65,98,180,-50,-60,195,123,26,-97,0,-79,-14,-69,-2,-15,-111,-14,35,-29,-24,24,-48,6,-19,-46,-101,485782
43,-5,-6,24,46,59,69,44,-35,72,83,5,-146,93,-20,-45,-18,-68,-8,20,-42,9,30,-38,24,132,-61,-6,-24,-53,-92,485783
26,13,-4,7,32,34,76,-91,28,27,416,102,-124,164,54,22,28,3,4,79,47,72,90,7,92,249,-13,21,16,-6,-4,485784
-219,-29,48,2,-17,-6,-265,-245,-20,50,-49,79,94,-11,-16,-196,106,117,200,-164,-577,-97,159,214,-352,-648,189,141,155,134,518,485785
-486,-60,114,47,-38,-35,-616,-185,175,-146,-437,-104,-13,-90,-121,-485,183,208,489,-445,-1443,-311,216,502,-913,-1926,435,327,389,330,966,485786
-544,-76,110,98,-30,-38,-652,-248,157,-44,-269,-101,-33,-268,-51,-592,198,225,600,-521,-1786,-386,221,598,-1099,-2463,518,415,491,408,1094,485787
-560,-73,102,140,-24,-44,-554,-258,40,248,-160,-102,119,-167,22,-627,216,238,665,-536,-1957,-424,248,636,-1159,-2766,558,458,537,437,965,485788
-51,-13,-43,113,40,-5,145,19,-145,26,85,84,-21,66,91,-146,44,-3,183,-24,-575,-65,106,112,-164,-820,61,145,168,104,-147,485789
97,-17,-54,49,47,15,236,247,-31,8,237,110,32,-47,78,-28,-54,-113,-71,69,-77,9,-4,-103,110,-55,-131,1,-36,-78,-319,485790
29,-13,-15,34,43,34,70,224,63,159,83,116,-76,-125,-6,-79,-25,-71,-18,1,-208,-30,11,-12,-2,-199,-37,39,-3,-24,-124,485791
22,-2,-32,24,27,22,75,107,-41,97,52,174,-179,159,13,-50,-6,-48,-5,18,-172,-17,26,1,19,-129,-25,38,-4,-12,-78,485792
96,27,-33,40,53,44,196,145,-95,13,45,66,-101,261,141,34,-5,-48,-43,91,9,28,10,-22,139,121,-46,23,-23,-17,-174,485793
72,19,-30,37,41,30,209,-10,-72,-146,45,9,49,104,55,33,13,-19,-4,85,-8,37,29,23,140,103,-12,66,6,4,-100,485794
-316,-41,71,54,-17,-12,-232,-225,46,-24,-225,-218,207,-175,-50,-355,87,115,290,-331,-1043,-250,102,344,-609,-1361,301,243,219,204,715,485795
-997,-123,244,132,-84,-51,-1072,-626,324,25,-545,-450,335,-470,-203,-1074,276,353,909,-1029,-3070,-778,289,976,-1960,-4352,892,606,708,623,1907,485796
-957,-138,245,175,-32,0,-1100,-583,352,44,-545,-296,181,-262,-250,-1101,315,351,1008,-982,-3269,-743,359,1011,-1955,-4815,918,662,821,680,1814,485797
-743,-141,184,153,-2,43,-877,-356,235,113,-386,-157,52,-123,-190,-939,282,262,879,-774,-2869,-578,376,838,-1582,-4382,751,576,731,584,1327,485798
32,-49,-38,122,88,99,111,285,37,-137,507,164,-76,237,21,-189,89,-29,220,33,-782,-2,230,121,-110,-1465,95,163,223,124,-253,485799
270,-13,-127,69,84,70,436,403,-119,22,356,268,-218,166,98,110,-22,-133,-122,286,160,191,106,-169,418,-85,-178,-33,-61,-120,-533,485800
217,2,-105,47,68,62,370,176,-223,151,258,199,-179,206,150,99,-20,-99,-136,242,202,173,80,-142,363,11,-154,-28,-84,-115,-390,485801
159,3,-69,42,54,49,266,164,-144,67,133,103,-100,166,81,56,-16,-77,-116,185,128,129,65,-107,264,-73,-110,-20,-84,-100,-284,485802
125,11,-55,45,44,41,194,38,52,-19,-109,95,77,223,76,36,6,-42,-76,154,56,111,87,-51,178,-149,-72,3,-53,-55,-142,485803
104,-3,-73,36,37,25,158,24,-7,-13,-350,156,26,102,41,42,21,-13,-50,151,90,116,86,-25,195,-91,-50,-1,-46,-23,-69,485804
-151,-26,6,47,6,8,-181,-17,49,92,-369,-43,79,-121,-21,-211,89,92,162,-125,-605,-84,139,201,-300,-1067,180,141,113,126,507,485805
-481,-80,97,73,-25,-15,-612,-176,272,94,-221,-117,49,-59,-146,-550,188,201,482,-466,-1612,-329,236,520,-952,-2548,460,353,376,345,1055,485806
-683,-123,148,86,-45,-23,-843,-539,270,3,-461,-147,-15,151,-62,-773,244,254,698,-662,-2285,-485,275,735,-1336,-3593,662,488,579,489,1288,485807
-657,-102,138,137,-24,4,-727,-164,261,104,-323,-96,52,39,-52,-792,236,230,724,-641,-2387,-496,288,720,-1317,-3809,653,506,602,497,1126,485808
30,-8,-56,111,69,64,179,273,-79,161,123,226,-5,30,80,-109,57,-29,135,74,-535,19,120,87,25,-1209,49,143,160,105,-270,485809
184,4,-105,30,51,50,327,271,-36,98,24,307,-104,54,105,100,-14,-67,-108,234,115,136,24,-99,372,-243,-108,14,-34,-47,-404,485810
152,-18,-94,-19,28,24,200,147,10,116,30,335,-45,338,119,110,27,-14,-88,215,131,133,35,-62,361,-164,-55,32,-16,-24,-291,485811
115,-23,-77,-33,26,30,124,138,-101,33,19,174,-50,380,86,76,4,-32,-97,162,94,98,27,-59,291,-197,-66,20,-36,-42,-249,485812
100,-20,-45,-3,47,61,140,94,-187,-62,-27,29,56,94,99,33,-9,-40,-54,99,-17,50,32,-13,200,-316,-50,30,-34,-38,-165,485813
78,0,-24,23,55,75,233,148,-85,-21,-164,31,177,-130,47,-14,-23,-58,-71,45,-96,0,32,-36,110,-408,-66,5,-65,-55,-141,485814
-308,-28,83,83,-2,41,-184,-212,132,82,-253,-79,92,-247,-98,-463,39,39,179,-417,-1176,-340,68,248,-726,-1946,227,131,104,113,730,485815
-1325,-158,329,158,-131,-77,-1494,-1176,418,211,-908,-435,278,-419,-220,-1479,357,451,1162,-1426,-4079,-1066,371,1236,-2670,-6231,1153,772,876,760,2685,485816
-1403,-206,314,192,-111,-63,-1640,-793,490,301,-1032,-392,350,-277,-191,-1600,444,504,1428,-1431,-4645,-1089,495,1409,-2840,-7287,1298,935,1128,934,2589,485817
-985,-191,173,189,-30,-4,-1107,-674,363,177,-456,-161,208,-62,-24,-1241,326,320,1117,-983,-3735,-769,399,1039,-2076,-6144,955,734,932,730,1537,485818
20,-73,-96,142,99,87,168,-224,-50,183,445,206,76,278,68,-230,53,-57,237,80,-983,7,156,120,-105,-2252,81,197,272,144,-416,485819
342,-31,-184,63,102,89,537,179,-162,190,321,374,71,162,54,117,-99,-208,-225,367,180,207,-21,-286,545,-503,-283,-98,-121,-174,-874,485820
253,-22,-162,43,66,54,408,219,-139,16,126,334,-115,73,52,97,-63,-142,-189,300,162,176,13,-214,453,-476,-210,-66,-116,-152,-597,485821
232,5,-119,54,66,50,350,354,-36,25,103,200,2,122,126,107,-16,-86,-119,294,185,188,47,-134,426,-428,-130,-5,-76,-91,-401,485822
188,3,-88,42,61,46,303,342,-12,132,106,206,-75,93,103,67,-20,-92,-129,232,143,141,36,-130,359,-452,-120,-30,-103,-89,-301,485823
156,3,-77,45,56,52,266,354,-47,189,-164,19,53,120,7,16,-60,-104,-158,166,95,91,-25,-142,295,-501,-134,-70,-116,-111,-340,485824
-172,-45,10,41,11,24,-184,-132,-28,-20,-183,-133,25,-59,-31,-336,-17,-27,49,-211,-790,-191,4,97,-353,-1722,101,53,30,20,386,485825
-830,-128,191,107,-51,-11,-1021,-592,240,69,-615,-333,128,-293,-56,-1000,236,251,723,-864,-2712,-655,259,776,-1636,-4546,732,502,559,472,1662,485826
-963,-159,210,140,-66,-13,-1155,-492,274,236,-817,-312,203,-132,-57,-1155,325,323,993,-969,-3323,-735,378,986,-1921,-5560,915,675,799,660,1797,485827
-783,-151,130,150,-38,-7,-876,-456,340,80,-348,-126,49,-61,-60,-990,290,244,911,-760,-2982,-594,365,860,-1571,-5201,781,614,752,600,1268,485828
40,-45,-102,129,70,62,194,40,-54,179,316,279,-221,184,133,-163,110,-25,263,123,-776,43,224,162,16,-2109,113,207,275,168,-353,485829
347,1,-160,87,96,83,579,511,-143,108,446,387,-223,345,202,178,0,-123,-115,409,255,266,107,-183,606,-579,-185,-25,-44,-90,-733,485830
256,10,-147,79,68,46,469,308,-74,-69,235,241,-141,223,121,85,-46,-138,-187,261,152,140,29,-224,432,-632,-206,-90,-138,-152,-551,485831
248,19,-113,72,80,56,451,182,-156,-95,285,111,-226,134,106,71,-47,-126,-178,213,169,89,39,-218,364,-578,-201,-98,-168,-160,-444,485832
223,16,-93,52,73,64,424,-62,-248,172,286,80,-198,101,8,97,-17,-88,-133,229,226,116,74,-181,364,-488,-170,-60,-150,-136,-435,485833
223,21,-113,25,50,45,404,102,-109,40,387,41,-92,111,63,125,-28,-90,-186,249,332,131,41,-218,382,-307,-201,-98,-181,-172,-490,485834
-57,-7,-21,11,12,23,-19,51,31,-156,139,-25,-145,7,12,-144,38,23,40,-44,-409,-79,71,49,-180,-1324,56,45,-1,-4,208,485835
-647,-81,155,49,-49,-23,-793,-376,228,140,-425,-240,78,-245,-103,-736,238,262,642,-630,-2114,-495,243,656,-1290,-3834,629,439,474,408,1333,485836
-676,-99,134,104,-40,-18,-789,-460,326,99,-564,-197,93,2,-98,-793,272,266,731,-620,-2389,-485,286,725,-1311,-4350,692,509,608,500,1208,485837
-304,-75,13,87,7,19,-302,-116,83,81,-98,39,18,34,76,-423,194,148,450,-206,-1458,-173,243,426,-565,-3108,394,362,442,333,496,485838
129,-38,-117,37,45,42,234,-32,-151,66,382,246,-91,247,137,25,50,-27,1,243,-188,179,101,-10,317,-1302,-15,79,125,42,-369,485839
253,-3,-145,26,48,42,378,81,-131,69,323,348,-305,217,68,201,30,-52,-158,381,320,289,68,-143,581,-540,-134,-20,-26,-62,-507,485840
198,-5,-144,10,17,0,322,147,-52,14,237,273,-220,221,27,141,-16,-94,-191,302,291,225,24,-172,479,-509,-154,-61,-72,-90,-458,485841
153,-6,-141,3,11,-10,289,255,-34,-18,153,168,-192,244,110,112,-41,-84,-197,251,281,189,-16,-164,435,-505,-152,-68,-85,-100,-379,485842
141,2,-120,5,14,-8,270,222,-176,-123,289,198,-124,179,119,83,-77,-118,-217,210,267,144,-75,-178,400,-482,-167,-84,-130,-126,-395,485843
171,17,-88,24,36,28,279,229,-171,-31,260,114,-55,-114,111,80,-94,-147,-249,194,302,130,-116,-218,381,-400,-190,-115,-171,-147,-434,485844
241,31,-107,18,43,35,386,149,-18,158,364,74,-119,300,38,174,-96,-151,-283,294,568,205,-109,-262,553,-9,-243,-138,-205,-170,-551,485845
376,53,-139,-2,49,43,565,229,-65,155,399,204,-126,294,114,336,-126,-172,-403,444,1006,310,-135,-387,852,664,-354,-207,-304,-257,-783,485846
496,54,-163,-43,54,57,676,262,-187,13,413,214,8,171,86,433,-187,-237,-589,527,1392,383,-212,-560,1085,1313,-496,-342,-439,-382,-989,485847
549,60,-151,-63,60,74,653,223,-167,-42,186,163,-61,-47,97,446,-253,-285,-686,494,1530,365,-284,-643,1100,1613,-573,-432,-535,-460,-955,485848
135,19,-28,-50,7,43,111,-144,48,6,-93,-45,65,-169,-43,46,-133,-97,-317,68,432,45,-177,-244,278,112,-211,-200,-259,-216,-94,485849
4,19,3,-6,-4,29,-10,-100,-45,20,-67,-21,76,55,-4,-30,2,23,-31,17,17,18,-17,-6,62,-502,10,-27,-29,-14,113,485850
104,28,-49,5,1,11,165,69,-143,-62,6,-92,-13,149,43,101,15,-2,-71,154,279,98,27,-78,263,-150,-57,-61,-51,-50,-92,485851
122,25,-47,7,3,8,201,-77,-101,-126,143,-64,71,36,13,123,30,-2,-96,182,332,99,32,-98,285,-68,-68,-68,-71,-64,-122,485852
128,25,-47,-1,-4,-5,241,147,-5,-22,135,-5,163,94,6,120,14,-9,-138,183,364,95,19,-133,294,0,-91,-97,-98,-83,-179,485853
135,41,-54,6,9,-3,268,-3,-76,49,132,2,-56,177,36,141,26,1,-114,202,399,116,40,-118,332,70,-66,-71,-74,-67,-135,485854
390,64,-125,-28,40,14,552,89,-190,-78,194,193,-273,311,62,394,-56,-119,-332,478,1111,306,-69,-354,865,1103,-294,-192,-222,-204,-772,485855
1172,167,-314,-105,132,97,1414,764,-302,-128,894,463,-311,400,225,1203,-310,-427,-1100,1260,3397,907,-342,-1116,2365,4459,-1015,-672,-810,-719,-2301,485856
1236,181,-316,-167,96,77,1401,702,-463,-229,997,444,-127,163,159,1351,-377,-440,-1284,1309,3930,980,-446,-1248,2556,5385,-1125,-786,-989,-830,-2241,485857
960,156,-223,-194,42,27,1035,491,-483,27,551,203,-159,91,86,1125,-333,-335,-1114,1026,3396,798,-450,-1014,2055,4786,-902,-687,-871,-697,-1598,485858
127,61,0,-152,-64,-45,11,37,-56,241,-10,-61,-100,-235,-76,303,-106,-30,-361,152,1169,184,-239,-246,443,1667,-184,-217,-330,-203,61,485859
-133,16,52,-109,-83,-56,-298,-329,24,11,-279,-69,-29,-215,-95,24,-6,71,-22,-83,282,10,-99,40,-70,340,69,-39,-54,29,365,485860
-103,2,45,-106,-66,-34,-266,-267,-3,-4,-244,-54,-73,-169,-72,36,-8,42,-31,-71,210,14,-93,7,-68,198,38,-83,-42,20,269,485861
-54,1,20,-104,-55,-26,-182,-321,-70,-102,-292,3,-27,-132,-22,24,-43,3,-97,-54,260,-3,-115,-81,-15,265,-39,-139,-106,-34,170,485862
-84,-2,17,-64,-60,-45,-185,-125,-26,-24,-29,12,87,-159,-3,-31,-24,34,-49,-106,121,-22,-105,-28,-88,37,21,-62,-43,7,211,485863
-96,-9,11,-49,-68,-65,-180,91,-48,-79,-246,-83,-157,-26,-66,-27,17,65,47,-97,16,-9,-58,45,-124,-137,77,28,43,61,136,485864
136,27,-20,-57,-2,-2,118,193,49,11,56,-75,-162,-32,3,202,-24,-15,-103,151,569,159,-81,-133,279,662,-105,-80,-71,-46,-324,485865
434,70,-79,-74,30,42,483,322,-189,21,311,-18,195,44,93,468,-147,-153,-450,414,1434,329,-186,-480,837,1954,-401,-326,-348,-290,-831,485866
451,76,-85,-80,18,21,478,252,-258,84,317,37,75,26,35,524,-161,-161,-511,450,1635,346,-188,-540,923,2316,-468,-380,-430,-346,-863,485867
424,78,-60,-84,18,16,373,-10,-173,-90,390,124,-29,98,66,536,-109,-121,-455,444,1635,345,-135,-473,886,2352,-404,-333,-392,-294,-616,485868
19,8,30,-73,-57,-54,-101,-97,56,-139,54,-94,-23,-4,-53,123,-27,0,-137,22,538,22,-53,-128,108,862,-75,-148,-155,-94,131,485869
-116,1,53,-29,-56,-55,-205,-186,104,8,-119,-201,173,-92,-44,-49,-1,35,7,-122,25,-105,-26,-2,-185,137,42,-61,-22,5,220,485870
-63,20,50,-20,-32,-29,-99,-8,34,15,-143,-178,17,-273,23,-19,-20,6,-23,-72,53,-104,-45,-30,-126,163,3,-51,-17,-23,84,485871
-87,11,56,-11,-27,-12,-109,5,127,-32,-275,-109,74,-475,-21,-47,4,34,21,-83,-81,-110,-19,20,-172,-22,51,2,45,9,171,485872
-93,3,32,-20,-40,-30,-99,-41,149,-173,-241,-1,19,-239,-72,-32,5,40,-21,-65,-60,-90,-30,-11,-147,1,41,-26,34,0,166,485873
-109,1,30,-18,-41,-35,-159,114,74,-42,-31,44,-21,-129,-14,-39,30,59,7,-75,-137,-94,0,15,-190,-123,62,-7,70,22,164,485874
101,9,-38,-50,-17,-33,54,216,-74,-31,115,65,-93,-44,40,179,-18,-25,-137,165,464,97,-10,-165,257,685,-128,-86,-52,-95,-308,485875
255,25,-83,-75,-3,-25,230,323,-129,-119,50,102,-101,144,5,348,-70,-78,-273,329,980,229,-62,-301,586,1433,-260,-169,-179,-189,-491,485876
225,28,-75,-81,-16,-47,194,167,-67,-156,223,88,81,45,18,337,-62,-65,-248,293,968,219,-51,-279,532,1454,-242,-164,-179,-172,-400,485877
163,38,-34,-61,-28,-51,133,153,-41,-82,63,72,-34,-8,77,275,-35,-38,-217,211,821,165,-52,-227,389,1267,-194,-154,-160,-146,-243,485878
-47,19,25,-50,-54,-69,-122,71,-43,24,-551,-34,-97,-24,44,49,1,32,-49,-41,237,3,-37,-45,-33,426,-24,-56,-34,-25,207,485879
-92,16,63,-16,-27,-42,-192,121,3,33,-166,-75,146,175,26,-29,25,63,66,-124,-11,-30,0,36,-157,50,62,11,47,39,209,485880
-103,11,65,-3,-27,-31,-190,-92,100,-88,-111,-116,307,16,-27,-39,52,86,111,-128,-93,-35,8,78,-187,-123,116,52,87,81,208,485881
-98,-12,39,-13,-37,-37,-169,-177,-4,-24,129,-143,-109,-69,-42,-45,19,45,48,-130,-109,-38,-35,44,-160,-139,56,24,68,50,145,485882
-20,-5,37,-12,-10,-3,-103,92,-23,-34,-47,-69,-159,1,-45,6,-4,19,-7,-73,38,-3,-26,-25,-45,46,-12,-19,14,4,22,485883
12,-10,30,-39,-7,10,-101,-132,41,-26,94,46,-30,65,-14,17,-11,6,-27,-50,103,-3,-19,-51,-5,135,-33,-38,3,-20,10,485884
101,-16,-2,-41,-11,17,-6,-163,-72,-198,-84,93,-105,-23,0,124,-31,-11,-85,60,354,72,-46,-104,175,499,-96,-70,-33,-55,-284,485885
285,32,-57,-48,5,11,201,121,-91,7,-87,91,-105,6,22,323,-96,-79,-258,267,914,210,-117,-286,553,1337,-262,-183,-179,-169,-635,485886
367,71,-85,-53,21,3,268,356,-28,80,49,29,-110,-108,38,428,-115,-90,-349,356,1228,271,-145,-371,719,1818,-342,-237,-260,-227,-658,485887
288,55,-60,-80,7,-14,161,272,-1,-58,58,6,-35,-26,42,406,-101,-72,-343,315,1161,246,-133,-341,629,1805,-302,-228,-254,-213,-477,485888
-41,-16,24,-81,-43,-37,-204,-100,87,-126,-188,-99,36,-54,-42,60,-28,25,-104,-41,254,-25,-83,-64,-22,567,-27,-73,-69,-47,128,485889
-112,-26,52,-33,-35,-18,-140,-298,-8,-61,-63,-138,109,-64,-87,-72,-18,31,-12,-148,-136,-138,-54,20,-251,26,35,-22,14,4,266,485890
-47,6,46,17,0,8,-2,-175,-20,-133,7,-115,199,-215,-114,-39,-26,8,-30,-88,-76,-102,-49,-8,-174,110,0,-29,23,-7,176,485891
-27,9,12,7,-18,-4,18,1,16,-13,-122,-48,11,-93,-65,14,-26,23,-39,-24,16,-52,-60,-14,-66,249,1,-21,42,0,102,485892
-43,-16,-2,-23,-42,-31,-33,12,66,21,-54,-33,-114,4,-100,15,-24,23,-58,-9,20,-42,-86,-28,-46,263,6,-41,25,-10,52,485893
10,-16,3,-16,-22,-27,-38,-166,55,70,-66,52,-75,-88,-116,33,-56,-22,-80,13,83,-32,-109,-67,32,364,-36,-62,-9,-42,-5,485894
198,9,-45,-17,13,-3,193,118,-49,80,167,5,3,-70,24,218,-98,-99,-208,197,590,115,-127,-224,383,1069,-192,-146,-119,-141,-434,485895
741,81,-192,-62,58,33,885,564,-315,-111,557,252,-74,94,192,771,-264,-311,-750,737,2162,522,-276,-765,1416,3397,-689,-510,-542,-496,-1503,485896
824,112,-200,-108,41,18,1009,382,-315,-26,764,269,-75,142,171,889,-320,-337,-907,791,2646,583,-343,-900,1588,4190,-813,-619,-721,-615,-1539,485897
529,92,-114,-122,-4,-12,644,296,-244,-35,336,88,27,-10,-29,634,-250,-244,-721,477,2070,371,-289,-678,1078,3421,-616,-503,-627,-508,-904,485898
-42,40,52,-79,-63,-51,-109,182,-11,-166,-295,-253,121,-146,-94,57,-54,13,-169,-124,484,-44,-119,-105,-40,1122,-76,-137,-198,-126,301,485899
-178,13,86,-36,-59,-52,-259,64,98,-133,-358,-291,148,-108,-6,-101,-11,63,51,-229,-52,-125,-59,79,-306,299,88,15,0,48,413,485900
-120,26,83,-17,-35,-29,-178,-111,117,-36,-234,-167,155,-157,-13,-58,-6,58,52,-169,11,-90,-57,62,-244,329,69,17,17,51,309,485901
-122,19,79,-9,-36,-32,-186,-229,134,-9,-42,-179,85,-90,-49,-42,36,91,99,-156,-49,-69,-13,96,-252,201,85,54,61,82,296,485902
-107,-5,57,-27,-42,-30,-183,-318,102,25,-224,-171,112,-195,-81,-28,35,80,95,-144,-51,-49,-6,74,-211,171,61,41,58,69,240,485903
-98,8,58,-10,-32,-23,-162,-180,111,57,-80,-78,216,-124,-15,-28,25,69,83,-139,-75,-47,4,77,-188,125,56,38,59,67,242,485904
-32,-1,30,-9,-28,-36,-50,127,69,230,-24,86,219,-63,-34,53,16,57,33,-49,108,20,8,23,-32,368,-1,21,44,36,41,485905
123,7,-37,-44,-10,-31,160,54,-160,-70,9,86,85,-1,-17,219,-37,-4,-111,120,569,139,-38,-136,279,1044,-151,-79,-80,-77,-321,485906
214,41,-34,-47,16,-4,289,98,-145,-62,395,48,-98,17,-6,324,-51,-39,-182,204,835,198,-49,-195,435,1442,-204,-119,-149,-129,-439,485907
166,46,-17,-51,-4,-9,270,201,-77,60,229,9,-99,-31,3,286,-57,-38,-185,186,775,162,-59,-175,370,1402,-184,-112,-135,-120,-313,485908
8,26,17,-37,-34,-24,24,36,58,-18,26,-60,-47,-14,17,86,-56,-14,-107,-3,320,-7,-75,-76,36,810,-76,-70,-79,-67,16,485909
-89,13,59,-16,-20,-17,-187,-90,93,-137,-95,-115,-8,-179,-70,-52,-44,2,-21,-136,-57,-138,-58,19,-196,332,13,-29,-22,-22,160,485910
-83,-10,81,-14,-9,-4,-205,-91,126,34,69,-93,158,-92,-28,-57,-18,12,-4,-119,-141,-133,-41,43,-221,234,36,-8,22,9,168,485911
-66,-7,49,-17,-18,-20,-168,50,139,83,-10,12,198,-56,-16,-29,-42,-11,-53,-89,-118,-123,-81,-4,-200,301,8,-52,-4,-14,47,485912
-72,-5,45,-2,-22,-30,-162,-37,56,-35,-132,-19,185,-18,10,-48,-56,-10,-21,-104,-206,-140,-89,34,-247,204,31,-24,18,8,116,485913
-30,-2,37,4,-13,-14,-95,-55,135,-70,-195,-69,187,47,-18,-22,-72,-34,-9,-69,-128,-115,-109,26,-176,298,20,-7,14,0,31,485914
-157,-19,55,-4,-36,-28,-218,-130,153,39,-171,-87,209,7,-22,-160,-49,0,67,-213,-426,-212,-87,97,-397,-171,84,28,46,28,256,485915
-234,-32,84,13,-33,-21,-304,-105,11,-108,-83,-108,87,14,-57,-259,4,48,172,-300,-695,-267,-15,188,-547,-621,167,102,133,113,400,485916
-282,-51,83,3,-35,-28,-342,-199,75,-69,-240,-92,-153,-114,-8,-313,25,46,230,-339,-810,-287,24,218,-595,-842,186,141,157,119,417,485917
-328,-55,87,16,-33,-29,-398,-277,194,-17,-234,-98,-86,-92,-12,-316,79,109,330,-354,-923,-253,97,307,-641,-1128,270,216,252,194,512,485918
-101,-5,29,29,-7,-7,-112,-63,193,-35,181,-96,29,-2,52,-97,63,58,199,-105,-353,-46,100,170,-213,-403,117,131,162,109,121,485919
7,-2,7,15,-3,-4,39,110,33,-47,253,-83,180,21,59,0,12,3,31,-22,-17,19,43,26,-10,71,-8,21,41,4,-19,485920
-3,-20,5,12,3,-13,-20,-140,-88,-136,248,-18,-27,46,51,3,17,33,15,-30,-2,19,30,37,6,89,-8,12,26,0,34,485921
-9,-6,9,9,2,-2,-104,-43,33,-49,-41,3,56,-93,-13,-3,51,51,63,-19,-33,23,53,77,-30,38,41,45,61,36,93,485922
12,1,23,-4,9,15,-136,-60,204,-7,-2,-30,157,-66,-18,40,64,65,100,19,30,56,95,79,7,130,46,61,85,50,64,485923
10,-2,12,-24,1,0,-142,-190,178,131,226,-32,101,127,44,50,49,44,73,35,96,88,78,58,42,222,21,48,50,25,75,485924
-185,-21,71,-1,-19,-18,-322,-255,79,83,-35,-75,42,63,24,-168,98,115,220,-184,-447,-76,112,228,-342,-566,186,162,176,131,573,485925
-677,-91,178,52,-75,-58,-790,-533,229,-28,-501,-340,41,-319,-141,-708,214,253,644,-718,-1926,-481,200,671,-1329,-2704,589,434,509,415,1455,485926
-850,-123,197,111,-74,-70,-871,-563,350,-2,-612,-362,139,-336,-172,-940,252,298,847,-904,-2658,-654,251,857,-1730,-3832,754,558,693,548,1616,485927
-737,-110,146,145,-52,-64,-634,-547,276,28,-494,-211,72,-193,-169,-862,212,238,784,-770,-2517,-584,232,759,-1530,-3731,657,524,660,491,1208,485928
-99,-27,-13,135,44,4,119,185,-35,43,189,58,-64,41,63,-211,70,13,290,-103,-850,-105,97,217,-306,-1410,153,217,285,164,-47,485929
116,-21,-77,38,36,-8,249,178,-117,147,268,150,-289,178,104,64,-30,-69,-13,127,-35,54,-5,-55,158,-206,-84,25,40,-40,-332,485930
63,-28,-56,-3,10,-13,107,217,-113,58,-6,169,-306,236,-6,68,28,4,38,116,-26,56,52,28,123,-171,-1,72,74,8,-120,485931
96,-18,-46,-5,20,1,119,78,-101,-78,43,134,-119,344,52,115,31,13,21,158,102,97,71,22,190,22,-9,67,49,19,-142,485932
49,-23,-35,-8,19,8,33,12,-68,108,-7,33,-94,214,82,45,4,-16,-17,69,-15,16,34,15,72,-115,-19,44,18,-8,-110,485933
-31,-12,5,-4,6,12,-31,-60,-56,122,33,65,20,26,104,-48,20,15,36,-13,-228,-37,30,82,-75,-418,52,76,65,42,22,485934
-228,-27,58,29,-19,-5,-238,-141,94,36,-113,-44,66,-218,70,-267,33,67,157,-260,-793,-200,42,226,-485,-1206,186,130,156,124,469,485935
-974,-131,235,101,-96,-76,-1108,-693,350,45,-638,-434,119,-357,-125,-1016,269,354,856,-1022,-2905,-750,286,927,-1914,-4313,831,576,679,574,1907,485936
-1125,-155,262,171,-78,-66,-1220,-657,428,212,-752,-423,-81,-221,-200,-1209,375,429,1155,-1129,-3597,-843,426,1169,-2229,-5489,1043,766,941,770,2075,485937
-870,-151,166,179,-36,-25,-905,-511,340,-7,-597,-344,11,-93,-161,-1015,304,299,989,-865,-3111,-664,403,941,-1786,-4933,826,631,830,642,1451,485938
-122,-62,-10,161,76,60,-7,69,37,-209,65,49,-50,54,3,-307,107,15,366,-107,-1152,-137,241,269,-391,-2201,190,219,343,211,-55,485939
185,-33,-83,89,93,71,340,242,-174,-112,275,149,-193,188,91,36,0,-95,-10,201,-96,97,94,-59,240,-675,-116,11,46,-38,-468,485940
171,-28,-77,58,71,53,283,114,-12,-14,254,204,-6,398,165,36,-10,-68,-45,183,2,110,57,-59,255,-470,-109,10,14,-61,-394,485941
140,-16,-57,47,61,49,238,167,-15,184,-12,205,-25,165,44,15,-15,-73,-17,153,1,103,53,-38,224,-435,-84,20,0,-63,-347,485942
137,-3,-50,37,62,58,257,170,-133,120,195,-24,-46,237,15,47,4,-59,5,178,77,113,66,-24,242,-313,-72,21,-5,-62,-265,485943
95,-11,-62,37,42,29,237,107,-165,-81,-47,24,46,110,44,4,-12,-64,-55,123,16,62,32,-47,160,-343,-77,-23,-55,-86,-179,485944
-69,-12,-30,44,9,-5,79,-178,-130,-92,-240,41,36,-1,22,-155,-5,-25,-5,-71,-372,-82,25,48,-130,-877,15,21,-5,-42,98,485945
-405,-70,80,34,-29,-16,-345,-236,157,41,-129,-95,-209,-54,-126,-458,123,135,352,-379,-1308,-300,137,422,-748,-2257,359,278,294,218,739,485946
-542,-103,122,42,-29,-1,-522,-311,209,-4,-320,-104,-1,-25,-100,-633,190,191,553,-520,-1856,-410,205,603,-1049,-3126,518,410,470,364,1046,485947
-371,-93,92,84,14,42,-366,-144,109,131,-384,-56,97,-73,-50,-583,89,57,401,-439,-1642,-378,123,416,-876,-2882,336,281,347,235,594,485948
112,-30,-14,85,93,105,144,167,-5,227,64,128,276,-87,51,-151,-65,-132,-14,-3,-416,-50,0,-46,-43,-1174,-91,-10,9,-59,-347,485949
311,17,-71,47,91,99,366,367,-104,288,200,204,4,50,209,164,-56,-121,-158,263,359,195,11,-171,435,-107,-219,-75,-121,-131,-530,485950
193,-5,-78,28,38,35,243,183,-142,175,269,285,-41,213,160,135,-1,-26,-77,206,253,201,35,-56,324,-257,-98,-10,-57,-47,-255,485951
115,-14,-69,20,21,-2,176,-97,-66,102,229,179,-33,182,73,48,-14,-27,-75,95,122,118,10,-51,180,-429,-75,-32,-70,-45,-157,485952
66,-1,-34,38,24,19,109,-25,31,89,250,119,-57,-34,90,-5,21,5,18,31,1,55,58,18,70,-629,-21,31,-35,-2,-74,485953
72,-3,-31,39,28,25,107,45,-90,-95,146,70,-186,72,53,32,52,29,33,61,53,94,95,44,102,-571,2,49,-9,32,-85,485954
-88,-18,14,36,9,16,-77,-36,-25,-42,-177,-16,-110,138,-43,-87,128,137,195,-63,-338,3,169,214,-165,-1106,170,160,131,158,293,485955
-418,-56,105,49,-25,2,-438,-345,122,43,-418,-65,-27,-26,-71,-422,204,230,500,-377,-1272,-245,244,526,-789,-2453,464,349,382,357,930,485956
-491,-88,127,63,-24,10,-537,-214,77,123,-450,-155,81,-122,-72,-564,179,164,559,-473,-1648,-345,215,573,-971,-3025,511,374,448,399,972,485957
-304,-72,92,82,30,55,-341,-18,69,10,-98,-153,4,-4,-12,-446,112,79,422,-313,-1368,-259,148,419,-706,-2615,371,292,359,305,583,485958
-2,-47,-18,73,66,77,37,-102,-38,102,246,49,-171,32,35,-162,-2,-63,91,-8,-565,-65,44,82,-144,-1409,47,78,97,65,-118,485959
106,-21,-55,53,59,71,181,-137,1,5,252,109,-155,-26,9,-40,-29,-86,-53,99,-155,1,-4,-57,95,-785,-73,-15,-26,-61,-320,485960
86,-15,-44,54,43,50,178,324,-5,-9,247,93,-80,70,40,-36,-11,-52,-40,99,-138,0,28,-32,126,-710,-52,19,-7,-54,-179,485961
98,2,-41,52,47,46,219,280,0,-95,126,290,-37,161,-12,15,14,-24,-48,131,-64,45,66,-17,188,-580,-24,24,19,-26,-119,485962
69,-15,-61,39,27,18,235,140,-131,96,165,243,-47,123,34,-15,-28,-52,-90,92,-96,15,-2,-42,126,-585,-44,-18,-9,-64,-183,485963
110,3,-51,69,47,34,286,156,-112,153,113,81,-169,28,0,-25,-78,-97,-142,83,-56,-4,-73,-104,110,-494,-99,-66,-65,-121,-355,485964
59,15,-24,65,42,38,172,217,22,154,135,23,-46,69,-29,-93,-50,-73,-107,4,-209,-71,-54,-51,-33,-703,-45,-56,-58,-99,-108,485965
-214,-23,33,83,0,3,-195,-113,27,113,30,89,-8,-72,-32,-345,58,60,144,-256,-945,-252,63,208,-534,-1791,189,104,135,75,495,485966
-272,-49,40,87,-19,-26,-262,-144,69,78,-42,45,-12,-4,14,-389,82,91,253,-288,-1127,-248,123,285,-615,-2131,255,170,228,143,535,485967
-221,-47,27,80,-8,-10,-175,-74,95,176,39,5,84,41,49,-289,130,125,300,-202,-1002,-148,160,311,-496,-2060,287,213,273,198,456,485968
23,-13,-36,64,34,21,134,18,45,10,198,109,-37,263,75,-24,81,41,128,60,-309,79,125,113,-18,-1170,93,95,136,76,-33,485969
109,-16,-78,17,33,25,165,145,-93,117,148,104,-240,207,116,46,-19,-68,-59,109,60,140,26,-75,158,-676,-81,-34,-45,-70,-302,485970
80,-20,-60,-9,25,43,76,137,1,162,-25,62,-241,93,72,18,-27,-53,-64,53,74,125,-7,-67,122,-720,-74,-36,-73,-57,-267,485971
70,-16,-60,-20,19,32,61,115,0,123,91,50,-103,179,68,5,6,-38,5,45,102,153,30,-30,130,-747,-52,7,-48,-25,-189,485972
67,-4,-49,-6,17,30,71,201,-20,-9,172,67,-137,193,74,15,36,-25,65,50,145,173,83,13,151,-748,-25,43,-1,17,-76,485973
47,-12,-36,5,18,27,59,165,-77,-17,11,4,-56,105,65,27,87,32,96,50,128,187,138,52,114,-788,14,64,27,62,21,485974
-84,-27,9,10,-2,14,-133,-94,-25,54,-185,43,-44,42,-43,-113,131,94,204,-88,-265,59,193,182,-165,-1303,152,131,115,148,331,485975
-270,-50,64,36,-18,6,-383,-111,203,145,-350,-144,20,-45,-68,-348,160,156,367,-317,-950,-154,209,362,-596,-2232,321,249,261,242,649,485976
-298,-58,59,57,-13,-3,-406,-116,187,-26,-292,-124,80,-10,-40,-405,143,169,388,-348,-1182,-229,177,376,-686,-2521,339,266,307,250,684,485977
-163,-27,33,76,15,17,-198,-56,98,101,-44,97,-107,-52,-16,-287,99,116,281,-202,-927,-162,124,257,-446,-2075,237,204,236,174,361,485978
-33,-28,-11,46,28,21,14,181,-37,-26,0,207,-53,197,86,-131,29,32,116,-47,-553,-90,47,93,-134,-1442,102,82,109,55,29,485979
-11,-31,-47,9,14,9,-15,80,-81,99,-257,124,-202,211,55,-107,-12,-20,23,-22,-452,-86,-5,24,-74,-1235,49,10,49,-19,-27,485980
-19,-30,-58,0,10,6,-81,180,-184,68,-232,45,-207,108,21,-115,-43,-71,-23,-16,-448,-98,-47,-12,-84,-1167,15,-40,7,-53,-65,485981
-8,-31,-41,10,7,12,-100,196,-93,131,1,54,-75,116,97,-109,-60,-71,-49,-20,-428,-118,-64,-37,-90,-1090,1,-74,-30,-81,-91,485982
-11,-37,-25,3,7,11,-61,305,13,94,45,142,-37,103,104,-72,-24,-40,-1,9,-412,-102,-16,10,-75,-1043,50,-21,4,-51,-61,485983
-10,-19,-19,-5,8,26,83,140,0,-26,112,97,-149,183,65,-27,38,19,102,55,-363,-64,66,76,-33,-993,108,56,69,0,74,485984
64,-4,-50,9,14,37,188,76,-134,-161,170,93,-52,182,56,-2,2,-29,52,106,-160,-17,52,-11,90,-718,31,9,-3,-56,-188,485985
298,38,-97,-1,42,51,360,225,-79,-147,215,242,-112,348,110,234,-45,-93,-159,337,510,177,13,-208,530,209,-167,-97,-152,-182,-513,485986
358,38,-112,-31,45,45,372,174,-93,-31,150,158,24,251,92,331,-65,-97,-271,398,813,255,-27,-291,674,659,-250,-169,-245,-241,-595,485987
326,44,-96,-12,46,53,365,149,-126,-43,85,35,-31,265,109,321,-41,-60,-252,349,820,271,-20,-257,616,644,-219,-161,-233,-211,-552,485988
55,21,-19,-3,3,30,117,173,-57,-8,-79,3,-49,31,-32,67,29,38,-48,76,214,126,27,-27,128,-302,-9,-26,-68,-48,19,485989
-38,19,-1,12,8,23,26,35,0,-106,55,-95,-110,-87,-100,-43,53,41,85,-36,-41,100,59,64,-64,-811,50,42,14,34,91,485990
-19,-6,-27,-16,1,8,5,-102,-52,-185,-77,-123,50,-145,-74,-48,6,-12,62,-54,56,121,16,6,-34,-797,-13,-10,-48,-12,-17,485991
-71,-12,0,-3,3,16,-109,-6,-80,8,42,-173,-14,-139,-82,-125,6,-6,101,-132,-81,93,7,43,-134,-1080,4,7,-20,9,82,485992
-31,-20,0,-4,8,40,-126,-6,-44,-140,-7,-114,-121,-213,-51,-112,-6,-14,88,-104,-8,137,4,6,-75,-1038,-18,-14,-21,6,-39,485993
-5,-25,6,-8,28,61,-118,-56,19,-222,-86,-93,-70,-97,-71,-89,-9,-15,77,-82,48,141,14,2,-52,-976,-30,-31,-30,4,-39,485994
236,-8,-50,-15,62,79,227,108,-6,-116,259,-47,41,-7,47,150,-63,-104,-107,184,643,286,-37,-187,401,-46,-220,-141,-153,-99,-513,485995
686,73,-164,-30,94,96,843,487,-189,41,574,179,20,59,102,597,-228,-298,-564,634,1897,557,-196,-634,1265,1930,-620,-422,-507,-411,-1310,485996
759,125,-163,-33,91,97,946,627,-169,52,533,295,-29,190,114,713,-231,-271,-692,724,2221,591,-237,-703,1403,2591,-657,-479,-599,-461,-1355,485997
586,110,-138,-47,41,33,753,502,-224,117,536,285,153,177,119,594,-199,-203,-615,590,1909,420,-232,-587,1135,2359,-528,-425,-560,-407,-1005,485998
96,47,6,-41,-23,-17,131,48,-52,102,-92,21,174,-24,-16,140,-47,-7,-146,122,559,28,-99,-106,256,562,-64,-110,-200,-89,63,485999
-89,34,59,5,-20,-5,-83,-133,72,232,-286,-107,-4,-132,-65,-65,15,52,66,-57,-147,-138,-32,95,-125,-377,121,25,-11,53,292,486000
-58,32,42,21,-11,16,34,23,130,307,-173,-115,-47,-162,-146,-42,8,27,32,-18,-177,-150,-12,53,-98,-373,94,-8,-5,30,126,486001
-21,25,34,26,0,23,145,-122,-68,40,-91,-183,69,39,13,-20,-22,-9,-13,7,-133,-166,-38,-7,-50,-277,38,-51,-49,-22,32,486002
-17,17,33,27,2,21,149,-113,-27,-137,-308,-96,23,-91,-11,-64,-60,-51,-72,-27,-205,-211,-89,-51,-74,-338,3,-91,-83,-57,45,486003
-23,8,31,18,2,18,62,-11,88,-192,-115,-139,-35,-194,12,-50,-45,-26,-36,-17,-229,-185,-58,-17,-56,-383,27,-54,-55,-14,92,486004
165,30,-44,2,15,16,237,187,4,-78,316,62,-57,-95,39,192,-67,-64,-151,227,337,27,-79,-158,332,379,-106,-142,-142,-86,-370,486005
626,99,-163,-19,71,48,770,548,-236,44,571,314,-32,155,107,674,-210,-255,-607,694,1721,407,-234,-621,1209,2370,-535,-447,-501,-394,-1303,486006
758,130,-160,-54,87,78,857,516,-309,-77,404,334,-178,253,158,834,-255,-295,-784,796,2281,527,-305,-763,1461,3214,-667,-549,-664,-512,-1440,486007
587,94,-133,-128,33,33,590,372,-191,-139,328,226,-107,105,94,731,-205,-201,-690,640,2086,484,-267,-622,1235,2956,-542,-463,-591,-424,-1091,486008
59,30,1,-135,-42,-18,-124,-215,21,-99,-98,31,78,-18,-31,230,-47,14,-239,107,780,170,-142,-135,258,1030,-85,-170,-246,-113,31,486009
-165,-6,70,-88,-56,-26,-401,-216,152,-216,-344,-86,240,33,-74,-25,38,97,52,-130,98,71,-58,112,-180,-104,125,-6,-15,82,340,486010
-99,14,51,-55,-34,-29,-291,-105,160,-119,-187,-112,249,-4,-11,13,36,63,62,-96,253,155,-31,57,-103,-46,72,-16,-40,69,197,486011
-91,9,66,-42,-26,-12,-255,107,119,30,-69,-45,102,-136,47,-13,70,81,144,-113,236,158,46,101,-135,-180,108,25,12,113,218,486012
-62,8,61,-34,-20,-6,-115,63,90,49,-1,-35,174,84,-1,-22,60,76,141,-95,256,180,36,94,-98,-192,95,19,32,121,225,486013
-20,5,28,-16,-15,-9,-15,-24,144,162,190,-82,155,-8,-71,-36,4,-3,40,-91,307,161,-31,5,-43,-126,-17,-40,-31,37,24,486014
207,38,-41,-17,14,6,244,46,55,137,298,96,-117,-39,36,212,-38,-81,-142,172,904,311,-89,-188,436,768,-206,-137,-155,-87,-486,486015
758,122,-186,-53,74,41,891,467,-268,33,437,351,-145,25,127,799,-213,-267,-657,767,2461,684,-240,-703,1538,3157,-663,-469,-548,-411,-1529,486016
855,144,-196,-97,70,46,965,520,-404,1,470,274,-7,129,209,945,-263,-284,-851,864,2870,708,-310,-843,1753,3980,-764,-605,-714,-528,-1587,486017
657,121,-139,-125,25,6,722,489,-254,149,402,242,-16,45,145,776,-250,-233,-772,667,2421,494,-319,-712,1405,3587,-638,-544,-654,-480,-1214,486018
127,66,16,-105,-50,-44,71,63,-32,155,-57,-88,62,-183,-15,271,-112,-17,-328,138,953,51,-200,-225,378,1645,-165,-250,-304,-177,-24,486019
-96,36,74,-56,-63,-51,-171,-15,230,72,8,-131,158,-240,-39,47,6,101,-25,-52,136,-130,-69,66,-81,520,107,-43,-51,53,393,486020
-90,24,69,-39,-47,-38,-121,-25,132,38,-84,-158,-51,-247,-84,46,10,72,31,-45,11,-165,-43,83,-110,362,123,-4,-10,71,343,486021
-72,23,30,-38,-42,-40,-42,-31,5,-50,-38,-314,-56,-236,-7,51,-22,26,18,-22,8,-190,-52,34,-70,381,81,-5,-23,33,193,486022
-54,26,14,-17,-44,-49,-41,-36,159,-237,-121,-132,-17,-260,-39,41,-8,29,-19,-16,-11,-189,-55,12,-60,369,57,-25,-34,26,85,486023
-52,15,16,-18,-44,-42,-101,-55,202,8,-154,-122,38,-92,-54,47,-16,17,-57,-12,-4,-164,-60,-9,-35,369,46,-54,-38,21,95,486024
141,40,-3,-19,9,-7,80,138,117,4,114,-10,26,96,65,255,-21,-14,-133,210,466,41,-53,-110,316,998,-51,-101,-78,-26,-157,486025
545,89,-105,-40,61,30,566,391,-37,19,276,104,145,115,106,622,-166,-191,-506,574,1605,334,-176,-516,1028,2632,-428,-370,-395,-304,-985,486026
789,134,-150,-69,79,57,853,439,-154,-106,570,213,28,104,125,876,-248,-274,-785,787,2446,540,-276,-786,1485,3896,-662,-565,-654,-489,-1394,486027
716,136,-139,-130,42,19,753,474,-142,-290,480,150,-130,229,68,881,-218,-215,-769,739,2538,559,-268,-746,1447,4080,-626,-552,-671,-482,-1152,486028
29,43,11,-134,-72,-68,-68,-85,-113,-236,-211,-215,-35,-69,-39,237,-50,43,-219,49,874,97,-122,-146,207,1689,-76,-169,-268,-116,160,486029
-254,9,113,-73,-77,-62,-392,-253,147,-217,-222,-199,325,-333,-148,-111,65,162,138,-262,-93,-94,-30,187,-403,174,226,66,45,139,598,486030
-160,19,105,-52,-45,-40,-214,-180,142,-25,-99,-214,207,-167,-161,-56,34,80,92,-176,97,7,-42,114,-226,322,127,25,41,111,273,486031
-122,41,90,-8,-30,-31,-138,-214,66,-145,37,-155,-17,-87,-94,17,67,88,121,-99,206,103,-5,135,-123,382,122,60,74,140,222,486032
-88,36,36,-11,-37,-63,-81,-269,-29,-10,-101,-40,12,18,-81,91,63,72,84,-21,350,181,-7,92,11,565,90,44,56,127,172,486033
-64,29,11,-49,-57,-79,-52,-76,-33,3,-70,51,-43,92,-25,112,15,27,10,29,473,179,-53,7,116,758,26,-14,-3,65,9,486034
195,58,-53,-64,-10,-42,253,199,-101,13,291,171,26,162,68,369,-54,-71,-200,306,1143,356,-110,-211,620,1739,-181,-143,-161,-87,-549,486035
1270,188,-326,-127,136,80,1493,795,-439,-96,1094,624,-216,636,232,1423,-397,-501,-1218,1371,4100,1088,-431,-1254,2639,6135,-1158,-821,-959,-760,-2712,486036
1542,242,-358,-205,146,103,1731,960,-514,-265,1098,583,-386,387,227,1714,-522,-588,-1630,1566,5107,1207,-578,-1578,3135,7886,-1448,-1084,-1318,-1043,-2927,486037
1113,212,-216,-217,65,48,1190,390,-268,-311,570,276,-167,59,167,1353,-400,-382,-1312,1117,4146,856,-499,-1182,2339,6748,-1067,-870,-1104,-815,-1833,486038
185,105,39,-157,-82,-56,40,-250,106,-63,-395,-181,135,-368,-51,435,-150,-49,-522,162,1618,124,-312,-344,554,3259,-269,-370,-501,-279,-30,486039
-198,54,140,-87,-109,-88,-399,-216,178,-39,-491,-254,177,-352,-132,43,12,130,-29,-180,314,-149,-140,110,-206,1381,147,-48,-74,85,596,486040
-139,38,121,-79,-76,-79,-305,-402,192,36,-215,-204,260,-327,-90,74,34,120,30,-107,270,-99,-82,116,-136,1275,157,-5,-8,118,430,486041
-111,28,103,-73,-66,-74,-272,-317,133,-43,-151,-218,201,-337,-88,75,14,89,-9,-76,237,-98,-89,87,-115,1212,125,-28,-6,104,308,486042
-112,35,108,-54,-51,-57,-301,-267,77,-53,48,-217,261,-148,-97,48,18,98,27,-89,134,-111,-70,104,-159,1046,144,-1,25,124,341,486043
-142,9,88,-62,-69,-77,-378,-155,-70,-46,-30,-80,342,-149,-122,19,16,90,48,-118,35,-139,-49,112,-218,882,144,9,30,126,347,486044
-16,22,67,-47,-33,-50,-188,22,-20,-84,53,-117,241,-191,-90,162,13,58,5,27,340,-9,-47,49,30,1284,82,0,10,94,22,486045
329,58,-27,-70,7,-16,305,250,-79,-52,214,-44,118,10,-23,490,-123,-107,-321,345,1294,242,-183,-310,684,2671,-247,-230,-252,-139,-708,486046
417,72,-59,-82,13,0,436,187,-158,-163,213,-67,-37,78,-14,525,-228,-195,-513,363,1592,247,-311,-491,801,3171,-406,-387,-445,-289,-837,486047
281,61,-13,-93,-13,-15,232,-108,-191,-214,100,-88,1,-140,-99,374,-196,-150,-397,201,1295,130,-275,-387,533,2769,-315,-329,-403,-244,-473,486048
-48,25,68,-70,-61,-69,-192,-94,-31,-84,-185,-211,164,-98,-92,83,-51,28,-67,-109,440,-68,-125,-46,-72,1527,-6,-98,-144,-18,173,486049
-154,19,88,-37,-74,-84,-270,-68,135,-87,-203,-171,166,58,-83,8,49,112,108,-151,101,-80,-29,140,-245,970,154,32,47,134,380,486050
-122,19,99,-12,-36,-50,-185,-51,76,-55,-143,-77,29,-35,-52,-9,10,69,65,-143,91,-61,-54,102,-200,922,116,24,47,112,261,486051
-104,14,87,-19,-31,-48,-141,-103,33,-130,-213,-159,40,-161,-104,-10,-53,15,-43,-157,95,-86,-131,10,-177,937,35,-47,-24,39,147,486052
-85,23,82,-4,-20,-44,-132,-165,69,-59,-175,-164,47,-20,-129,28,-14,45,-22,-118,120,-60,-75,15,-145,958,35,-41,-22,32,196,486053
-90,23,62,-6,-31,-47,-158,-216,22,17,-32,-100,-10,-102,-58,14,5,47,26,-115,81,-64,-45,41,-154,896,61,-10,7,46,165,486054
-55,17,58,-9,-22,-23,-139,-127,-20,-135,-248,-103,173,-173,-52,45,16,41,28,-72,131,-27,-24,40,-96,946,63,8,21,51,114,486055
-207,1,110,-11,-26,-26,-317,-198,72,-264,-109,-165,98,-157,-62,-92,91,119,171,-197,-293,-123,39,198,-364,322,208,111,149,167,517,486056
-215,-22,100,-16,-38,-41,-320,-244,96,-117,-134,-149,29,-107,-86,-115,82,99,174,-207,-376,-146,34,211,-370,159,212,114,171,178,459,486057
-174,-30,75,-20,-41,-43,-271,-259,67,-111,-96,-152,-94,29,-106,-92,66,75,165,-171,-303,-118,39,164,-287,220,177,92,156,160,426,486058
-44,-6,21,-13,-14,-31,-96,-137,-88,-66,173,-123,-41,53,-86,46,47,43,52,-21,56,-9,56,47,-31,714,60,32,82,86,115,486059
27,2,7,-23,-8,-35,2,-97,-21,-89,330,-38,102,40,9,137,33,38,-7,56,302,51,42,-20,115,1059,6,1,15,47,-52,486060
0,8,37,-31,-3,-28,-20,-62,30,-185,107,10,145,36,-13,160,70,102,74,62,292,74,77,62,104,1023,81,80,73,117,95,486061
-14,15,51,-31,-4,-11,-12,45,94,-149,54,83,14,170,-109,166,109,134,144,74,251,103,114,132,80,951,139,144,137,172,173,486062
-25,14,50,-7,1,-5,-10,-49,67,22,55,-88,-39,158,-30,96,56,84,79,11,188,50,57,66,0,865,83,72,76,104,155,486063
-8,13,42,17,5,11,-63,-20,-114,-39,9,-130,137,-70,-110,17,-21,-1,-17,-72,112,-29,-53,-17,-56,783,7,-23,-17,18,-20,486064
-134,-15,72,10,-24,-16,-247,-156,52,-41,-190,-243,-36,-53,-67,-129,4,26,88,-226,-268,-160,-40,104,-318,237,114,47,64,95,319,486065
-482,-52,166,29,-62,-48,-632,-512,239,-102,-328,-361,136,-161,-80,-468,108,155,417,-560,-1243,-414,84,432,-969,-1192,429,258,313,318,1010,486066
-679,-86,202,59,-82,-69,-837,-404,306,-104,-411,-254,221,-195,-157,-680,208,259,694,-721,-1898,-528,235,661,-1331,-2239,642,449,539,493,1361,486067
-666,-100,181,63,-69,-63,-801,-394,162,34,-384,-261,139,-318,-160,-682,213,228,686,-675,-1983,-517,235,643,-1293,-2434,629,449,576,489,1230,486068
-123,-21,51,78,15,-7,-109,15,100,101,-11,-37,-218,-64,-31,-139,108,52,313,-90,-637,-103,162,221,-246,-530,224,217,295,236,152,486069
107,9,-22,50,24,2,202,31,-38,211,38,102,-317,128,71,105,12,-36,28,125,101,41,62,-39,224,588,-13,45,67,30,-201,486070
53,0,-13,45,19,-3,120,48,-6,125,69,46,-98,116,76,12,-21,-37,-37,23,-72,-50,-21,-52,78,441,-13,0,32,-13,-87,486071
39,0,-2,35,21,6,86,163,50,35,-55,0,66,69,17,-17,-65,-57,-103,-15,-144,-96,-86,-82,4,419,-27,-40,-12,-49,-125,486072
22,-1,13,43,28,16,60,93,24,142,21,80,94,3,106,-17,-53,-47,-90,-26,-172,-107,-80,-52,-33,406,-4,-25,2,-33,-62,486073
-2,7,11,31,10,-8,17,213,-48,166,0,70,106,-30,97,15,-4,7,-18,-3,-187,-82,-18,13,-23,391,60,34,54,19,86,486074
-164,-12,49,12,-25,-41,-210,-30,-68,-9,-236,6,-128,-28,-92,-136,29,63,91,-165,-561,-196,22,132,-317,-177,195,94,127,93,435,486075
-925,-119,245,50,-111,-98,-1149,-694,236,-127,-700,-280,12,-125,-245,-900,258,368,799,-938,-2676,-762,236,857,-1787,-3312,869,548,659,557,1910,486076
-1090,-164,259,91,-114,-106,-1330,-991,324,20,-642,-319,227,-180,-208,-1105,344,418,1106,-1080,-3336,-849,377,1069,-2110,-4492,1021,736,900,722,2049,486077
-807,-143,178,95,-65,-50,-996,-501,298,1,-574,-277,98,-152,-175,-823,348,372,1009,-752,-2706,-559,425,898,-1555,-3845,841,702,859,660,1419,486078
-153,-71,0,68,26,16,-168,5,100,-94,-80,49,-77,110,-28,-180,184,116,408,-67,-904,-14,262,292,-307,-1394,261,332,432,284,92,486079
142,-40,-83,2,49,28,184,33,-144,-35,191,153,-137,333,31,116,53,-52,30,192,104,207,131,-58,272,35,-58,85,107,27,-399,486080
114,-13,-67,9,41,18,126,29,-120,-3,157,220,-32,225,87,67,18,-60,-23,113,134,182,78,-74,197,68,-68,40,53,-2,-312,486081
93,-7,-45,29,40,21,35,6,-22,149,153,187,7,-8,49,11,-10,-66,-55,42,88,144,17,-83,104,17,-77,-11,16,-23,-213,486082
108,-5,-46,6,32,15,-15,85,-100,242,210,81,-98,42,19,38,-29,-80,-64,48,188,155,-13,-92,138,159,-96,-37,-21,-29,-269,486083
73,-8,-43,-26,11,4,-73,199,-112,75,80,222,-93,209,-9,26,-20,-69,-57,40,221,140,-14,-98,142,220,-94,-26,-14,-26,-273,486084
-110,-42,13,-43,-14,-1,-301,-33,-91,69,-213,28,-68,52,-20,-156,-3,-6,43,-156,-234,-25,9,26,-176,-402,20,46,55,39,102,486085
-606,-108,123,-18,-79,-56,-809,-458,125,118,-392,-257,34,-200,-73,-640,177,211,546,-642,-1665,-402,207,550,-1104,-2483,488,395,451,362,1100,486086
-766,-128,144,49,-92,-69,-875,-602,211,147,-356,-300,61,-145,-109,-787,281,295,809,-746,-2265,-522,352,766,-1396,-3418,693,568,666,537,1362,486087
-664,-115,135,112,-35,-23,-668,-464,151,140,-341,-245,2,117,-94,-743,267,252,804,-655,-2229,-495,370,719,-1264,-3426,658,564,667,526,1162,486088
-108,-44,-6,121,53,36,83,-82,10,70,-71,27,-133,225,7,-244,100,19,325,-93,-888,-143,203,205,-252,-1480,174,251,331,197,-65,486089
197,12,-90,92,72,46,471,126,-172,-2,185,164,-164,290,72,75,-6,-86,-62,229,22,37,80,-127,326,-33,-115,12,39,-57,-463,486090
122,3,-75,71,46,24,333,-16,-146,-299,253,179,-140,206,50,40,7,-44,-70,166,-130,-62,78,-75,192,-94,-61,16,34,-44,-207,486091
121,-3,-81,19,24,5,267,-115,-121,-80,185,155,25,241,-34,60,-18,-64,-113,181,-110,-87,50,-102,209,46,-85,-23,-2,-79,-266,486092
125,-5,-63,-2,27,19,182,105,-42,-33,63,103,152,27,-16,71,-46,-88,-159,173,-78,-109,-9,-124,212,142,-105,-41,-42,-118,-305,486093
137,1,-35,-6,38,41,148,237,96,52,-109,155,68,182,92,80,-70,-81,-185,166,-42,-96,-45,-146,212,223,-111,-75,-67,-134,-180,486094
-134,-44,30,-3,-2,10,-186,36,116,113,-152,-27,90,117,28,-224,-25,-4,14,-157,-742,-306,-14,58,-338,-782,89,24,50,-14,423,486095
-768,-137,174,58,-81,-64,-883,-494,286,189,-365,-406,242,-224,-101,-861,191,237,658,-817,-2494,-715,180,686,-1546,-3454,653,452,532,399,1556,486096
-887,-140,193,138,-72,-57,-914,-493,300,140,-611,-344,81,-340,-156,-996,262,282,865,-900,-2949,-732,266,857,-1773,-4356,781,601,728,549,1616,486097
-639,-109,113,151,-17,-18,-586,-443,107,128,-562,-179,65,-161,-110,-802,184,148,639,-656,-2351,-510,221,611,-1325,-3709,548,455,579,408,1007,486098
-54,-45,-36,108,75,45,74,-138,-36,66,101,124,32,226,-12,-272,-18,-101,143,-111,-786,-70,59,60,-260,-1578,22,105,170,51,-202,486099
237,1,-86,77,89,72,403,92,-138,-7,332,126,111,98,61,23,-137,-210,-177,129,184,145,-74,-262,283,-217,-265,-120,-122,-187,-635,486100
198,2,-98,48,56,43,359,216,-127,-1,303,134,-155,65,64,39,-114,-171,-197,107,296,173,-84,-246,292,-50,-272,-121,-144,-186,-616,486101
140,-7,-68,50,46,34,282,202,13,67,160,237,-74,97,51,23,-61,-102,-130,65,246,170,-45,-162,223,-133,-209,-77,-94,-124,-432,486102
135,1,-33,34,59,47,272,178,-56,202,88,151,-42,49,62,38,-35,-60,-95,70,252,180,-9,-116,212,-152,-163,-51,-60,-82,-285,486103
154,22,-28,39,68,58,329,-117,4,-15,140,70,-229,-123,65,80,6,-13,-47,99,266,211,24,-66,196,-125,-120,-11,-22,-37,-139,486104
-15,1,-29,31,12,15,153,-162,-6,-47,-34,-41,-95,-28,-49,-64,23,19,58,-51,-99,75,52,30,-88,-598,-19,46,39,18,93,486105
-309,-37,48,42,-25,-17,-277,-40,-54,-70,-411,-70,-28,-201,-18,-362,148,152,352,-318,-909,-154,183,325,-597,-1772,269,252,265,222,671,486106
-385,-50,74,50,-22,-11,-423,-50,73,96,-171,-18,-31,-258,-44,-421,230,215,478,-325,-1206,-184,249,478,-683,-2242,412,374,440,349,772,486107
-327,-55,54,61,-16,-9,-362,6,228,168,-130,2,68,-51,40,-395,190,150,404,-273,-1162,-187,216,421,-580,-2164,356,341,414,299,662,486108
-16,-21,-20,51,34,25,21,22,18,171,342,203,-237,65,58,-124,64,-13,103,11,-425,-51,128,73,-35,-1035,51,123,147,71,76,486109
157,3,-53,26,56,44,195,78,-106,233,202,258,-130,-145,86,8,-61,-126,-171,142,3,-33,-4,-176,254,-252,-161,-86,-80,-123,-341,486110
121,-14,-51,12,31,47,95,101,-46,194,69,101,-19,-171,97,-22,-80,-122,-203,103,-116,-121,-35,-174,163,-267,-149,-111,-107,-157,-215,486111
110,-5,-28,23,50,64,80,211,2,162,32,26,-25,-73,36,-7,-30,-60,-96,112,-178,-127,37,-99,123,-305,-89,-39,-45,-110,-20,486112
121,0,-29,20,47,45,150,88,-80,-77,215,81,117,-70,72,15,-29,-47,-87,133,-118,-111,56,-99,158,-190,-92,-32,-52,-113,-161,486113
97,2,-36,36,30,33,155,80,-16,-72,264,11,111,-10,49,14,-23,-44,-86,107,-146,-100,47,-70,100,-231,-61,-23,-35,-99,-151,486114
30,11,-3,53,35,42,64,53,48,118,42,-137,70,204,37,-45,1,-17,-25,30,-307,-125,36,-11,-65,-508,-16,10,14,-53,-10,486115
-331,-48,87,44,-30,-1,-393,-101,132,285,-465,-176,88,-62,-23,-406,94,101,290,-354,-1255,-351,122,308,-751,-1935,270,205,241,143,677,486116
-426,-53,105,66,-28,-1,-476,-71,162,235,-265,-152,221,-86,27,-487,142,150,460,-421,-1541,-354,182,443,-912,-2490,398,317,377,271,781,486117
-301,-37,65,91,12,13,-303,-128,82,224,-175,-68,16,172,30,-376,129,116,412,-296,-1230,-218,161,373,-677,-2200,325,284,348,248,494,486118
-40,-16,-26,53,25,16,28,44,-42,17,289,53,-22,267,2,-128,67,15,190,-41,-466,15,125,125,-150,-1221,84,140,165,90,63,486119
122,3,-69,24,36,35,198,82,-105,-120,228,200,-23,110,76,31,19,-30,-10,114,94,162,91,-54,190,-460,-87,18,12,-32,-188,486120
116,6,-68,23,36,43,128,102,-61,-165,163,172,-142,190,78,8,-30,-68,-87,72,140,129,29,-110,163,-382,-139,-50,-69,-88,-193,486121
112,26,-63,23,30,43,120,127,-91,-112,110,133,-87,154,86,0,-25,-66,-62,60,192,125,38,-94,187,-324,-118,-33,-81,-75,-219,486122
83,7,-66,-8,10,21,129,59,-129,-84,-13,108,-109,129,55,21,22,-31,-15,78,245,147,74,-47,232,-272,-78,18,-33,-30,-169,486123
91,17,-37,8,41,34,215,-36,97,121,-299,94,-118,131,105,71,94,50,58,124,280,198,135,24,245,-255,-4,83,42,38,-67,486124
115,23,-61,29,35,37,293,-175,-82,177,-344,169,-15,-13,56,18,-4,-37,-47,74,278,126,46,-98,176,-199,-134,-33,-85,-75,-177,486125
152,36,-61,35,33,35,285,113,-131,8,72,55,-44,-35,32,35,-74,-104,-158,86,364,106,-46,-188,204,-2,-223,-125,-172,-153,-296,486126
128,37,-50,23,20,24,203,40,-95,58,-36,55,-79,186,38,69,-76,-100,-165,100,347,93,-74,-163,215,43,-200,-123,-141,-137,-340,486127
196,68,-47,34,42,33,262,291,-37,153,136,203,54,209,71,162,-76,-88,-191,185,492,153,-75,-178,359,336,-215,-126,-142,-135,-453,486128
105,47,-27,11,31,35,125,74,-55,-110,172,135,54,25,19,95,-60,-45,-161,112,275,68,-73,-116,233,121,-146,-110,-96,-102,-138,486129
42,12,-17,-17,18,18,-2,-56,-119,-130,4,16,157,-203,-37,22,-40,-12,-112,54,22,-22,-40,-55,97,-153,-80,-68,-38,-80,-8,486130
66,19,4,2,21,33,1,76,-55,-1,-59,-65,10,-105,3,55,16,25,-46,104,2,-28,28,-5,93,-120,-32,-22,-2,-45,22,486131
41,25,0,19,17,35,-1,14,-19,59,-85,88,-1,165,84,46,62,53,37,116,-40,-29,88,47,59,-163,25,35,46,1,49,486132
1,25,-29,-4,-10,3,0,-63,-8,-25,-10,81,-2,31,71,40,60,60,44,104,-100,-34,68,64,39,-216,45,70,79,24,16,486133
-30,25,-5,13,-2,-1,-19,-156,-43,-24,-20,28,81,-67,-46,9,67,84,50,75,-185,-50,58,89,-11,-350,65,89,101,43,125,486134
239,59,-71,19,39,17,368,200,-90,-11,410,145,-93,80,76,288,-5,-23,-181,358,554,180,-4,-157,523,692,-180,-58,-67,-107,-541,486135
821,125,-232,-57,81,60,1033,432,-298,-50,614,423,-173,200,195,868,-204,-296,-746,921,2288,634,-193,-740,1641,3191,-732,-448,-525,-501,-1683,486136
994,167,-248,-104,91,68,1158,612,-197,-60,488,319,-182,248,161,1055,-300,-379,-994,1041,3000,758,-305,-967,1970,4311,-921,-638,-785,-677,-1911,486137
852,150,-193,-118,63,48,938,726,-277,-81,476,253,-206,119,151,923,-315,-358,-983,835,2827,643,-363,-909,1702,4149,-871,-643,-806,-669,-1563,486138
209,71,-3,-103,-16,-8,100,268,-28,23,8,89,84,-192,76,291,-127,-81,-375,138,1120,173,-209,-268,438,1712,-278,-258,-376,-264,-286,486139
-194,27,99,-43,-57,-27,-337,71,84,24,-414,-120,131,-335,-131,-142,11,86,99,-268,-144,-130,-60,161,-358,-163,109,33,0,44,470,486140
-132,27,67,-5,-33,-13,-199,0,37,-70,-262,-240,161,-231,-153,-156,-4,39,72,-249,-176,-129,-55,99,-317,-278,47,-4,-15,24,331,486141
-75,28,48,4,-19,-11,-118,-69,28,-1,-138,-198,103,-165,-106,-111,6,28,55,-195,-93,-85,-26,71,-230,-243,6,-3,-17,19,214,486142
-72,23,42,15,-22,-10,-78,-50,-21,-102,-202,-97,-93,-129,-3,-83,14,27,92,-164,-76,-57,1,76,-173,-255,17,33,12,40,217,486143
-84,6,25,-6,-26,-21,-45,-141,-40,43,-121,-105,-203,-45,4,-64,25,25,73,-132,-40,-30,16,73,-121,-238,13,43,17,36,189,486144
179,43,-27,-14,23,10,269,172,-90,-41,287,115,-66,205,42,241,15,-10,-110,205,676,220,-9,-105,433,771,-152,-56,-74,-53,-326,486145
868,129,-203,-70,101,63,1061,586,-292,24,605,417,-203,510,202,961,-198,-259,-770,919,2633,748,-232,-750,1752,3686,-743,-480,-559,-475,-1683,486146
1100,179,-263,-113,108,57,1283,804,-304,27,627,474,-186,394,187,1221,-330,-372,-1105,1123,3484,880,-398,-1041,2181,5095,-1011,-708,-866,-707,-2055,486147
1047,202,-227,-127,78,34,1159,595,-399,-109,679,365,-59,280,173,1187,-340,-341,-1128,1042,3502,811,-443,-1021,2057,5311,-985,-748,-919,-726,-1705,486148
184,83,3,-127,-51,-46,51,22,-58,-90,-121,-97,134,-129,14,352,-148,-37,-467,142,1272,135,-296,-293,414,2271,-289,-339,-418,-295,37,486149
-285,5,112,-82,-96,-82,-496,20,193,-36,-439,-374,238,-69,-226,-116,44,150,114,-264,-187,-203,-91,220,-459,171,166,25,31,89,690,486150
-211,10,82,-59,-73,-54,-338,-60,128,81,-201,-279,207,-230,-142,-32,63,118,173,-132,-115,-133,-1,192,-298,245,144,63,75,99,500,486151
-176,9,66,-33,-70,-51,-289,-256,129,-54,-337,-131,-80,-328,-68,-51,54,93,140,-109,-146,-131,-5,158,-264,196,104,45,79,75,403,486152
-140,0,50,-38,-67,-56,-246,-144,141,-199,-198,-200,-186,-243,-91,-62,-6,32,41,-99,-134,-143,-68,74,-225,228,30,-24,14,7,286,486153
-101,6,24,-44,-53,-57,-138,-186,-24,-155,-270,-182,-178,-158,-93,-29,-22,-5,-31,-61,-22,-111,-90,13,-132,383,-31,-49,-26,-36,148,486154
44,37,-13,-29,-28,-41,80,-24,-51,-177,-249,1,41,22,-11,119,-63,-49,-117,86,352,21,-117,-93,136,895,-151,-97,-102,-99,-227,486155
940,162,-210,-61,99,66,1135,656,-248,-18,409,336,-87,530,209,1006,-305,-368,-866,972,2800,698,-313,-892,1802,4427,-896,-608,-696,-601,-1939,486156
1151,176,-255,-144,98,59,1271,815,-300,-24,606,363,-184,292,190,1242,-395,-446,-1195,1112,3654,817,-439,-1171,2189,5800,-1117,-831,-1004,-816,-2083,486157
796,139,-157,-163,30,17,799,501,-181,-79,384,225,-59,64,69,914,-316,-309,-964,698,2866,544,-418,-882,1512,4807,-835,-688,-848,-647,-1324,486158
106,81,19,-115,-69,-70,0,74,18,-119,-150,-162,-87,-230,-37,285,-78,8,-323,24,1077,66,-190,-210,242,2238,-206,-249,-345,-201,7,486159
-197,57,109,-40,-81,-82,-354,-54,181,-97,-352,-178,-7,-143,-24,-18,73,161,91,-236,84,-125,-15,165,-333,752,121,14,-9,81,528,486160
-176,20,108,-53,-65,-59,-373,-160,100,77,-413,-242,57,21,-43,-18,70,137,144,-216,2,-114,7,167,-315,574,119,40,29,93,443,486161
-151,11,95,-64,-58,-49,-294,-226,3,17,-250,-150,97,45,-81,-1,80,129,162,-183,-2,-83,23,180,-263,510,138,84,80,126,415,486162
-152,4,75,-32,-54,-37,-187,-179,69,-122,-202,-97,54,-108,-44,-28,25,83,134,-205,-77,-106,-50,155,-275,394,124,74,72,100,306,486163
-124,23,81,-3,-33,-26,-118,94,109,-83,-67,-155,181,-121,43,-44,-18,40,48,-202,-92,-117,-117,103,-232,371,53,6,26,40,138,486164
-77,29,67,-16,-31,-28,-71,183,149,-60,-24,-63,254,-164,39,34,34,68,55,-105,47,-27,-38,116,-84,524,66,31,57,69,133,486165
113,52,30,-10,12,5,119,123,-2,42,114,53,97,202,35,262,36,42,-47,136,555,153,-33,-8,302,1239,-43,-24,-5,8,-113,486166
256,67,3,-18,38,14,230,225,-159,-15,88,-15,143,51,56,340,-82,-76,-241,218,925,198,-141,-215,509,1834,-243,-172,-195,-162,-356,486167
192,50,14,-37,10,0,104,12,-54,32,-82,30,76,-163,31,233,-101,-93,-257,111,753,100,-153,-216,284,1658,-247,-214,-235,-182,-312,486168
-84,10,53,-44,-52,-45,-223,-76,94,65,-61,-91,298,-306,-67,-9,-12,29,-22,-129,63,-92,-42,42,-226,686,-1,-64,-57,-16,152,486169
-198,4,59,-21,-56,-62,-310,-56,174,-28,3,-152,151,-155,-63,-88,49,79,162,-183,-234,-134,37,182,-366,236,126,70,80,90,360,486170
-163,28,59,0,-35,-48,-196,-87,1,73,37,-7,-24,51,-96,-17,46,79,168,-71,-96,-25,29,182,-174,373,116,120,133,103,263,486171
-147,12,69,4,-28,-31,-225,-167,1,-77,107,-24,-44,-81,-18,-30,38,86,144,-66,-133,-15,-8,178,-174,311,118,113,154,106,274,486172
-74,16,68,9,-6,2,-258,-126,32,-10,10,-159,-175,-72,-88,-32,3,40,73,-51,-87,-26,-50,98,-159,392,40,28,94,42,146,486173
-70,9,77,-1,1,9,-351,-143,-34,-117,83,-178,-138,-61,-112,-70,-5,21,72,-97,-166,-84,-48,92,-215,274,31,20,67,22,174,486174
-151,-14,64,-13,-31,-19,-404,-195,17,-138,-4,-110,-64,-140,-87,-90,38,82,165,-130,-295,-94,17,177,-285,55,110,81,130,87,283,486175
-204,6,93,28,-21,-9,-300,-217,46,-176,-101,-22,105,-227,-92,-117,105,179,272,-160,-488,-109,91,283,-388,-263,218,157,230,186,495,486176
-230,-17,89,29,-22,-11,-178,-255,-12,-207,-66,-70,168,42,-84,-148,119,181,282,-202,-605,-130,127,282,-437,-445,233,162,237,189,456,486177
-226,-9,88,39,-25,0,-171,-256,151,-242,-88,-123,115,164,-11,-184,104,146,289,-241,-668,-165,143,266,-476,-553,214,145,217,171,503,486178
-120,-5,55,29,-5,17,-87,-112,118,-115,-147,8,-97,24,70,-77,63,74,194,-133,-398,-90,87,170,-278,-199,119,103,163,120,172,486179
-42,-10,14,5,-3,7,3,-92,58,-44,-308,-4,-181,30,-29,33,50,42,109,-29,-121,-12,74,110,-99,189,49,70,100,75,32,486180
-33,11,37,17,9,18,-5,-211,21,12,-290,35,92,85,-20,17,70,88,136,-44,-134,-10,97,147,-106,142,85,87,117,98,170,486181
-1,0,28,14,14,34,-3,-6,25,-115,-221,-79,45,-19,-15,-31,-7,8,14,-79,-93,-52,9,21,-108,218,-17,-10,13,-3,16,486182
9,6,36,20,31,44,-65,-157,59,-196,-123,-86,295,-116,-25,-74,-52,-53,-39,-127,-128,-93,-35,-40,-158,192,-76,-63,-52,-61,56,486183
-30,-2,37,20,9,20,-127,126,7,-23,353,-120,243,-113,20,-89,-40,-58,4,-145,-191,-107,-4,-2,-169,123,-42,-30,-13,-32,49,486184
-130,-8,56,18,-23,-17,-228,31,186,45,316,-87,-99,-133,-54,-122,41,41,122,-183,-386,-116,52,149,-257,-194,114,92,115,88,341,486185
-354,-35,112,21,-42,-30,-477,-317,393,54,-262,-99,-8,-133,-110,-345,111,128,331,-406,-1025,-267,100,367,-675,-1157,316,238,293,235,801,486186
-472,-72,148,40,-47,-27,-610,-321,246,46,-423,-143,143,-137,-130,-507,142,171,487,-540,-1481,-372,160,493,-938,-1870,424,332,399,310,873,486187
-500,-88,144,49,-37,-17,-615,-310,192,73,-373,-115,74,-192,-94,-554,158,181,523,-555,-1671,-397,174,531,-1015,-2210,443,356,460,347,890,486188
-155,-46,33,56,8,7,-158,-22,161,137,-219,-43,151,-76,16,-214,65,45,250,-157,-775,-113,92,225,-355,-985,142,168,259,161,-8,486189
24,-21,-15,23,13,15,65,-61,146,-138,203,8,-128,156,62,-23,-4,-35,61,29,-177,37,57,29,-16,-137,-31,56,79,4,-159,486190
6,-16,-23,-8,-5,-5,82,-18,53,58,133,137,-63,219,15,5,-2,-31,62,55,-67,62,65,27,31,20,-26,61,55,-2,-187,486191
-51,-24,-15,-33,-22,-24,27,11,-12,145,49,135,-129,96,9,-45,-21,-47,25,7,-129,4,12,21,-45,-46,-31,25,20,-9,-127,486192
-98,-30,9,-10,-21,-10,-51,37,15,223,-78,1,-219,236,-23,-95,21,-12,109,-35,-262,-37,59,85,-150,-256,35,59,73,43,134,486193
-54,-4,15,27,6,12,2,-19,41,60,-144,16,-80,150,-18,-82,23,-3,152,-12,-237,-22,88,88,-106,-219,32,71,77,37,56,486194
-120,-22,29,43,5,4,-67,-169,41,16,-113,57,-2,-236,-84,-214,1,-11,138,-164,-496,-134,45,111,-305,-576,57,62,66,31,262,486195
-677,-89,178,82,-60,-50,-792,-424,289,30,-420,-350,23,-337,-246,-783,178,235,623,-740,-2086,-550,180,644,-1390,-2923,573,398,474,388,1446,486196
-910,-144,204,100,-92,-74,-1074,-766,175,64,-541,-346,16,-317,-241,-1007,256,316,906,-933,-2869,-686,256,898,-1801,-4154,791,588,728,577,1739,486197
-721,-133,162,98,-33,-23,-850,-661,201,-3,-367,-258,381,-433,-147,-851,222,237,817,-746,-2579,-565,261,771,-1498,-3838,665,541,683,518,1226,486198
-119,-62,40,80,77,94,-154,-51,12,85,-91,-14,184,-187,13,-314,41,0,310,-181,-1102,-172,122,227,-421,-1768,164,200,305,168,142,486199
194,-18,-34,54,93,121,230,268,-68,122,338,44,-99,39,61,17,-85,-140,-90,113,-99,38,-23,-129,194,-294,-148,-54,-22,-98,-448,486200
116,-12,-24,58,51,73,172,222,-67,144,437,62,-77,-32,114,31,-44,-82,-52,81,-110,29,-14,-60,144,-269,-71,-10,8,-50,-278,486201
63,-6,-42,40,35,21,123,2,-23,179,170,134,-58,81,121,45,-14,-19,-31,81,-95,47,-2,-16,144,-219,-26,19,51,-16,-138,486202
52,-1,-51,19,20,-10,92,-56,40,177,191,266,-118,284,50,88,54,58,-1,119,-41,100,65,45,177,-130,35,63,83,34,-66,486203
48,0,-45,19,12,0,41,-11,-26,70,42,197,-46,138,6,47,21,19,-16,73,-92,36,44,-4,96,-159,4,10,30,-7,-82,486204
-104,-25,25,30,7,16,-178,21,78,57,-248,-33,4,-18,21,-154,18,25,85,-139,-550,-137,55,88,-256,-782,87,57,69,29,201,486205
-572,-87,151,60,-37,-14,-735,-321,198,25,-488,-249,54,-231,-160,-658,179,209,543,-622,-1889,-484,227,548,-1160,-2767,506,354,421,328,1135,486206
-781,-126,179,82,-68,-36,-926,-574,273,122,-398,-259,108,-346,-110,-873,291,300,813,-797,-2578,-600,358,802,-1533,-3890,737,550,657,524,1508,486207
-755,-139,149,99,-54,-32,-844,-461,241,2,-289,-274,-85,-430,-41,-843,304,302,852,-715,-2592,-544,388,813,-1438,-4060,755,597,725,560,1327,486208
-174,-68,-9,104,39,29,-103,12,50,107,163,61,-57,112,122,-304,172,86,423,-101,-1098,-82,265,329,-336,-2056,294,338,401,271,60,486209
199,-11,-81,86,81,74,336,100,-183,101,329,238,-74,156,266,38,-6,-102,-36,203,11,166,75,-104,323,-471,-113,18,14,-51,-522,486210
190,5,-73,69,74,68,297,58,-59,-33,63,287,-6,149,117,10,-63,-131,-108,153,68,130,-4,-152,259,-369,-150,-62,-79,-110,-454,486211
163,-2,-76,46,60,34,273,145,-95,-70,110,181,201,17,45,10,-73,-121,-126,131,118,132,-27,-149,236,-287,-157,-100,-113,-121,-364,486212
104,-12,-50,38,55,27,247,8,-125,226,113,131,141,-5,7,-13,-29,-76,-64,97,51,114,23,-94,163,-396,-103,-66,-77,-71,-247,486213
197,4,-56,31,65,52,357,271,-68,186,232,157,159,45,115,86,-20,-80,-69,198,293,181,43,-135,303,-64,-139,-84,-96,-79,-355,486214
-84,-28,27,32,13,31,-71,-34,-33,108,33,-93,208,45,11,-204,41,28,139,-131,-454,-76,93,110,-258,-1086,103,57,59,52,406,486215
-796,-132,182,65,-87,-61,-984,-461,281,127,-341,-394,176,-290,-102,-899,247,291,768,-833,-2428,-600,267,768,-1563,-3943,717,513,567,479,1635,486216
-938,-148,215,119,-84,-50,-1140,-428,331,53,-358,-268,209,-199,-150,-1063,348,382,1031,-924,-3082,-679,384,1014,-1847,-5005,920,719,837,678,1801,486217
-714,-127,136,135,-38,-26,-776,-479,213,227,-191,-98,102,-1,-83,-837,307,300,885,-646,-2603,-492,369,841,-1390,-4398,756,629,766,589,1221,486218
-101,-52,-43,125,43,33,44,-11,25,220,225,138,4,160,37,-232,120,41,338,-9,-956,-44,214,250,-191,-2027,211,271,355,214,47,486219
244,-13,-151,53,66,49,454,105,-112,180,346,313,-89,266,112,96,-41,-152,-124,294,139,169,33,-180,471,-363,-175,-20,-27,-100,-598,486220
191,-19,-126,18,51,34,346,183,-90,165,312,201,-53,15,63,62,-60,-150,-170,212,143,104,7,-194,362,-262,-173,-64,-86,-147,-532,486221
108,-33,-93,-1,25,28,210,22,-118,176,89,124,-178,101,30,12,-52,-125,-131,143,26,59,18,-143,218,-359,-123,-70,-84,-133,-433,486222
114,-2,-82,4,24,29,189,269,-112,104,182,190,-172,36,14,51,0,-74,-94,186,99,101,67,-110,224,-228,-89,-41,-65,-95,-359,486223
113,12,-72,13,27,11,161,239,-14,41,-93,139,1,163,18,62,4,-33,-45,187,97,109,68,-74,202,-183,-42,-15,-37,-59,-204,486224
45,4,-44,22,24,15,31,-51,-8,-81,-323,22,-98,211,20,-53,-27,-37,-24,59,-151,11,-1,-29,3,-502,7,-22,-29,-40,-38,486225
-349,-52,43,36,-35,-21,-415,-490,8,-146,-293,-112,-48,-154,-29,-438,60,84,292,-349,-1194,-287,65,297,-733,-2031,309,174,195,172,654,486226
-486,-94,57,41,-56,-23,-545,-393,86,67,-350,-134,-113,-115,-99,-566,120,145,473,-457,-1644,-375,132,449,-981,-2770,447,286,351,292,861,486227
-409,-97,31,36,-32,-1,-435,-182,133,-64,-194,-68,-80,16,-114,-503,116,116,463,-370,-1506,-313,139,404,-782,-2683,394,307,360,277,530,486228
-16,-38,-49,45,42,56,40,-83,-130,-141,59,125,-182,128,2,-129,44,-15,155,26,-499,5,67,87,-27,-1345,80,152,153,79,-113,486229
196,-10,-76,30,67,78,264,5,-153,81,202,294,-145,115,137,79,-23,-86,-94,205,154,165,34,-141,349,-470,-113,-17,-36,-75,-425,486230
196,-7,-92,23,50,41,232,125,-43,-124,113,208,-160,203,124,68,-21,-78,-131,171,213,150,38,-159,300,-420,-133,-85,-103,-87,-417,486231
185,5,-95,25,39,5,229,258,-51,-67,136,109,-34,251,78,126,2,-45,-76,198,300,184,59,-111,344,-340,-84,-42,-81,-56,-321,486232
153,18,-89,14,26,-11,238,362,-113,-9,42,199,42,60,92,173,27,-4,-14,222,355,224,81,-55,368,-286,-29,24,-23,1,-267,486233
125,0,-68,1,21,6,179,198,-41,34,205,200,75,166,91,148,28,12,-11,187,298,199,82,-39,276,-350,-18,5,-31,12,-269,486234
87,-19,-40,-24,19,28,92,-13,91,117,203,133,24,174,56,98,36,18,-15,138,190,140,78,-42,183,-457,-2,-14,-42,15,-162,486235
-128,-48,7,-20,-14,11,-155,-51,62,151,-66,32,-28,-153,34,-128,68,58,128,-86,-388,-50,105,116,-206,-1233,148,96,76,96,245,486236
-183,-29,30,36,-2,21,-182,11,106,106,-104,-15,-106,-199,63,-239,49,26,177,-161,-639,-128,73,159,-335,-1560,174,122,123,115,273,486237
-117,-24,9,32,1,17,-105,148,-31,105,-5,-59,-112,17,8,-175,28,10,130,-76,-491,-92,48,99,-208,-1309,116,92,85,69,152,486238
-1,-6,-27,20,8,15,40,92,-41,6,261,132,-35,195,-17,-31,12,4,17,72,-153,26,25,-3,30,-747,25,29,17,11,-55,486239
92,2,-50,0,26,26,132,-69,-63,-70,269,82,-4,143,20,36,-20,-35,-94,143,100,82,-15,-100,192,-321,-52,-31,-51,-63,-223,486240
96,-2,-51,-11,34,30,134,243,-120,-157,44,119,-82,-39,59,22,-25,-51,-94,139,123,78,-6,-93,209,-220,-42,-13,-62,-70,-186,486241
71,-4,-54,-18,14,10,134,232,-107,-79,184,20,-192,97,82,55,9,-22,-47,153,125,98,33,-55,208,-163,-10,0,-33,-41,-83,486242
46,4,-42,-8,1,-5,123,163,-82,36,185,0,-58,242,14,42,28,4,-34,135,91,72,65,-40,181,-181,-2,7,-24,-29,-104,486243
36,-6,-49,-14,-6,4,96,-17,-67,-106,-80,171,-156,168,-56,28,21,-2,-39,125,100,64,74,-45,174,-167,4,12,-26,-30,-61,486244
72,-4,-38,-14,20,26,104,-11,-76,29,214,119,-193,97,-34,21,-44,-65,-139,116,151,48,-19,-122,177,-75,-72,-69,-82,-90,-218,486245
173,-4,-72,-41,28,41,184,155,-95,-76,200,48,-39,-141,-45,63,-147,-165,-317,138,361,46,-140,-283,295,278,-235,-222,-235,-217,-499,486246
163,9,-76,-24,19,32,206,106,-16,-45,131,105,27,-157,11,89,-110,-112,-262,157,400,82,-108,-231,293,318,-193,-185,-206,-175,-416,486247
156,24,-85,-22,6,8,249,126,-22,121,89,34,4,27,40,161,-63,-53,-194,208,512,150,-53,-193,354,415,-139,-145,-168,-127,-332,486248
109,33,-41,-22,9,11,175,132,-4,-41,25,-22,-168,52,-19,121,-41,-27,-122,136,378,108,-41,-142,235,198,-87,-112,-136,-87,-184,486249
81,28,0,3,17,29,97,71,-102,17,-14,40,-68,34,-21,78,-4,19,-1,81,221,84,-23,-50,136,-106,0,-26,-59,-2,-107,486250
76,12,4,-10,17,29,50,45,-1,-32,74,-78,-11,13,59,70,31,39,31,66,191,85,9,-17,120,-239,16,4,-31,37,-59,486251
139,10,-26,-10,23,37,162,-38,-64,66,52,59,140,83,14,132,9,0,-49,124,377,130,10,-99,234,-43,-69,-41,-97,-22,-192,486252
73,17,-6,1,17,40,190,1,-91,-8,-70,105,201,91,31,74,0,4,-28,62,264,87,14,-72,141,-232,-36,-16,-84,-3,-94,486253
39,7,-27,1,3,10,233,-63,11,-22,-45,50,-16,136,-16,53,-13,-7,-53,47,234,81,-21,-77,116,-277,-46,-32,-86,-7,-153,486254
200,40,-71,-16,15,13,418,85,-65,-143,-9,113,-250,64,-10,233,-36,-50,-189,244,697,214,-55,-219,447,404,-172,-111,-165,-86,-465,486255
460,66,-128,-55,49,42,583,228,-236,-204,97,138,-226,220,131,468,-152,-188,-483,474,1429,371,-173,-501,915,1583,-426,-329,-404,-294,-1022,486256
510,75,-127,-88,43,41,467,298,-112,-82,252,203,-93,226,127,511,-188,-207,-558,500,1632,392,-230,-566,993,2005,-484,-388,-477,-361,-1019,486257
389,62,-102,-91,11,5,304,351,-139,67,208,219,-153,144,62,410,-178,-165,-477,392,1396,296,-228,-486,794,1808,-391,-331,-422,-326,-729,486258
57,26,-23,-69,-47,-52,-33,-32,-39,49,78,-33,-61,131,28,93,-79,-32,-223,64,514,48,-151,-177,194,672,-101,-159,-213,-134,-7,486259
-105,-2,24,-30,-46,-67,-128,-51,65,97,44,-38,173,80,29,-44,14,89,7,-64,-34,-38,-60,49,-104,-74,110,2,5,45,267,486260
-82,-5,7,-8,-39,-58,-44,-2,132,-27,63,-94,13,52,-65,-35,-12,34,10,-45,-46,-34,-79,35,-80,-64,81,-1,12,32,142,486261
-77,7,5,0,-36,-44,-45,-74,52,-83,-27,-96,-38,-65,-13,-85,-42,-53,-10,-80,-96,-91,-70,-11,-115,-106,35,-26,-37,-25,70,486262
-83,-25,-14,-27,-53,-48,-67,-54,-64,-16,-122,-145,-208,-49,2,-86,-36,-68,-16,-81,-98,-101,-34,-31,-123,-129,16,-38,-48,-39,-45,486263
-65,-13,-3,-30,-30,-42,-56,-212,13,-30,23,2,-116,-156,54,-25,23,-1,4,-22,-27,-30,-12,18,-60,-75,46,-2,4,3,29,486264
9,-5,-13,-30,-13,-25,39,32,-139,15,152,69,92,-79,80,62,25,-8,-30,69,172,41,-9,-32,83,199,13,-19,-21,-7,-117,486265
290,29,-94,-38,4,-1,413,245,-174,1,269,190,-46,288,125,359,-48,-98,-255,369,969,255,-41,-290,615,1362,-217,-175,-212,-164,-687,486266
398,62,-103,-44,40,21,541,176,-119,-65,378,59,-101,168,102,445,-131,-167,-426,439,1331,306,-130,-446,795,1927,-363,-295,-355,-292,-790,486267
395,65,-87,-48,36,21,504,354,-143,-34,258,-1,-109,285,80,444,-136,-156,-396,410,1363,303,-145,-435,755,1983,-339,-288,-377,-291,-685,486268
111,24,-5,-71,-18,-11,122,118,-37,-73,-25,-25,-18,211,-4,190,-35,-15,-130,113,638,116,-43,-149,217,929,-74,-112,-179,-102,55,486269
-37,2,31,-49,-24,-15,-75,-4,-13,10,-133,-160,190,-58,-51,15,-6,19,-35,-49,161,-23,-41,-35,-89,190,21,-61,-79,-5,89,486270
-17,-6,41,-22,-6,11,-79,159,-58,-3,-27,-215,155,-191,-26,-51,-65,-58,-126,-89,99,-87,-135,-112,-130,55,-52,-129,-137,-67,37,486271
59,26,54,8,16,41,8,179,46,-1,102,-236,134,-227,-12,-4,-54,-49,-107,-40,177,-36,-94,-107,-48,91,-47,-92,-103,-36,32,486272
83,20,22,-9,13,37,36,81,177,-125,35,-96,85,-369,-50,31,-60,-47,-131,-14,260,-5,-105,-124,18,174,-75,-93,-118,-60,-53,486273
61,2,8,-36,0,14,3,171,117,-83,-113,-77,-152,-335,-53,45,-64,-61,-148,3,287,14,-120,-133,49,205,-78,-95,-124,-64,-111,486274
84,21,4,-54,-4,-2,-3,298,22,65,54,11,-130,-65,40,132,-44,-53,-126,112,459,96,-90,-136,193,451,-78,-63,-104,-47,-255,486275
341,65,-87,-73,23,-9,288,328,-129,93,298,297,-74,166,113,429,-113,-139,-335,404,1249,314,-140,-376,744,1649,-302,-209,-288,-197,-788,486276
428,73,-122,-98,19,-15,371,422,-161,13,336,259,9,252,116,556,-107,-137,-443,509,1621,390,-130,-472,948,2282,-364,-269,-377,-264,-861,486277
345,54,-69,-68,19,3,312,381,-52,-85,24,82,-74,6,51,443,-79,-84,-392,369,1358,293,-106,-394,722,2023,-283,-246,-337,-232,-542,486278
54,20,22,-50,-20,-10,100,42,22,-156,-194,-167,-20,-90,-109,94,-59,-33,-206,6,489,12,-116,-181,93,875,-105,-161,-205,-123,-41,486279
-91,4,71,-12,-25,-8,-68,-200,19,-98,-202,-206,17,-140,-93,-83,-33,-9,-22,-157,-17,-105,-92,-35,-229,148,17,-69,-71,-29,137,486280
-98,-11,54,-25,-38,-31,-96,-373,70,-117,-193,-156,99,-82,-129,-52,-14,18,10,-113,-48,-64,-66,-9,-203,93,35,-38,-13,8,150,486281
-87,7,37,-2,-27,-38,-58,-35,125,-88,160,-100,108,-100,-77,15,28,79,56,-44,-29,-2,-37,52,-141,101,102,29,58,71,161,486282
-91,14,33,9,-23,-34,-46,79,78,-31,55,-84,284,-90,-48,11,-5,41,44,-41,-37,-8,-89,36,-126,85,85,26,62,55,94,486283
-89,-8,15,-28,-41,-31,-75,-149,-108,-144,237,-132,275,0,-42,-13,-18,11,15,-70,-36,-36,-86,10,-128,84,41,1,20,26,1,486284
5,-6,-9,-48,-21,-20,7,-111,-164,-40,-120,-22,-12,56,-5,40,-7,9,-21,11,159,20,-29,-43,22,351,-19,-11,-18,1,-32,486285
195,27,-26,-22,10,-5,229,117,-22,207,156,123,-34,107,58,213,-34,-37,-112,201,634,161,-43,-166,347,1019,-120,-67,-108,-77,-329,486286
283,48,-32,-31,9,8,344,287,-67,-36,255,72,0,211,90,319,-56,-71,-209,289,936,233,-59,-263,510,1460,-191,-145,-191,-138,-552,486287
263,39,-17,-48,7,16,307,76,-43,-14,-12,40,155,94,0,291,-106,-106,-349,235,938,177,-129,-338,443,1514,-269,-244,-285,-207,-495,486288
61,22,59,-27,-3,22,52,27,54,125,-193,-98,197,-66,-65,80,-90,-44,-224,-5,368,-8,-143,-183,12,747,-114,-166,-187,-115,-87,486289
-79,-5,52,-30,-34,-15,-105,14,125,72,-255,-187,-61,-102,-154,-46,-26,35,27,-104,-36,-88,-80,12,-217,139,61,1,-18,31,186,486290
-53,-9,32,-33,-39,-27,-52,-30,67,184,-22,-132,-178,-85,-59,18,22,66,50,-30,44,-30,-25,28,-100,208,66,48,24,58,185,486291
-48,-2,43,-24,-21,7,-54,-147,86,122,73,-43,-282,-31,13,-7,-8,40,0,-57,-14,-64,-39,-15,-118,141,44,14,4,35,6,486292
40,4,13,-37,-10,8,2,-42,75,1,-71,-18,-129,67,50,23,-73,-46,-119,-16,143,-53,-117,-119,-1,390,-51,-84,-94,-53,-207,486293
1,5,2,-26,-26,-13,-21,-72,-67,78,17,-80,-45,-86,43,31,-43,-19,-83,-22,101,-43,-97,-53,9,340,-3,-29,-33,-21,-44,486294
38,12,-9,-16,-14,-8,45,47,-86,1,-103,-65,-46,-76,29,69,-22,-17,-78,32,181,19,-81,-58,87,443,-16,-25,-20,-14,-94,486295
291,48,-38,-8,38,35,339,258,-115,-63,-32,55,95,115,10,294,-100,-103,-281,259,780,175,-128,-280,482,1329,-229,-172,-177,-151,-505,486296
326,51,-59,-48,24,21,426,113,-167,16,79,-30,44,27,-29,371,-108,-114,-345,299,1010,211,-119,-356,578,1703,-288,-232,-262,-206,-554,486297
210,55,-26,-35,1,-17,304,116,19,-63,63,-28,179,-88,77,292,-41,-42,-256,215,832,180,-27,-251,408,1449,-182,-168,-204,-137,-275,486298
-7,20,25,-17,-33,-52,1,-119,52,11,-150,10,38,-76,45,43,-10,-2,-94,-21,270,4,-9,-99,-19,648,-33,-89,-113,-57,-38,486299
-108,3,35,-12,-50,-64,-143,2,52,20,-49,-36,130,-112,-20,-68,-5,15,17,-111,-12,-83,-9,-17,-203,204,44,-35,-41,1,120,486300
-60,3,30,-12,-42,-37,-135,-180,63,64,-108,67,194,-52,76,-10,14,42,48,-45,47,-28,7,-6,-120,244,38,-9,-14,28,197,486301
-16,0,33,-5,-19,-17,-135,-37,-6,1,28,53,303,-133,19,19,40,53,45,-21,67,8,22,2,-86,233,37,7,15,47,179,486302
5,-4,46,-3,13,6,-128,-189,76,-109,129,-32,215,-78,83,13,38,64,65,-23,39,18,4,34,-77,161,56,25,53,60,194,486303
-4,-13,47,4,-1,4,-108,44,23,-84,54,-73,232,-34,-41,-8,10,49,65,-43,-1,0,-6,25,-101,92,47,31,51,57,103,486304
-11,2,33,17,-11,-14,-50,91,182,103,18,-49,295,-224,16,2,-4,24,66,-49,29,-16,3,-6,-100,128,20,23,20,32,48,486305
85,13,-13,7,-8,-26,98,151,113,60,122,-24,125,-55,32,140,-35,-18,-52,91,362,83,-34,-119,134,618,-81,-38,-51,-46,-164,486306
126,21,-19,-9,4,-16,139,142,-56,-135,175,23,-121,153,84,205,-10,1,-103,143,503,139,-26,-129,219,829,-86,-56,-60,-38,-137,486307
113,21,-9,-15,3,-10,93,101,-80,-70,213,41,-112,-60,77,190,9,10,-74,126,446,126,-5,-100,193,819,-60,-32,-47,-33,-26,486308
8,5,28,-1,-1,-11,-47,49,23,65,69,-45,31,-51,38,51,-5,5,-31,-24,151,3,-10,-55,-29,440,-4,-27,-28,-6,154,486309
-61,-1,30,-4,-16,-20,-87,-35,106,58,-185,-64,90,-81,-6,-14,3,9,-7,-74,-44,-61,-37,4,-153,213,43,-23,7,29,164,486310
-53,6,31,0,-19,-6,-37,-172,68,60,-149,20,38,-112,-71,9,8,25,31,-50,-61,-44,-42,23,-140,242,73,13,40,40,125,486311
-77,-12,18,-14,-22,-17,-72,-125,63,-42,6,8,-53,-50,-37,-56,-24,4,15,-113,-158,-102,-57,0,-191,184,57,-15,8,18,103,486312
-91,-17,29,-4,-19,-15,-116,-130,41,11,92,-70,-137,57,48,-126,-35,-10,12,-178,-259,-150,-64,-3,-234,71,56,-35,-6,-3,156,486313
-89,-20,35,2,-17,-17,-127,-189,25,-91,-173,-23,-59,-99,10,-176,-58,-36,-7,-223,-358,-197,-96,-13,-253,-38,45,-51,-11,-14,124,486314
12,5,22,36,14,5,42,-46,-44,77,105,-9,87,-98,57,-95,-80,-80,-73,-135,-140,-127,-89,-92,-112,243,-34,-95,-64,-64,-127,486315
110,18,-7,34,15,1,208,89,-47,90,277,-41,152,-143,39,65,-23,-49,-73,40,229,20,-7,-119,113,681,-62,-69,-72,-71,-201,486316
111,3,-29,5,1,-12,261,88,-99,19,77,-61,73,-65,54,156,26,2,-58,117,379,106,53,-82,204,834,-51,-20,-43,-35,-173,486317
96,15,-18,1,12,-12,225,-61,0,111,142,52,27,38,88,170,41,26,-67,130,392,132,42,-54,205,791,-29,-8,-16,-7,-126,486318
-17,-4,5,-9,-13,-34,-2,-139,23,119,-398,-92,59,-76,-35,96,67,63,38,46,177,71,75,38,41,389,51,63,56,57,3,486319
-117,-20,10,-19,-37,-52,-173,32,-13,30,-70,-71,-32,-153,0,0,70,61,112,-50,-69,-8,77,90,-143,-20,91,98,88,86,171,486320
-112,-18,29,-11,-25,-33,-202,74,45,98,13,-57,53,-45,-36,-55,45,57,94,-84,-167,-59,45,62,-222,-208,80,67,74,67,180,486321
-48,-19,42,-8,6,20,-175,84,71,177,-149,6,93,-157,5,-28,17,43,55,-32,-93,-27,9,27,-150,-143,45,39,64,47,58,486322
-7,-21,35,-14,10,33,-167,-11,95,172,-64,-35,96,-265,-25,15,12,47,35,9,-28,36,-7,27,-73,-68,38,45,81,57,114,486323
-2,-23,28,-10,5,2,-146,96,73,227,-12,4,-83,-41,18,22,6,53,55,29,-16,52,-13,39,-56,-53,57,47,87,72,68,486324
-4,-6,14,0,3,-4,-48,-219,145,-40,166,24,38,-21,98,66,21,51,78,66,49,85,9,40,-11,38,59,53,90,70,-29,486325
101,9,-12,9,15,7,140,-162,35,73,107,1,-21,-48,66,165,-43,-24,-54,158,368,133,-48,-108,163,528,-76,-41,-40,-31,-242,486326
146,24,-4,-3,29,21,174,80,-30,-85,10,84,-102,43,17,200,-46,-34,-103,164,501,109,-39,-159,218,761,-116,-66,-110,-81,-256,486327
95,12,-2,-5,11,1,92,-30,-62,-213,59,102,-3,63,5,136,-30,-40,-90,92,399,43,-11,-141,134,674,-107,-56,-110,-83,-130,486328
-46,-16,17,-4,-18,-36,-66,-127,-83,-214,65,27,51,-20,6,-6,0,-2,23,-56,46,-56,16,-24,-77,232,-2,14,-23,-20,119,486329
-86,-18,29,4,-12,-29,-94,-152,38,-115,26,-16,-57,20,-60,-36,41,37,85,-119,-110,-73,54,51,-117,74,63,53,48,36,219,486330
-23,-6,1,-9,-2,-19,-17,-42,40,-47,-58,44,112,-32,-13,25,25,27,12,-66,2,-19,41,18,-5,303,42,22,49,24,28,486331
-71,-2,30,4,-6,-20,-81,31,43,8,-214,-38,92,45,-1,-2,45,50,46,-97,-129,-48,48,70,-78,183,101,54,97,51,139,486332
-48,-2,32,20,-2,-17,-95,-69,-64,-39,-52,-83,48,-54,-75,7,63,61,66,-76,-146,-45,79,81,-89,199,107,68,102,61,95,486333
1,-16,10,4,-6,-13,-54,-80,-67,-25,150,6,165,19,-27,40,41,35,8,-42,-21,-29,66,5,-24,373,38,17,33,9,8,486334
-42,-34,18,-5,-1,-1,-92,-37,-14,0,59,-76,221,90,-61,-10,30,52,35,-108,-153,-66,36,50,-110,195,78,32,50,30,114,486335
-39,-25,5,2,-6,-16,-1,-29,-28,-5,59,59,23,161,-90,-23,-17,10,3,-94,-117,-63,-19,4,-80,178,39,8,29,5,18,486336
-25,3,17,37,7,-6,75,-97,0,27,-121,26,-61,57,26,-43,-50,-23,-39,-93,-87,-79,-70,-30,-79,165,0,-33,-7,-20,-5,486337
-32,-18,2,-7,-20,-20,0,-213,-26,-103,138,-35,-87,55,-8,-7,4,11,16,-47,-49,-29,-41,17,-54,129,29,7,27,27,24,486338
-19,-28,2,-45,-18,-20,-112,72,-62,-112,103,60,108,34,-27,101,87,99,124,55,67,80,67,107,28,171,104,101,114,99,144,486339
-24,-19,15,-37,-6,-9,-150,-34,8,-145,74,5,40,105,41,111,148,142,173,92,49,113,148,161,26,75,154,155,164,147,224,486340
-16,4,22,-4,18,7,-71,-60,-48,-73,-51,7,-137,53,59,63,107,112,112,64,25,78,122,86,-10,10,85,94,110,100,111,486341
-25,-15,19,-9,4,-3,-30,-100,-9,47,-248,-3,-45,163,-9,13,33,49,24,19,24,22,53,13,-44,3,4,3,21,29,-3,486342
-24,-24,28,-15,1,4,-20,-54,75,173,-233,-44,10,8,-102,-20,5,-1,9,-8,-14,-14,46,-21,-87,-41,-14,-28,-30,-7,-20,486343
-1,-16,23,5,16,33,-18,66,13,42,-151,-115,-192,-80,-93,-44,-62,-59,-37,-27,-5,-35,-1,-89,-87,-13,-64,-76,-74,-61,-36,486344
26,2,12,8,22,22,-38,24,-16,-72,258,-76,-81,4,-86,4,-78,-72,-73,-6,82,1,-52,-105,-5,106,-82,-88,-74,-65,-144,486345
-18,7,24,-15,14,11,-183,20,-82,-34,-23,-30,-12,117,-3,2,-24,-15,-48,-22,14,-1,-47,-22,-4,14,-23,-38,-9,-15,27,486346
27,-9,-11,-48,-8,-8,-142,3,-99,88,-207,150,128,280,5,90,-18,-6,-79,65,190,63,-47,-50,156,294,-52,-46,-23,-23,-58,486347
55,-14,-15,-46,-4,-11,-39,-41,-24,96,-26,185,41,103,-32,129,17,22,-59,102,267,102,-3,-26,214,439,-35,-16,0,-6,-53,486348
10,-6,-18,-5,-3,-22,37,-85,11,22,101,108,-80,-149,-57,91,57,64,41,58,150,81,44,53,128,310,30,51,63,44,19,486349
26,16,-3,42,10,-4,106,59,92,-103,-3,74,93,-70,-15,43,2,12,13,-12,53,21,25,15,54,255,3,16,27,10,39,486350
39,27,5,42,33,9,109,-27,68,-93,-20,4,104,45,-11,21,-25,-11,-12,-48,43,-21,-2,-13,51,326,-18,-19,-13,-20,-34,486351
-14,3,-1,17,9,-19,32,-64,-10,-96,-150,-62,140,-24,-24,21,9,24,42,-63,-10,-31,18,39,10,290,16,25,31,11,21,486352
-1,12,3,20,7,-9,51,-7,-10,-41,58,-33,13,48,-12,81,62,73,117,3,55,22,72,82,59,375,71,93,86,62,21,486353
8,11,19,24,17,5,53,148,58,44,25,92,64,-112,16,69,51,61,120,-15,32,1,62,71,25,350,63,96,68,65,0,486354
-20,13,13,32,13,-7,47,144,123,35,-62,54,-19,-160,22,6,13,37,72,-72,-78,-63,34,48,-65,177,35,49,36,31,55,486355
66,17,-10,32,17,7,189,25,48,-8,61,-31,-46,61,10,81,-30,-23,-49,19,150,9,-11,-60,91,480,-64,-44,-44,-44,-179,486356
128,22,-17,27,29,18,256,-27,48,0,65,23,-99,-47,1,122,-79,-68,-148,67,336,42,-64,-162,175,718,-154,-139,-133,-132,-265,486357
107,25,-20,-1,10,11,199,16,-60,-21,-89,35,-97,-72,-45,104,-95,-89,-126,54,343,38,-89,-163,147,702,-169,-143,-154,-138,-201,486358
28,5,-12,-20,-17,-5,33,-40,-84,-79,117,45,51,-102,31,67,-30,-9,-26,24,201,36,-26,-54,48,460,-67,-57,-63,-56,27,486359
-25,0,19,-12,0,3,-46,8,-86,-82,6,61,-71,-30,-62,19,17,58,44,-11,24,12,22,29,-63,189,14,-7,3,16,188,486360
7,6,38,18,26,32,-28,-39,61,-187,33,-62,34,109,-62,-20,-2,12,18,-37,-3,-16,5,13,-85,141,-4,-38,-22,-13,45,486361
19,-3,35,8,20,32,-29,-204,118,-197,-195,-115,113,67,-73,-81,-47,-67,-29,-85,-25,-66,-41,-50,-112,120,-65,-94,-89,-69,-22,486362
-8,-4,25,8,13,24,-38,30,-43,-136,-224,-156,-50,-45,-55,-67,7,-10,47,-68,-42,-47,30,15,-114,61,-10,-28,-32,-14,168,486363
-14,7,20,12,9,14,-1,-74,69,-9,-150,-127,-42,-61,27,-6,53,31,86,-11,4,6,81,43,-51,98,30,31,25,25,216,486364
15,7,-6,3,-7,-7,74,9,-65,-85,187,7,-2,97,-55,47,47,27,53,50,113,53,72,21,50,245,-1,21,16,12,-2,486365
241,30,-72,-18,23,23,367,64,-161,-226,215,135,-20,188,-25,264,-26,-73,-163,262,739,215,-14,-194,505,1144,-199,-118,-133,-117,-476,486366
327,49,-90,-27,39,31,449,203,-108,-150,146,73,-37,-69,4,326,-111,-142,-317,310,1024,251,-133,-321,673,1643,-324,-222,-263,-225,-612,486367
292,47,-60,-17,46,21,353,198,-120,-82,53,8,-48,-79,57,273,-150,-153,-328,227,941,181,-188,-313,565,1601,-313,-245,-285,-242,-595,486368
89,28,-3,-28,4,-8,46,61,-113,40,71,-15,-181,72,-1,90,-101,-83,-187,17,436,21,-145,-134,176,920,-148,-158,-184,-145,-217,486369
-68,20,43,-14,-17,-26,-147,-48,-77,43,-16,55,-147,73,10,-30,-3,-2,-16,-89,19,-60,-43,33,-80,319,27,-35,-28,-9,100,486370
-78,8,29,-12,-23,-40,-124,105,-56,-41,-135,-18,11,63,-15,-21,-4,-5,12,-76,-28,-60,-19,42,-74,272,30,-9,-2,14,128,486371
-76,-9,33,-23,-17,-33,-129,158,-17,-10,-281,-106,126,-64,-78,-8,4,9,69,-65,-75,-50,0,75,-90,202,48,27,34,37,134,486372
-59,-2,48,-11,0,-2,-133,111,-23,-118,-211,-33,239,-166,-51,17,47,51,98,-49,-84,-30,37,98,-100,146,76,63,70,70,150,486373
-66,-2,52,-3,5,-3,-163,106,11,-22,-200,-59,109,133,-34,-39,58,61,126,-77,-162,-53,50,111,-175,12,93,76,78,80,238,486374
72,9,3,-5,17,-1,26,104,9,-128,108,73,-35,126,-51,95,12,-8,18,83,218,61,9,-14,127,556,-34,5,-12,-7,-82,486375
307,32,-63,-36,38,27,343,60,-88,-126,383,172,-223,59,25,305,-87,-128,-251,294,942,218,-87,-276,586,1602,-284,-187,-239,-200,-596,486376
367,40,-87,-53,33,31,405,172,-58,-141,355,161,-28,74,0,359,-125,-154,-348,334,1196,256,-126,-358,713,2016,-354,-253,-325,-267,-686,486377
343,43,-62,-50,26,34,357,90,-73,-135,176,49,114,129,-50,335,-131,-139,-343,275,1124,211,-166,-330,642,1977,-323,-243,-319,-257,-538,486378
70,15,19,-38,0,25,26,4,122,-96,-29,-193,-61,-91,-34,56,-77,-51,-159,-29,371,-15,-128,-110,89,939,-112,-130,-173,-127,66,486379
-88,3,62,-4,-14,7,-188,-263,142,-19,-388,-137,-61,-129,-121,-103,-16,18,33,-191,-173,-122,-42,76,-270,152,61,-5,-8,17,295,486380
-102,-9,32,-26,-35,-27,-159,60,63,79,-113,-60,-194,17,-40,-62,29,35,92,-135,-164,-73,-7,126,-243,131,107,44,60,76,173,486381
-109,-8,28,-22,-36,-35,-130,-74,41,-40,-133,-108,-227,107,-22,-34,50,74,129,-100,-144,-58,20,135,-194,123,119,83,81,92,221,486382
-90,-14,22,-16,-27,-21,-102,-83,-9,26,7,-2,-141,84,-47,-48,-8,15,69,-112,-120,-93,-32,55,-160,181,46,42,12,22,112,486383
-89,-7,44,-4,-9,-1,-119,-120,99,0,122,-51,-93,54,-56,-90,8,0,50,-148,-196,-119,-37,63,-187,86,39,25,13,11,124,486384
12,3,21,2,10,15,26,151,-124,3,-292,-23,-125,107,-63,9,24,8,22,-13,36,-13,5,37,19,390,-1,21,17,9,-17,486385
375,38,-58,-33,66,63,490,472,-106,-79,116,80,-117,-13,-5,354,-84,-128,-323,340,1011,248,-92,-304,703,1821,-311,-210,-232,-206,-721,486386
498,65,-71,-49,74,75,609,345,-65,141,271,110,26,-141,-8,473,-167,-197,-518,432,1431,332,-191,-473,934,2505,-455,-340,-389,-343,-944,486387
413,67,-54,-55,42,50,470,187,-95,-51,-60,38,17,74,-38,404,-202,-179,-507,342,1328,268,-245,-438,786,2411,-427,-346,-403,-322,-800,486388
87,26,-8,-55,-24,-12,11,66,26,-127,-169,-93,143,-81,-88,102,-114,-56,-255,24,518,34,-176,-157,183,1278,-156,-180,-207,-150,-117,486389
-128,-2,46,-28,-51,-47,-276,29,-29,-60,34,-162,128,-140,-34,-89,23,85,48,-144,-89,-80,-19,115,-214,324,102,32,21,57,317,486390
-142,-6,54,-14,-42,-44,-269,-148,3,-75,1,-175,71,50,-8,-87,38,87,124,-130,-143,-73,23,139,-215,163,120,83,66,87,309,486391
-123,4,52,0,-32,-23,-249,-264,-2,106,108,-75,14,59,-18,-92,34,59,129,-106,-138,-64,18,126,-208,108,101,81,78,78,238,486392
-143,-19,25,-33,-39,-43,-305,-148,71,-14,13,-116,-70,121,43,-69,37,45,97,-77,-111,-51,18,107,-193,103,67,58,58,74,255,486393
-111,-1,39,-19,-21,-28,-340,-171,90,4,26,-145,121,90,3,-19,59,58,128,-24,-38,5,68,119,-133,160,82,92,87,90,264,486394
-74,-6,16,-37,-37,-34,-336,-49,47,-9,-127,-193,93,147,6,24,51,35,119,28,71,46,74,98,-63,304,58,92,90,80,159,486395
49,2,-14,-38,-21,-4,-86,69,14,1,-204,-105,175,125,15,144,17,7,5,126,340,128,17,8,159,749,-20,23,19,31,-12,486396
126,17,-2,-10,10,10,145,4,-84,6,-162,-6,-35,91,-11,173,-20,-32,-85,139,449,127,-42,-68,233,975,-84,-42,-62,-37,-88,486397
83,33,26,31,16,15,130,292,-159,-274,-45,26,-30,-61,7,63,-62,-55,-81,20,254,29,-68,-58,80,770,-77,-62,-83,-60,-70,486398
-10,47,46,50,15,20,62,37,-78,-120,251,30,-133,-8,20,-76,-86,-70,-45,-128,-60,-121,-91,-27,-142,414,-39,-81,-82,-54,23,486399
-39,32,40,37,2,3,28,37,-70,-44,-92,-20,-73,3,-16,-100,-70,-53,-20,-157,-156,-164,-51,-17,-170,317,-17,-76,-69,-35,-3,486400
-48,10,19,1,-15,1,11,-222,-133,68,-56,-37,15,-201,45,-18,-11,-9,22,-89,-82,-86,19,29,-58,436,27,-13,-18,10,82,486401
-88,11,38,3,-8,5,-57,-189,-79,-137,173,-3,158,-238,7,-10,66,74,138,-75,-167,-46,86,138,-85,303,116,94,93,88,260,486402
-85,3,36,0,5,-5,-99,-148,-11,-195,65,-2,66,-94,36,-72,31,37,98,-123,-243,-106,15,94,-166,200,65,52,63,47,130,486403
-59,21,37,19,17,14,-59,-361,-41,-10,-129,18,115,-23,-74,-47,34,31,72,-125,-230,-113,20,88,-163,208,56,31,46,42,165,486404
-138,-10,41,19,-15,-11,-131,-165,52,131,-618,-87,-49,-52,-148,-127,69,69,159,-205,-460,-186,73,174,-309,-140,144,99,93,98,417,486405
-470,-57,138,51,-51,-45,-536,-176,216,45,-361,-207,23,-138,-100,-482,191,233,501,-534,-1448,-410,205,529,-947,-1614,468,348,394,332,1042,486406
-610,-79,172,102,-43,-37,-707,-471,235,112,-176,-308,327,-273,-66,-652,237,260,667,-665,-1998,-509,259,692,-1249,-2517,598,449,562,450,1245,486407
-574,-76,136,112,-41,-33,-646,-364,273,168,-301,-284,247,-123,-113,-646,209,221,639,-613,-2007,-473,240,641,-1201,-2627,561,402,545,427,1071,486408
-188,-22,37,79,12,4,-169,-104,160,227,-66,-7,69,-50,-19,-246,133,109,339,-177,-960,-145,182,307,-457,-1252,258,213,314,238,217,486409
53,-5,-36,28,35,24,96,-5,-3,157,78,207,-23,4,91,35,58,28,67,116,-120,86,87,51,48,-119,10,64,102,51,-142,486410
3,-30,-35,1,5,14,19,-97,-67,76,126,141,-106,-59,42,-4,51,26,74,82,-113,69,86,44,-14,-166,3,59,67,34,-32,486411
23,-18,-51,1,3,8,84,-161,-92,-121,152,141,-132,121,72,0,29,10,49,88,12,85,84,20,42,-45,-22,49,24,17,-95,486412
25,-8,-49,1,-4,2,131,11,-14,-21,154,180,1,285,-7,-3,-4,-17,0,77,55,94,30,-5,70,8,-39,18,3,1,-2,486413
46,6,-45,5,2,5,195,24,3,-116,95,127,-63,151,-60,37,-7,-15,-36,103,144,127,14,-16,135,135,-49,-6,-6,-11,-17,486414
-99,11,17,27,1,2,25,-189,63,8,-205,10,29,-64,-15,-90,45,62,108,-46,-230,10,85,137,-138,-386,94,80,98,80,337,486415
-569,-49,150,57,-32,-19,-635,-459,187,-1,-327,-222,-65,-342,-71,-577,201,245,565,-543,-1639,-371,222,607,-1068,-2383,529,374,449,378,1218,486416
-681,-101,167,67,-46,-12,-863,-471,175,0,-221,-243,126,-245,-95,-734,226,248,700,-661,-2161,-492,252,716,-1317,-3176,624,459,572,473,1258,486417
-539,-88,122,98,-19,6,-682,-169,181,149,-167,-127,67,-33,-32,-648,160,166,565,-538,-1967,-439,186,580,-1097,-2910,508,371,498,387,889,486418
-158,-27,16,110,46,48,-143,66,87,286,105,116,-110,-1,80,-306,35,-7,245,-179,-1020,-193,77,230,-408,-1551,178,171,255,157,123,486419
151,-6,-67,59,67,62,229,149,-71,148,234,207,-13,39,64,18,-72,-123,-65,128,-74,24,-11,-88,206,-133,-119,-33,-20,-71,-444,486420
135,-18,-69,25,37,34,164,167,-62,93,21,153,12,112,19,25,-86,-111,-107,104,1,8,1,-109,189,63,-130,-54,-86,-115,-362,486421
68,-3,-57,22,15,4,84,150,27,164,170,219,-38,151,66,-8,-62,-74,-81,42,-115,-31,1,-58,83,-55,-57,-25,-53,-81,-162,486422
43,6,-46,21,-1,-14,76,107,34,64,137,237,-115,131,87,-9,-51,-49,-93,31,-128,-32,-10,-41,62,-61,-45,-22,-38,-63,-119,486423
26,-1,-28,11,3,-1,55,289,19,-16,274,248,51,111,31,7,7,2,-43,48,-127,-15,35,15,57,-59,-9,23,-1,-12,-114,486424
-89,-24,12,11,0,15,-114,84,62,-16,195,30,-19,-121,13,-124,28,34,41,-81,-441,-126,54,97,-181,-496,72,52,54,32,187,486425
-488,-79,109,62,-48,-23,-555,-331,182,72,-309,-222,213,-432,-91,-555,118,155,419,-520,-1607,-435,153,462,-1012,-2225,403,286,323,257,965,486426
-684,-100,139,113,-63,-54,-708,-393,252,81,-409,-306,6,-275,-88,-754,216,252,714,-683,-2268,-540,258,721,-1376,-3310,638,500,571,456,1319,486427
-607,-89,124,114,-33,-26,-638,-384,186,94,-110,-172,41,-180,-34,-696,225,237,718,-585,-2175,-453,264,687,-1218,-3309,616,508,599,468,1090,486428
-172,-58,12,75,27,30,-157,-104,88,-17,-129,-23,89,-116,114,-307,75,33,292,-145,-1043,-154,132,244,-412,-1795,184,215,277,184,136,486429
116,-29,-60,18,54,57,169,92,21,109,51,58,-3,168,111,-6,-27,-76,-28,137,-107,76,41,-68,168,-473,-116,23,5,-50,-328,486430
92,-31,-52,9,35,50,121,272,-123,60,-47,99,-35,129,12,-1,0,-47,-18,117,-42,93,75,-48,140,-409,-89,26,-13,-54,-251,486431
78,-24,-37,19,37,53,104,240,-56,37,11,146,-65,-6,10,-28,3,-42,-42,93,-52,85,58,-41,99,-438,-78,-6,-42,-42,-137,486432
53,-16,-37,25,35,40,129,-88,-65,59,3,118,-28,5,-104,-55,-23,-50,-86,55,-58,63,12,-57,68,-434,-84,-41,-51,-49,-108,486433
5,-6,-36,26,17,25,130,-171,-29,119,-48,9,-236,50,-26,-77,-15,-27,-50,23,-119,41,22,-21,9,-517,-46,-21,-23,-27,-73,486434
-24,-20,-35,19,-2,19,74,-93,-129,39,-10,66,-127,-3,28,-120,-24,-41,-40,-26,-217,-4,-1,-3,-56,-629,-31,-26,-23,-20,-39,486435
-291,-48,54,45,-16,3,-321,-165,3,153,-494,-73,71,-44,-17,-381,62,77,228,-301,-1002,-223,91,269,-575,-1731,238,158,185,159,587,486436
-413,-52,94,66,-22,-2,-518,-118,125,221,-350,-72,167,116,-11,-471,162,177,443,-369,-1416,-278,183,484,-771,-2366,416,330,382,324,770,486437
-332,-61,43,50,-8,1,-407,-91,104,294,-41,-35,96,22,-47,-378,159,148,393,-255,-1224,-210,205,417,-570,-2133,350,309,367,287,453,486438
-78,-43,-27,49,21,23,-72,-9,-17,120,-53,-6,-25,100,-15,-154,62,26,161,-19,-600,-56,121,159,-129,-1248,110,158,184,122,20,486439
113,-9,-65,34,43,50,170,160,16,167,223,-4,-83,133,98,-3,-63,-107,-99,123,-63,38,-28,-73,219,-431,-108,-10,-22,-71,-327,486440
99,1,-34,46,52,55,123,292,4,91,98,71,48,5,61,-24,-68,-96,-94,82,-92,6,-66,-61,179,-446,-85,-6,-27,-79,-131,486441
87,2,-32,46,39,49,112,381,-77,92,259,95,-98,-117,39,8,-11,-29,-62,107,-76,33,-5,-11,168,-423,-32,24,10,-16,-41,486442
81,-2,-47,35,28,19,148,197,-28,8,144,127,-93,66,25,50,27,19,-31,149,-11,73,60,23,189,-324,5,34,43,25,-101,486443
74,-4,-51,29,17,8,148,143,-10,63,69,166,-10,135,99,51,20,-3,-28,142,14,64,66,13,165,-281,-3,17,12,0,-113,486444
41,1,-26,22,23,23,66,86,21,41,20,62,99,7,94,-13,-22,-54,-38,69,-77,-1,17,-12,52,-395,-20,-8,-31,-25,-28,486445
-113,-12,16,18,-8,2,-169,115,-39,-81,-121,71,97,68,74,-143,11,-3,61,-77,-433,-102,52,99,-227,-888,94,52,30,37,244,486446
-252,-40,22,4,-47,-30,-349,-168,69,33,-7,57,89,65,38,-261,67,55,188,-189,-794,-194,119,216,-463,-1428,207,136,138,127,388,486447
-224,-34,24,9,-36,-15,-311,-179,70,222,-85,7,-38,133,9,-236,91,77,252,-154,-767,-147,158,243,-408,-1457,223,186,184,165,389,486448
-23,-18,-24,10,10,27,-19,-48,-71,85,-63,102,-75,184,63,-15,85,56,159,79,-235,45,155,129,18,-751,100,138,129,109,66,486449
116,-17,-67,-13,23,33,200,68,-100,-147,-56,6,-108,248,7,116,-6,-40,-52,169,191,129,38,-60,281,-115,-79,-2,-32,-31,-306,486450
132,3,-65,-2,24,23,236,-110,-131,-163,183,30,-123,-47,76,101,-36,-58,-136,142,266,125,-17,-118,257,20,-113,-69,-90,-84,-311,486451
94,26,-54,24,22,9,200,34,-66,-67,215,49,-143,-10,75,81,8,-14,-75,112,203,120,36,-57,205,-76,-53,-19,-43,-42,-137,486452
55,10,-31,23,8,5,168,82,-6,143,200,77,-110,55,81,38,15,3,-28,79,127,107,47,-13,182,-149,-30,8,-13,-20,-77,486453
59,11,-35,8,11,13,188,103,-22,-10,156,113,-119,20,39,52,6,3,-58,93,150,114,41,-17,223,-110,-41,-10,-20,-19,-114,486454
31,-1,-27,1,-2,12,151,26,37,28,26,123,-115,-37,40,1,7,1,-65,38,59,53,21,-16,138,-214,-31,-35,-47,-21,-42,486455
-79,-4,-2,19,-8,-7,-35,76,140,-34,-72,45,-4,32,13,-123,0,7,26,-86,-279,-64,10,68,-109,-683,63,12,8,35,151,486456
-156,-21,1,5,-16,-29,-190,-29,26,0,-152,-24,-124,-90,-28,-199,-5,-8,68,-149,-492,-126,11,100,-253,-995,93,43,62,61,153,486457
-153,-43,-10,-21,-19,-22,-196,-278,48,-23,-300,-42,-197,-52,-21,-159,42,37,115,-98,-469,-93,82,124,-217,-1010,105,86,109,95,190,486458
15,-30,-18,-10,12,9,-17,-152,-7,-171,-10,35,100,-96,-10,6,28,10,8,80,-80,35,69,18,87,-480,12,40,47,34,-41,486459
76,-10,-21,4,33,34,63,25,-85,-74,73,-66,171,32,30,62,9,-12,-44,138,99,91,18,-35,217,-222,-43,8,5,-15,-136,486460
42,11,1,17,32,29,37,40,-88,-99,95,8,49,4,4,24,16,9,6,95,10,63,15,12,162,-349,-2,33,35,13,-34,486461
70,24,-12,7,31,26,85,78,-37,88,51,4,44,-25,-7,37,5,-10,-49,114,69,63,-3,-27,186,-259,-26,-14,-1,-15,-168,486462
82,27,-8,27,35,38,95,191,-24,-56,-189,30,30,-100,37,63,15,18,-53,130,96,61,-2,-19,188,-219,-8,-23,-8,7,-114,486463
68,-3,-34,3,8,6,50,290,-128,-83,-52,6,2,-115,86,66,1,16,-56,130,111,62,-23,-32,186,-191,-24,-10,-20,-1,-59,486464
57,-7,-46,-23,-11,-10,12,-107,-69,-70,302,-4,-94,18,100,56,-26,-7,-91,115,157,65,-44,-80,196,-110,-76,-40,-49,-52,-196,486465
-62,7,-10,-11,-12,-17,-118,-180,20,45,-24,-30,-44,32,38,-39,47,63,64,11,-121,2,39,56,-15,-522,56,44,46,35,134,486466
-83,10,-17,4,-19,-19,-37,-6,-12,-110,-97,31,-159,105,36,-28,76,83,158,34,-149,8,101,119,-21,-594,120,106,105,95,194,486467
-30,9,-23,27,4,-11,98,2,-6,-30,100,83,-192,171,81,-21,44,13,80,28,-89,0,58,54,21,-498,56,62,54,43,58,486468
35,18,-28,35,17,5,189,-33,1,-93,87,25,-7,147,46,-10,-27,-60,-54,36,37,10,-25,-61,89,-284,-56,-31,-42,-38,-134,486469
107,33,-33,27,29,18,221,132,8,-41,27,-62,194,-72,-29,63,-60,-99,-119,89,231,71,-58,-117,221,34,-116,-76,-75,-81,-290,486470
94,25,-18,10,35,34,143,116,81,140,125,-38,-53,-60,-18,47,-55,-89,-103,59,203,60,-76,-76,200,39,-78,-67,-64,-55,-207,486471
-16,-10,-2,-17,0,12,-6,-19,57,83,-6,-77,-212,11,-15,-35,-19,-13,-29,-40,-61,0,-54,11,21,-315,24,-7,16,9,40,486472
117,9,-25,-14,24,22,173,117,-30,8,50,-18,-86,-16,47,88,-46,-49,-96,92,247,88,-56,-86,240,144,-60,-61,-45,-34,-303,486473
123,6,-34,-16,17,22,226,249,-56,-18,-3,30,-7,-72,19,95,-77,-83,-142,87,314,75,-102,-120,263,255,-109,-96,-89,-82,-356,486474
6,2,-6,-16,3,6,118,-27,3,-29,13,47,-51,-57,-24,22,-40,-23,-51,-14,48,6,-69,-28,79,-114,-14,-37,-28,-13,-133,486475
-8,3,-15,-25,-6,-2,37,60,56,-52,-33,88,-113,-84,-3,39,10,24,9,23,30,15,34,-12,54,-164,-8,-12,0,10,-53,486476
28,-5,-23,-49,-2,0,-29,23,53,-161,29,-12,-177,-122,-63,87,8,13,-11,76,151,39,41,-44,113,-9,-36,-19,-25,-12,-48,486477
41,1,-11,-51,3,16,-59,-126,19,-47,117,-32,-110,-57,0,96,13,11,-16,95,194,59,34,-41,138,56,-43,-12,-19,-17,-89,486478
40,-12,-4,-37,-5,4,-43,-55,5,-54,-19,-91,42,68,-17,89,38,16,8,100,178,68,54,-23,130,0,-14,0,-13,-4,-119,486479
58,5,11,1,17,12,47,96,180,32,-70,14,75,-60,73,86,47,23,14,102,157,71,59,-12,105,-63,-17,21,7,3,-61,486480
50,8,-17,15,4,-8,124,2,151,-65,149,13,-45,-10,0,26,19,-17,-26,79,146,41,24,-58,81,-79,-71,-20,-29,-41,-76,486481
56,12,-32,18,-7,-28,163,7,-29,-20,-38,-53,0,-76,16,24,-27,-68,-69,77,215,34,-22,-105,108,7,-118,-56,-73,-68,-122,486482
39,19,-19,18,-2,-19,154,22,-26,78,-43,-98,102,-84,-13,51,-25,-54,-24,92,229,63,-24,-63,123,22,-61,-14,-41,-49,-77,486483
11,12,-13,10,-4,-26,149,24,58,70,-179,-77,-6,29,-2,3,-52,-72,-19,57,172,49,-67,-74,76,-31,-60,-33,-50,-57,-180,486484
59,15,-15,5,7,-15,179,20,45,-64,150,27,112,21,7,26,-76,-76,-77,80,246,65,-84,-117,123,88,-101,-85,-92,-84,-230,486485
216,32,-65,-19,27,3,333,-61,-100,11,101,104,-117,156,10,192,-106,-129,-206,232,681,167,-124,-263,431,740,-230,-188,-221,-169,-484,486486
306,57,-75,-27,41,20,399,166,-131,-73,54,135,-174,220,31,286,-123,-135,-312,306,976,229,-144,-350,589,1198,-309,-273,-306,-234,-636,486487
275,54,-62,-40,21,7,340,316,-47,-217,331,89,-159,127,44,264,-90,-100,-281,267,958,211,-100,-311,550,1222,-274,-232,-284,-219,-434,486488
75,15,-28,-32,-21,-31,116,102,-122,-95,103,-2,-71,196,-96,75,-59,-42,-114,54,446,55,-59,-150,206,568,-119,-121,-161,-108,-1,486489
-73,9,5,-5,-37,-44,-48,-331,-155,-134,85,-84,-51,-33,-49,-67,-17,18,31,-89,-5,-67,-13,11,-66,-57,32,-26,-19,-2,132,486490
9,30,4,4,6,-12,44,-61,-5,-201,-91,-69,-57,33,-61,1,-35,-6,-33,-25,124,-36,-57,-44,65,142,-31,-49,-38,-26,-27,486491
35,25,9,-6,10,6,31,-7,-3,-32,-57,-82,31,-49,-11,10,-43,-18,-67,-31,128,-53,-101,-78,72,197,-62,-75,-58,-59,-48,486492
-17,30,32,2,9,19,-25,-87,45,-11,-112,-97,-24,-197,94,-8,-2,10,0,-57,-7,-64,-55,-9,-7,-4,-4,-23,-2,-11,-9,486493
-7,18,16,-4,5,4,-35,48,59,93,5,-67,-6,-100,79,11,14,19,21,-27,10,-42,-26,-8,-6,3,5,2,8,9,13,486494
74,8,-15,-8,15,10,7,-24,-32,-178,218,-51,73,-115,-13,56,-15,-28,-42,32,189,-7,-34,-92,102,237,-63,-41,-51,-54,-131,486495
287,38,-58,-24,36,29,275,79,-65,-167,476,21,86,14,30,247,-90,-109,-253,234,784,158,-117,-297,493,1094,-263,-175,-209,-195,-528,486496
367,67,-61,-18,41,36,428,219,-44,-20,365,131,124,111,98,338,-97,-107,-317,318,1075,240,-135,-349,647,1518,-292,-216,-267,-237,-625,486497
300,50,-48,-31,33,22,358,162,-99,-70,64,164,-28,70,10,272,-116,-120,-322,241,971,183,-157,-330,532,1399,-280,-217,-280,-233,-434,486498
