-262,-59,2,36,-45,-27,-259,-92,-21,-33,-239,-22,-109,-91,-59,-317,88,92,218,-206,-895,-172,107,226,-432,-2220,218,170,191,174,519,541108
-249,-81,3,13,-36,-9,-326,-186,-19,127,-337,36,-79,-22,-28,-289,141,124,287,-160,-934,-115,193,287,-411,-2341,258,228,267,231,499,541109
-34,-39,-29,34,18,36,-54,3,-39,200,-42,27,20,-35,55,-112,61,31,131,16,-439,1,133,100,-43,-1685,81,124,149,108,2,541110
138,-12,-73,19,44,41,192,97,-74,285,285,161,-43,83,42,73,-4,-45,-43,208,107,123,30,-79,329,-893,-88,6,-3,-19,-339,541111
158,-21,-77,11,34,24,219,79,-174,94,432,146,-58,19,68,126,-1,-36,-118,232,265,151,16,-125,386,-664,-130,-33,-61,-66,-340,541112
135,-21,-80,4,12,19,194,15,-130,6,289,80,38,62,40,105,0,-30,-162,197,244,113,17,-142,341,-677,-139,-63,-77,-83,-262,541113
137,-3,-91,11,13,16,225,123,-114,-40,274,89,80,1,-17,84,-29,-69,-196,174,278,109,-28,-183,340,-580,-168,-117,-137,-112,-322,541114
121,-11,-81,14,10,24,217,23,-61,-151,324,106,-84,-48,-54,20,-53,-100,-185,130,228,82,-47,-193,264,-612,-188,-134,-164,-137,-254,541115
125,-22,-64,-4,16,34,219,-30,-157,164,208,29,59,-72,-74,-2,-55,-101,-136,112,199,61,-17,-159,223,-629,-161,-103,-134,-110,-268,541116
136,-6,-61,-11,22,38,276,60,-100,109,193,63,-10,104,51,53,-62,-106,-135,140,282,69,7,-167,291,-498,-164,-87,-130,-116,-319,541117
217,11,-101,-4,32,54,360,210,-9,80,100,-26,-147,88,64,130,-116,-165,-273,201,515,98,-70,-283,454,-116,-273,-174,-214,-203,-462,541118
274,10,-128,-30,16,44,372,298,-58,130,226,67,-58,98,77,232,-126,-155,-340,288,734,163,-115,-319,610,266,-284,-203,-230,-218,-529,541119
256,6,-108,-45,-9,11,306,66,-85,18,-83,135,-125,11,58,270,-94,-102,-294,295,764,193,-95,-272,636,367,-226,-172,-205,-181,-396,541120
64,-11,-45,-14,-14,-14,75,99,12,141,27,16,-15,-57,18,64,-23,-15,-135,78,238,44,-24,-116,238,-360,-81,-81,-118,-80,-101,541121
86,14,-57,13,2,-5,128,159,-81,6,-20,89,-136,-163,9,59,-27,-25,-168,79,223,17,-29,-151,226,-375,-124,-114,-136,-90,-176,541122
83,-1,-74,8,-12,-9,139,41,-74,87,-109,55,-128,-150,-48,63,-48,-25,-174,84,236,-6,-72,-154,225,-313,-115,-116,-145,-88,-157,541123
16,-8,-53,-12,-31,-21,16,39,-45,57,129,-36,15,50,-11,-5,-30,8,-84,17,63,-35,-67,-68,108,-563,-24,-41,-72,-15,-21,541124
19,-15,-55,-25,-34,-25,-1,-42,56,-142,87,122,-73,241,-36,-16,-59,-47,-130,10,55,-40,-94,-117,112,-544,-83,-88,-91,-40,-128,541125
66,-2,-57,-9,-9,-12,51,-45,-28,29,-7,59,-213,36,-14,12,-73,-72,-222,47,141,-18,-96,-180,151,-401,-175,-155,-143,-86,-274,541126
397,49,-115,-2,48,38,439,147,-110,-42,237,133,-233,76,103,390,-85,-126,-412,431,1040,272,-113,-388,825,902,-373,-255,-261,-193,-784,541127
662,82,-192,-64,58,38,715,281,-229,-110,443,269,-351,165,147,737,-157,-199,-671,739,1973,510,-203,-635,1458,2326,-590,-396,-461,-362,-1180,541128
635,72,-198,-135,14,11,643,255,-284,-59,554,270,-188,321,111,758,-176,-191,-709,724,2111,518,-264,-638,1468,2625,-585,-407,-494,-392,-1149,541129
438,57,-139,-138,-18,-18,448,291,-184,-17,277,81,28,290,61,572,-151,-128,-568,499,1714,389,-256,-491,1108,2113,-460,-326,-433,-325,-697,541130
-13,3,3,-112,-63,-43,-90,202,4,-90,-126,-56,12,64,4,151,53,126,-62,87,500,148,-76,36,227,298,46,25,-48,35,337,541131
-65,-5,29,-74,-49,-31,-184,-69,34,-57,-128,-102,-99,-95,-14,76,107,158,83,52,221,119,33,125,72,-172,145,93,69,111,296,541132
-27,6,13,-35,-36,-18,-240,-102,72,-57,-230,-112,148,-84,-62,4,6,25,-34,-1,155,23,-20,-20,-9,-252,18,-45,-46,-7,48,541133
-3,-11,0,-32,-29,-20,-279,-17,-52,8,-209,-66,209,19,-134,17,-35,-29,-110,-1,178,10,-66,-77,3,-216,-29,-103,-100,-44,-90,541134
29,-10,14,-26,-7,0,-241,-26,-27,127,-80,6,70,-67,-25,96,51,46,-26,70,231,91,-1,5,63,-172,33,-17,-12,24,19,541135
31,2,5,-13,-1,3,-15,-55,20,86,-67,3,-39,-146,5,69,32,22,-4,69,220,75,-10,-14,67,-159,6,-30,-18,1,116,541136
261,69,-65,26,33,8,459,254,-181,18,137,127,12,-15,28,246,-119,-141,-267,253,819,146,-109,-332,494,763,-290,-243,-245,-211,-614,541137
510,84,-177,-18,30,-19,723,388,-170,-113,368,118,-295,240,20,529,-253,-257,-599,492,1604,312,-249,-618,1041,2015,-560,-434,-461,-406,-1100,541138
558,83,-187,-66,21,-26,724,253,-196,-129,209,189,-259,199,69,643,-252,-225,-656,569,1883,395,-293,-626,1219,2521,-572,-437,-493,-419,-949,541139
431,67,-94,-84,8,-4,492,135,-119,27,145,157,-81,-77,61,532,-181,-136,-490,419,1556,313,-251,-452,976,2125,-412,-313,-370,-316,-586,541140
11,27,46,-46,-41,-25,-4,-30,24,142,-122,32,34,-282,-50,58,-58,0,-144,-54,361,-19,-127,-97,87,405,-91,-103,-130,-90,125,541141
-53,25,55,5,-33,-28,-18,-220,81,83,-103,-69,54,-112,-60,-17,-6,26,-56,-103,81,-80,-75,-19,-84,-28,-6,-57,-47,-6,178,541142
-14,39,27,0,-18,-20,66,-153,16,101,72,-79,96,-163,-4,35,-22,-2,-66,-47,175,-68,-80,-63,1,81,-42,-78,-73,-35,-4,541143
-39,24,22,-21,-17,-16,-13,-177,-5,33,4,-154,65,-14,-31,6,8,6,-20,-82,121,-95,7,-64,-42,-10,-43,-58,-59,-36,43,541144
-41,-5,-6,-59,-45,-39,-102,-173,-89,-53,-199,-156,-162,-22,-66,31,41,42,23,-45,111,-50,41,-2,-9,-9,13,-5,-3,28,135,541145
-5,2,-21,-70,-50,-29,-43,-201,-100,-172,-33,-110,-228,100,-158,111,29,53,-33,39,229,22,14,-14,91,161,9,-29,-2,28,39,541146
237,48,-56,-64,-1,2,307,36,-2,-122,-3,57,-184,185,-69,368,-6,-17,-201,300,879,213,1,-204,578,1112,-168,-136,-130,-91,-519,541147
580,82,-128,-95,31,27,674,154,-95,3,140,183,-90,230,85,715,-116,-144,-522,636,1877,451,-101,-512,1265,2625,-466,-342,-382,-315,-1124,541148
581,90,-122,-101,25,18,589,264,-143,-4,68,185,-114,124,43,686,-189,-211,-637,578,1985,416,-200,-613,1244,2898,-559,-442,-512,-417,-1023,541149
344,70,-51,-96,3,-15,230,254,-32,21,19,31,-146,-156,40,423,-166,-155,-513,298,1424,216,-209,-468,741,2156,-420,-379,-453,-349,-504,541150
-72,15,54,-69,-41,-44,-257,23,77,-87,-19,-208,-12,-254,-60,-20,-71,-29,-135,-138,283,-71,-182,-98,-75,455,-94,-135,-180,-118,95,541151
-93,-7,49,-25,-38,-31,-138,163,-85,-176,-97,-157,97,-360,-25,-83,-61,-45,-72,-165,92,-78,-172,-56,-143,138,-64,-101,-91,-64,144,541152
-82,-4,40,-6,-43,-26,5,-62,-76,-46,-10,-46,13,-257,-98,-97,-60,-44,-72,-162,54,-85,-164,-54,-155,40,-56,-99,-69,-51,148,541153
-72,16,40,8,-37,-22,46,-95,60,-19,29,-100,48,-153,-40,-80,-39,-21,-35,-129,27,-68,-132,-29,-147,-38,-39,-59,-31,-32,155,541154
-54,16,37,12,-22,-26,43,94,9,-53,153,-82,11,-275,-65,-61,-56,-31,-45,-119,11,-52,-134,-36,-124,-65,-54,-47,-31,-47,84,541155
-31,13,39,4,-6,1,-67,91,43,-46,-112,-167,38,-173,-94,-28,-43,-16,-60,-77,31,-30,-108,-25,-96,-52,-39,-42,-10,-25,50,541156
99,15,14,-13,8,1,12,73,-30,-79,89,-107,41,-87,-59,121,-38,-34,-110,81,360,73,-78,-91,167,444,-90,-74,-44,-52,-255,541157
231,6,-43,-55,-15,-20,209,217,-110,-5,228,41,-39,-109,45,293,-87,-104,-234,242,847,169,-98,-244,509,1190,-226,-178,-170,-157,-504,541158
299,28,-56,-68,-12,-19,323,286,-206,-20,271,69,-208,-8,44,422,-66,-81,-261,348,1157,251,-45,-292,697,1695,-270,-193,-222,-176,-552,541159
200,38,-40,-77,-31,-41,173,177,-214,-6,181,48,-26,40,0,344,-48,-42,-225,242,970,188,-45,-237,488,1470,-223,-168,-196,-141,-305,541160
-60,6,24,-51,-56,-59,-209,-228,55,-263,-240,-88,-89,-47,-55,75,30,89,14,-39,235,0,-11,36,-77,404,62,-13,2,61,148,541161
-84,-6,40,-42,-47,-42,-263,-238,-7,-219,-274,-56,-9,-38,-90,21,36,78,81,-87,60,-44,-18,81,-148,140,83,32,57,85,120,541162
-51,14,44,-30,-18,-24,-199,24,-2,-36,-257,-25,-28,-103,-79,19,0,27,35,-91,37,-57,-60,36,-119,116,15,14,40,30,82,541163
-30,13,25,-19,-12,-37,-106,138,35,50,-222,-64,55,19,-74,49,-39,-5,-52,-57,98,-46,-90,-16,-46,221,-55,-45,7,-14,-5,541164
-40,27,10,4,-36,-51,-68,70,90,81,-155,-113,-13,164,-16,71,2,30,-31,-37,104,-24,-58,17,-42,182,-17,-21,32,10,71,541165
0,21,8,0,-28,-31,30,-90,44,-57,115,-59,8,-9,109,122,34,50,37,24,177,46,-22,51,13,270,42,21,55,40,-25,541166
152,49,-17,23,14,4,283,200,-110,-98,128,23,50,35,45,200,-68,-75,-147,122,515,92,-103,-142,255,795,-125,-129,-118,-113,-362,541167
390,71,-109,-10,27,-1,657,296,-224,-108,195,21,-100,187,-51,384,-225,-254,-527,321,1249,198,-245,-512,740,1938,-453,-404,-425,-372,-915,541168
405,84,-90,-27,24,-6,674,272,-113,-113,238,5,-103,45,-28,439,-209,-233,-548,338,1409,226,-261,-519,808,2246,-454,-407,-470,-375,-882,541169
221,54,-41,-48,-10,-28,311,-75,-94,-170,7,30,3,-118,-1,305,-103,-107,-323,185,995,135,-148,-297,473,1682,-248,-232,-317,-225,-427,541170
-60,26,64,-27,-26,-31,-202,-182,85,-153,-379,-124,-4,-3,-56,4,42,57,45,-111,133,-78,23,51,-159,390,74,14,-35,26,216,541171
-81,1,43,-48,-45,-37,-209,-34,96,14,-415,-92,-149,-30,-27,6,75,89,138,-69,56,-51,61,121,-161,241,129,74,66,103,277,541172
-78,9,52,-26,-40,-31,-110,8,4,25,-12,63,-12,-174,20,-3,70,87,138,-58,31,-35,44,131,-161,174,124,83,76,106,283,541173
-71,7,57,3,-29,-25,-29,-120,15,80,-8,-93,112,-99,30,-72,-9,8,62,-123,-37,-77,-19,35,-185,81,27,-5,4,4,155,541174
-37,26,62,14,-6,-4,12,31,-4,50,-56,-185,205,-147,-10,-46,-30,-20,23,-113,-19,-68,-27,-15,-118,112,-29,-40,-13,-34,46,541175
-35,27,61,-5,-7,-12,-57,168,7,-12,-123,-157,48,-119,2,39,38,49,70,-19,71,0,43,56,-5,192,45,18,57,31,84,541176
100,27,-5,-38,-10,-19,24,52,-98,68,21,-28,52,-195,-25,214,26,25,-64,161,489,148,24,-49,319,798,-57,-44,-4,-12,-235,541177
248,31,-49,-72,-11,-11,161,5,-136,4,104,143,150,-57,24,372,-45,-52,-264,315,984,245,-74,-232,628,1547,-239,-167,-153,-149,-570,541178
305,45,-37,-54,20,12,176,183,-87,-86,32,124,29,-60,39,386,-95,-102,-329,312,1122,240,-154,-291,692,1824,-303,-212,-224,-204,-647,541179
195,18,-14,-60,-2,-11,113,67,-43,-27,-17,-8,110,60,5,242,-130,-104,-317,136,821,102,-228,-252,446,1460,-243,-215,-235,-188,-366,541180
-34,17,60,-9,-34,-14,-44,68,-10,-49,-88,-148,225,-198,-74,16,-34,26,-56,-93,169,-41,-131,5,-29,495,3,-47,-47,-19,158,541181
-104,16,60,5,-35,-32,-90,70,79,-61,18,-180,269,-133,-50,-64,18,57,84,-148,-88,-74,-47,115,-175,97,96,57,82,71,262,541182
-67,11,34,8,-18,-37,-43,-27,52,-64,154,-182,-23,70,-72,-61,-12,9,47,-144,-68,-83,-23,61,-141,121,38,30,55,27,198,541183
-42,20,39,20,-13,-22,-17,-204,-48,-53,106,-127,-97,-26,-21,-16,-3,10,22,-105,-21,-61,-12,43,-104,176,33,12,40,27,54,541184
-48,15,50,-10,-13,-26,-92,-160,-48,144,-154,-181,6,-368,34,43,57,78,90,-41,10,6,36,110,-71,185,112,72,101,92,106,541185
-32,11,55,-24,-13,-20,-124,-6,-19,180,-156,-81,114,-396,7,15,51,62,94,-46,9,7,34,72,-80,168,86,62,74,53,50,541186
101,19,20,-24,1,-1,38,15,-28,31,9,45,102,-73,-23,85,-66,-65,-96,26,315,29,-88,-116,137,650,-120,-88,-90,-95,-336,541187
260,53,-18,-2,30,18,310,136,-80,164,66,64,126,-64,20,217,-183,-181,-322,142,766,104,-211,-314,430,1351,-320,-252,-267,-252,-661,541188
262,61,-31,0,20,5,370,101,-104,75,94,21,238,-70,-53,235,-210,-201,-394,146,858,113,-253,-358,478,1547,-349,-301,-316,-296,-625,541189
165,54,12,-9,2,-1,251,156,-86,-103,288,43,137,-7,-106,159,-132,-108,-322,83,623,81,-200,-234,301,1250,-213,-250,-231,-199,-319,541190
-32,36,52,1,-24,-22,25,-126,-46,-33,53,-158,58,-110,-118,-37,-82,-18,-136,-117,66,-58,-126,-54,-110,439,-41,-143,-106,-65,94,541191
-73,34,33,-3,-27,-28,-84,26,88,15,-193,-136,52,-33,-109,-72,-67,-23,-46,-138,-81,-86,-111,7,-169,210,-11,-83,-48,-17,96,541192
-91,7,13,-31,-26,-51,-132,-133,144,-7,-143,-106,-139,3,-8,-29,11,38,98,-86,-67,-21,-16,94,-127,180,60,37,32,50,187,541193
-52,20,25,-19,-8,-35,-66,-194,32,82,-23,-5,-211,70,60,30,78,96,159,-29,1,15,78,112,-79,245,91,72,74,79,204,541194
-67,6,10,-28,-24,-62,-77,-192,20,-8,-244,-41,15,86,42,11,47,64,99,-60,-21,-32,54,74,-118,197,69,29,39,45,144,541195
-63,15,32,-12,-15,-42,-132,6,130,-38,-179,43,22,5,18,23,57,73,84,-54,-12,-12,67,76,-109,194,70,36,37,46,93,541196
85,11,-1,-21,-1,-14,-1,158,119,-169,-48,145,-30,113,43,183,51,65,-10,128,363,130,37,-2,193,744,-1,-1,-9,6,-161,541197
377,47,-64,-45,27,15,369,162,-162,-150,306,285,84,212,114,496,-34,-32,-273,428,1216,338,-40,-273,768,2032,-259,-178,-210,-175,-691,541198
471,82,-87,-61,35,4,527,305,-166,22,314,258,-39,121,107,586,-100,-95,-440,491,1580,372,-90,-431,961,2641,-404,-300,-359,-298,-876,541199
379,79,-66,-70,12,-3,421,296,-76,-28,437,76,-59,150,9,484,-105,-69,-427,365,1416,266,-112,-382,772,2484,-346,-313,-373,-285,-692,541200
-50,27,40,-68,-44,-32,-148,-55,9,16,60,-137,55,44,-97,62,2,78,-28,-74,279,-46,-15,26,-65,844,49,-49,-80,-17,291,541201
-133,22,77,-36,-31,-35,-254,-20,79,164,-17,-68,168,-133,-48,-21,68,117,171,-127,-65,-59,51,198,-214,278,190,102,106,136,471,541202
-108,9,63,-29,-33,-40,-199,-10,122,-35,115,-22,191,-120,5,-29,34,49,93,-126,-91,-41,14,117,-185,246,91,45,77,76,216,541203
-115,-5,58,-26,-26,-27,-189,-110,192,-144,-10,-63,154,-256,-27,-48,8,25,68,-143,-174,-52,-15,102,-233,111,69,22,75,54,200,541204
-69,14,65,-2,-2,-3,-111,8,39,-122,41,-97,69,-303,-42,-25,-21,20,59,-112,-121,-51,-19,59,-195,160,38,18,50,45,114,541205
-10,23,35,-7,2,-4,-35,-101,-27,-93,-12,30,55,-118,-35,12,-66,-38,-4,-61,31,-46,-61,-25,-63,411,-37,-27,-21,-17,-48,541206
363,56,-56,-40,34,14,393,108,-89,-44,417,227,-11,182,24,431,-144,-160,-338,348,1062,240,-150,-328,725,1952,-330,-223,-227,-200,-846,541207
1195,145,-290,-107,108,66,1420,961,-423,-2,944,501,-95,356,186,1339,-397,-469,-1154,1214,3538,841,-399,-1128,2474,5715,-1071,-744,-824,-735,-2400,541208
1309,184,-307,-144,103,56,1564,1013,-424,-163,840,322,-159,303,217,1486,-500,-533,-1438,1278,4218,896,-524,-1364,2761,6934,-1273,-954,-1123,-956,-2450,541209
961,152,-187,-167,29,27,1115,406,-373,-188,555,279,-124,127,62,1172,-392,-367,-1216,903,3537,662,-472,-1080,2098,6087,-986,-820,-1005,-797,-1578,541210
-78,62,97,-112,-96,-73,-153,-416,55,-88,-310,-170,105,-427,-111,109,-73,28,-254,-178,727,-61,-219,-115,-16,2038,-66,-229,-364,-189,476,541211
-355,45,167,-44,-94,-83,-507,-416,136,-46,-304,-317,162,-265,-204,-212,56,131,174,-422,-297,-235,-59,231,-613,426,227,49,-14,95,753,541212
-277,23,142,-62,-73,-68,-433,-348,120,-106,-307,-276,296,-228,-155,-131,74,118,197,-307,-247,-171,-24,227,-457,426,212,77,54,142,499,541213
-212,13,125,-57,-54,-37,-365,-68,112,-91,-329,-181,171,-241,-74,-72,101,128,227,-224,-191,-114,46,212,-367,463,189,102,95,149,419,541214
-186,11,114,-47,-44,-34,-332,-258,131,-82,-220,-56,91,-10,-98,-65,105,137,260,-189,-187,-85,96,225,-342,430,220,133,130,181,408,541215
-170,-9,92,-61,-51,-48,-378,-347,118,-146,-277,-16,156,-47,-211,-36,91,141,256,-160,-164,-48,62,235,-293,437,239,158,163,197,311,541216
97,11,11,-84,-19,-31,-55,-30,126,-119,-170,161,38,255,-24,279,50,59,23,164,591,177,-8,2,284,1506,24,34,37,64,-242,541217
444,68,-72,-106,19,-4,417,203,-90,50,-80,239,172,328,127,650,-29,-71,-311,520,1624,419,-73,-321,1012,3077,-289,-180,-223,-158,-800,541218
669,110,-139,-150,25,-3,728,516,-204,-21,308,349,73,524,148,951,-103,-146,-558,800,2445,618,-136,-536,1562,4346,-486,-333,-402,-317,-1264,541219
633,116,-123,-180,7,-14,563,480,-278,-151,173,187,-152,279,88,944,-143,-134,-674,737,2524,583,-213,-570,1521,4585,-494,-400,-498,-372,-1067,541220
-130,25,88,-168,-65,-74,-584,-3,29,-185,-53,-182,61,-160,-123,99,10,93,-70,-131,403,-21,-82,28,-115,1554,53,-69,-127,-29,537,541221
-289,-3,147,-90,-53,-50,-745,-326,101,-25,-79,-184,24,-45,-81,-165,44,115,177,-336,-298,-190,-26,184,-546,448,185,51,53,96,574,541222
-235,-21,105,-30,-49,-39,-457,-325,100,-112,-117,-171,34,-176,-22,-202,-24,34,118,-331,-323,-217,-93,104,-511,379,120,-4,21,50,404,541223
-176,-8,105,0,-29,-10,-192,-107,226,56,-106,-145,60,-212,-93,-182,-55,18,72,-288,-319,-176,-143,88,-472,345,111,-20,12,47,367,541224
-85,17,102,27,17,15,-12,133,151,-80,19,-108,201,-223,-93,-133,-79,-24,20,-223,-162,-136,-155,-6,-348,521,7,-70,-39,-30,97,541225
-94,25,86,47,10,-3,-39,15,74,3,-95,-125,290,-241,-67,-183,-115,-98,-20,-273,-187,-213,-172,-82,-378,468,-78,-118,-102,-94,90,541226
155,38,-13,6,14,-19,194,33,-177,30,281,-16,7,-139,-34,136,-125,-136,-165,57,552,28,-169,-207,214,1529,-206,-167,-161,-150,-448,541227
588,96,-117,-40,65,24,681,301,-229,-75,433,150,13,-70,65,674,-151,-182,-459,561,1845,423,-195,-495,1156,3471,-473,-303,-352,-317,-1069,541228
600,99,-121,-79,42,17,687,217,-135,-24,384,144,-91,58,88,727,-180,-189,-562,565,2039,431,-235,-546,1230,3894,-529,-365,-449,-395,-1020,541229
394,74,-57,-104,-6,-10,436,203,-94,-26,326,37,-1,123,60,541,-160,-125,-435,333,1564,261,-204,-397,832,3309,-369,-285,-388,-305,-633,541230
-93,29,82,-56,-65,-60,-126,-209,32,66,-73,-123,213,-41,-12,80,15,83,25,-149,226,-54,-13,86,-142,1382,70,5,-46,19,366,541231
-177,39,112,-5,-39,-56,-243,-309,85,28,-204,-128,317,-58,-114,-52,33,100,129,-244,-184,-138,9,166,-372,755,149,57,57,100,409,541232
-140,23,94,3,-23,-41,-248,-126,18,119,-201,-197,77,6,-141,-99,-31,31,59,-252,-219,-178,-46,64,-356,703,50,-8,-8,28,260,541233
-136,14,86,-5,-26,-32,-218,-110,154,-19,-72,-204,218,-173,-86,-78,-6,59,116,-207,-191,-113,-32,116,-303,710,107,49,57,86,234,541234
-155,22,64,-4,-38,-29,-196,-120,132,-28,-215,-123,111,-75,-57,-67,31,85,161,-173,-207,-96,-23,157,-306,663,148,88,99,130,281,541235
-169,22,57,16,-28,-33,-137,-167,27,-89,-132,-95,28,-58,-41,-112,-11,38,118,-226,-298,-146,-68,104,-366,537,98,35,53,77,231,541236
-51,23,33,27,-4,-12,28,-54,24,-5,-460,-71,-33,46,-27,-23,-44,-23,35,-131,-56,-86,-77,12,-168,868,-2,-17,-3,1,92,541237
78,45,5,20,18,-3,171,185,-46,30,-117,-31,-43,28,-72,109,-54,-42,-60,7,298,20,-63,-77,85,1383,-72,-53,-67,-50,-121,541238
-6,31,25,15,-3,-20,52,-130,12,-124,58,-116,106,-197,-160,5,-50,-32,-36,-107,74,-54,-67,-31,-133,1027,-30,-46,-49,-29,90,541239
-18,42,48,19,10,-1,53,-282,-24,-207,64,-144,79,-129,-97,-5,-23,-2,48,-102,21,-60,-30,34,-139,930,30,18,6,12,106,541240
-59,24,58,-15,-5,-8,70,-256,-29,-111,216,-60,252,-45,-17,-28,13,31,108,-114,-61,-76,14,89,-189,772,73,69,40,46,102,541241
-80,26,59,4,-7,-12,80,-356,30,-12,131,-34,150,-157,-42,-35,2,30,93,-111,-125,-71,10,76,-208,629,67,51,39,47,126,541242
-96,8,57,13,-23,-14,-40,-136,108,-33,-10,-82,111,-80,-58,-61,-5,19,88,-129,-165,-77,-18,62,-229,549,73,36,31,44,151,541243
-81,-1,54,-6,-17,-22,-115,-55,-13,-96,41,-94,127,-137,-61,-28,55,57,167,-88,-105,-37,58,101,-196,561,120,99,82,87,212,541244
-113,-11,41,-40,-29,-34,-188,-132,-58,-35,52,-93,182,-1,-106,-67,50,34,138,-113,-127,-47,67,86,-217,504,109,85,62,63,226,541245
-121,-3,55,-35,-14,-29,-257,-73,51,97,49,-24,128,116,-66,-67,66,60,119,-113,-125,-36,69,104,-199,473,130,100,86,84,273,541246
-141,-12,34,-61,-30,-39,-370,78,172,145,-29,4,166,98,59,-48,103,106,180,-87,-136,-13,102,166,-174,449,184,152,148,131,338,541247
-231,-29,49,-52,-48,-44,-542,-3,218,-10,5,114,18,110,116,-113,137,152,292,-159,-416,-63,128,273,-335,44,282,225,241,210,449,541248
-253,-18,75,10,-24,-22,-495,-262,142,-4,-246,21,113,-31,77,-143,176,205,369,-183,-605,-84,164,368,-438,-251,364,287,325,281,552,541249
-277,-18,89,32,-14,-24,-427,-232,249,145,-377,-118,36,-35,11,-228,140,187,398,-257,-831,-159,133,379,-571,-575,353,272,324,273,635,541250
-80,-31,34,-8,7,6,-114,15,135,27,41,-25,188,44,5,-39,53,78,197,-59,-354,-37,59,177,-196,136,152,139,188,137,159,541251
-42,-14,19,29,14,14,15,-69,18,-34,104,53,196,113,-20,-64,-28,-7,33,-94,-254,-81,-21,19,-181,338,22,12,32,10,43,541252
-41,20,24,58,30,29,38,-197,3,-6,-141,-98,75,116,-24,-82,-9,4,36,-112,-269,-88,8,15,-211,318,27,14,34,8,47,541253
-44,6,14,14,13,5,33,-266,-102,-183,-229,-5,-22,145,-111,-46,-14,4,56,-70,-209,-61,-21,46,-157,398,59,56,55,35,96,541254
-74,-10,32,7,11,5,3,-172,-24,-51,62,-15,104,53,-46,-64,-4,10,94,-87,-276,-79,-42,98,-196,307,111,94,83,77,146,541255
-87,-22,21,3,4,-14,-19,-176,-85,-81,46,-72,62,-36,62,-127,-47,-45,50,-143,-346,-140,-65,32,-254,235,35,39,28,23,92,541256
-189,-24,45,20,0,-15,-258,-187,-13,-122,100,-241,-24,-281,-41,-314,-79,-77,78,-320,-692,-285,-94,48,-518,-263,50,6,24,0,240,541257
-245,-27,99,77,28,22,-418,-191,183,-50,-36,-242,-76,-381,-147,-429,-41,-28,174,-420,-1005,-348,-63,148,-706,-764,150,65,107,67,417,541258
-369,-63,129,90,-2,19,-476,-367,223,-17,-8,-176,180,-186,-144,-519,38,68,317,-506,-1368,-398,24,290,-950,-1376,285,179,222,177,715,541259
-419,-67,145,101,-17,9,-440,-300,283,98,-4,10,240,-82,-65,-557,127,118,484,-506,-1554,-371,166,401,-1052,-1793,362,294,354,264,802,541260
-18,-23,13,92,39,32,154,-34,17,45,-13,60,-133,47,13,-144,25,-30,156,-64,-468,-49,76,69,-214,-274,54,94,144,68,-59,541261
106,-1,-22,69,49,41,297,166,-49,-76,24,-30,-167,-119,-2,11,-28,-45,-30,57,-24,37,1,-76,40,378,-67,-24,-6,-48,-228,541262
83,12,1,32,47,53,162,99,-62,125,-33,-17,-108,16,-6,41,15,19,28,69,25,62,46,-14,29,422,5,15,23,-6,-126,541263
32,2,2,25,35,46,-16,121,-47,116,-189,79,-74,158,-33,-9,31,28,80,15,-74,42,66,40,-50,285,41,52,50,29,1,541264
15,-19,-14,23,14,10,-54,-45,-45,-85,93,134,38,103,-13,-13,41,16,79,21,-56,48,58,34,-24,298,43,54,42,28,42,541265
22,-27,-15,17,2,2,10,-5,3,-187,102,13,-7,174,54,43,68,51,97,59,-3,88,78,75,14,349,79,91,73,74,30,541266
-334,-59,96,43,-20,-3,-356,-163,169,6,-214,-211,189,-205,-68,-355,141,172,404,-345,-993,-218,161,361,-760,-1099,360,258,245,232,881,541267
-917,-120,257,103,-62,-28,-1022,-559,338,-41,-397,-420,68,-176,-183,-1029,335,376,991,-967,-2778,-679,370,903,-2013,-3806,869,626,668,591,1894,541268
-919,-147,234,115,-51,-30,-1035,-374,260,27,-341,-310,-185,-104,-153,-1058,361,363,1068,-945,-3019,-685,408,957,-2049,-4298,899,686,789,665,1745,541269
-667,-120,155,131,1,3,-738,-213,284,111,-370,-200,-77,-154,-59,-834,265,226,874,-693,-2513,-520,324,747,-1571,-3647,679,563,679,520,1122,541270
-27,-52,-29,94,73,61,5,176,52,180,85,147,-111,2,59,-248,18,-70,200,-75,-834,-122,110,64,-323,-1182,63,110,203,71,-288,541271
163,-41,-67,16,55,58,210,-41,-36,141,284,285,-154,-12,186,20,-26,-87,-57,148,-107,55,62,-133,128,-55,-78,-34,8,-73,-388,541272
107,-42,-34,6,51,52,125,50,11,48,21,234,-128,135,153,58,28,12,2,151,-95,80,89,-18,105,-12,33,40,74,23,-149,541273
52,-41,-33,8,31,40,50,64,-44,63,-83,95,17,90,27,15,5,3,-3,92,-174,33,37,14,36,-84,49,48,67,27,-98,541274
33,-31,-45,15,17,31,55,188,-224,-7,20,31,-132,32,16,-3,-8,-28,-4,70,-208,15,28,22,27,-92,32,49,67,23,-105,541275
19,-12,-43,45,3,11,99,102,-101,-63,87,53,-185,135,128,-11,25,-4,30,61,-235,13,62,60,21,-118,62,67,91,47,-32,541276
-166,-21,11,67,-15,-10,-64,-260,-37,149,-21,-76,-16,51,12,-186,84,87,230,-132,-730,-93,139,262,-339,-871,258,207,232,182,433,541277
-445,-54,89,82,-28,-12,-368,-326,110,110,-101,-224,-41,-17,-10,-503,156,161,465,-421,-1559,-299,190,490,-908,-2143,479,343,410,324,949,541278
-571,-90,116,100,-32,7,-574,-446,182,65,-214,-368,70,-304,-63,-726,123,122,536,-617,-2035,-459,169,512,-1254,-2911,485,338,424,323,1016,541279
-544,-90,92,127,-11,-3,-509,-394,261,32,-418,-225,114,-99,-46,-757,104,62,538,-603,-2045,-477,150,448,-1249,-3053,417,317,394,292,807,541280
13,-14,-62,125,55,25,241,-56,131,-12,-32,90,-42,211,92,-114,52,-55,152,54,-483,16,87,60,-57,-896,61,135,175,81,-266,541281
139,-14,-98,55,37,25,358,6,93,-9,121,191,-98,284,129,96,49,-38,8,221,73,165,94,-39,282,-51,-23,76,62,-1,-381,541282
115,-2,-71,16,37,31,231,209,-79,129,-51,154,-104,286,58,96,54,-8,35,193,116,153,117,-20,249,21,-13,81,42,-2,-207,541283
103,3,-46,12,31,29,110,153,-164,165,-134,170,-5,114,45,23,12,-50,4,117,78,90,67,-55,178,13,-49,39,-2,-49,-243,541284
100,-14,-44,10,23,22,70,50,-5,246,3,271,-101,203,136,24,8,-42,-24,103,77,81,38,-53,172,42,-24,14,-14,-42,-207,541285
82,-28,-40,-8,12,18,65,118,-38,22,2,144,-119,103,156,85,95,58,80,153,87,154,140,70,188,52,84,109,88,61,-36,541286
-401,-88,85,6,-41,-12,-477,-351,83,7,-349,-168,3,32,47,-425,189,209,450,-363,-1217,-213,218,442,-813,-1846,435,324,318,281,1006,541287
-1016,-124,258,107,-73,-32,-1158,-723,400,86,-951,-375,196,-174,-136,-1162,330,389,1002,-1037,-3142,-722,346,982,-2163,-4784,932,655,717,635,2027,541288
-1005,-137,247,152,-42,-15,-1141,-602,372,137,-700,-217,233,-305,-134,-1223,327,350,1093,-1021,-3418,-741,378,1003,-2215,-5359,941,714,823,687,1832,541289
-701,-120,133,160,-1,1,-732,-315,171,75,-305,-104,193,-190,-28,-892,283,238,863,-648,-2694,-493,349,775,-1559,-4421,709,601,730,572,1142,541290
43,-39,-69,122,87,75,154,194,-76,112,228,136,-88,193,54,-136,44,-48,155,111,-672,1,157,79,-47,-1502,45,154,249,118,-365,541291
233,-43,-130,26,70,71,317,252,-138,75,102,160,-118,202,129,98,-42,-123,-135,290,72,140,38,-159,390,-324,-162,-33,3,-82,-514,541292
178,-34,-104,24,55,56,231,346,-118,37,171,204,-61,216,130,87,-6,-75,-89,245,58,138,53,-85,327,-293,-76,10,19,-52,-312,541293
142,-11,-87,35,47,38,203,291,-77,120,269,196,-157,313,150,61,10,-64,-85,207,41,110,61,-72,285,-285,-63,7,2,-55,-249,541294
112,-21,-86,23,24,17,156,165,-144,134,8,122,-199,147,115,44,19,-45,-81,188,45,106,65,-59,262,-288,-74,15,8,-53,-226,541295
118,-6,-58,38,40,41,155,160,-124,229,259,77,-84,144,61,49,41,-16,-42,183,76,122,80,-29,249,-281,-55,40,30,-30,-164,541296
-64,-32,1,28,15,28,-16,212,-124,88,253,39,-39,46,23,-125,85,62,125,-1,-369,-11,119,129,-108,-937,87,141,127,73,165,541297
-305,-60,74,48,-6,20,-294,-137,68,76,37,6,-88,-8,38,-397,133,142,348,-273,-1100,-214,173,336,-625,-2018,292,265,274,217,602,541298
-375,-63,88,81,6,30,-402,-336,137,167,-300,-141,-209,-45,43,-540,141,142,421,-392,-1471,-296,173,405,-846,-2564,351,302,340,261,733,541299
-351,-71,55,110,6,19,-333,-168,115,231,-220,-103,-113,-158,-11,-529,121,87,412,-366,-1497,-280,165,368,-823,-2651,303,290,349,238,548,541300
83,-25,-75,89,51,46,235,112,7,264,30,150,-121,116,79,-72,-23,-82,-2,91,-286,28,57,-42,92,-895,-50,19,83,-15,-390,541301
166,-38,-109,18,34,34,311,146,-144,147,101,129,-110,199,121,69,-48,-101,-160,196,132,107,8,-143,352,-215,-123,-66,-49,-108,-426,541302
136,-35,-89,-14,30,29,221,193,-138,1,50,195,109,166,35,103,6,-25,-102,208,172,136,46,-64,360,-146,-49,8,-3,-41,-269,541303
130,-7,-77,-3,26,23,160,174,-158,-83,239,181,9,105,49,123,15,-18,-67,211,204,140,53,-39,393,-68,-32,24,4,-26,-275,541304
65,-14,-72,-7,10,8,86,152,-165,-31,132,125,-52,163,50,57,4,-33,-56,121,61,66,38,-22,268,-213,-19,24,8,-28,-150,541305
68,-12,-55,6,26,25,87,242,-49,114,53,94,-137,162,41,83,60,38,14,140,51,96,71,58,268,-240,61,96,77,50,-11,541306
-15,-16,-39,19,0,19,24,58,52,-71,-63,60,-179,71,59,-4,82,62,73,52,-174,39,94,105,70,-574,108,114,97,80,156,541307
-75,-29,-36,7,-14,-10,-19,-146,-48,-95,-46,129,-161,58,10,-57,91,74,104,13,-319,18,130,131,-48,-811,132,114,122,98,216,541308
-43,-27,-36,-15,-15,-10,-16,31,-59,-126,115,128,-95,0,-20,-17,74,80,90,73,-214,63,113,110,31,-678,139,96,119,105,64,541309
43,-26,-50,-17,5,9,1,-54,-124,-75,107,107,-45,-1,30,50,39,21,0,156,26,121,61,26,201,-337,80,39,62,60,-58,541310
67,-9,-41,-10,21,26,-71,59,-152,-125,117,34,-47,93,65,71,58,30,7,169,112,135,71,14,228,-217,57,39,42,49,74,541311
54,-22,-29,-24,16,28,-125,168,-76,-119,76,-28,-168,171,106,25,28,1,-7,128,67,86,62,-20,147,-280,-12,-8,-8,-9,-56,541312
17,-38,-25,-45,-1,13,-96,155,20,-109,208,46,169,-45,46,-6,17,-20,22,94,21,52,53,-5,71,-343,9,1,-13,-11,-59,541313
22,-29,-24,-13,14,11,-37,287,-72,5,150,135,-30,10,80,7,47,8,33,94,4,26,99,5,53,-386,27,11,5,8,10,541314
78,-7,-6,8,41,38,12,-23,133,131,199,86,-45,51,43,47,26,3,-57,122,101,62,69,-50,136,-258,-34,-38,-30,-45,-60,541315
75,3,-14,7,31,51,-19,153,214,208,134,60,47,24,-104,10,-32,-50,-121,81,101,35,-2,-114,118,-218,-96,-95,-90,-105,-35,541316
11,-19,-18,-19,1,22,-106,103,133,81,251,70,-40,-62,-34,-44,-37,-44,-79,32,-3,-7,-16,-90,40,-353,-59,-49,-85,-84,-12,541317
-67,-43,-9,-61,-27,-4,-242,-62,70,12,-79,46,37,-70,36,-49,45,36,73,18,-157,13,76,67,-42,-622,69,97,59,37,87,541318
53,-14,-26,-54,12,14,-27,157,25,94,-125,167,-46,101,126,133,84,71,51,189,138,150,131,63,228,-206,60,102,89,67,-109,541319
173,5,-100,-47,3,1,262,345,-36,43,99,139,15,86,60,286,1,-7,-165,309,549,220,62,-121,509,475,-101,-68,-68,-62,-324,541320
38,11,-60,-4,-19,-17,106,73,-132,62,-80,22,-118,39,-47,92,-28,-26,-138,93,193,51,8,-91,204,56,-70,-80,-78,-70,-53,541321
6,20,-13,33,2,0,55,38,-78,12,-344,4,-104,44,-38,-15,-9,-23,-45,8,-2,-5,1,-28,68,-218,-16,-23,-19,-20,-53,541322
34,1,-38,1,5,-9,127,-24,-45,-208,-91,20,-72,-71,-43,32,-24,-34,-101,57,107,21,-11,-62,145,-68,-48,-34,-49,-33,-76,541323
-11,-19,-34,6,-10,-9,98,-253,44,-120,-125,-2,-142,67,46,-23,-30,-26,-100,-15,-28,-31,-31,-51,38,-252,-46,-40,-46,-40,12,541324
11,-1,-17,44,17,33,131,-85,31,-3,3,-125,-179,101,1,-46,-36,-17,-66,-39,-85,-53,-20,-44,-11,-319,-59,-38,-41,-41,-20,541325
36,3,-22,54,32,38,162,-61,34,89,-97,-38,-140,0,-50,-92,-87,-70,-108,-72,-103,-107,-57,-115,-49,-309,-126,-103,-109,-100,-120,541326
197,39,-36,60,74,58,353,72,-84,136,130,58,-171,13,37,61,-141,-152,-252,86,296,1,-114,-256,237,281,-236,-178,-204,-182,-515,541327
304,35,-70,15,58,42,478,108,-70,6,176,-6,41,10,-3,191,-193,-215,-387,206,691,87,-182,-369,484,900,-338,-267,-307,-266,-640,541328
222,29,-61,-12,34,18,360,10,-88,17,74,47,117,65,23,139,-162,-167,-300,145,583,59,-117,-308,376,758,-283,-221,-281,-233,-434,541329
223,48,-67,-1,22,18,380,103,-68,-26,137,131,-58,223,11,175,-134,-135,-303,186,687,96,-83,-325,436,912,-297,-214,-294,-239,-468,541330
2,34,-25,31,-19,-26,136,196,-58,-155,-89,-1,-147,76,-31,3,-30,-8,-79,0,171,-7,-17,-73,70,142,-42,-39,-102,-58,74,541331
-59,22,-25,32,-23,-46,34,36,6,-127,62,-79,26,-6,-76,3,55,77,81,15,3,31,54,118,31,-175,118,109,87,89,145,541332
-50,-1,-2,16,-21,-30,-39,-99,-36,-21,54,-51,34,-7,-6,-21,32,37,37,8,-52,36,29,94,35,-272,75,77,79,67,146,541333
17,9,16,17,9,23,-7,-2,16,-14,33,-82,-23,-166,51,-11,11,-9,-47,40,59,63,10,-4,105,-123,-14,-3,11,3,-21,541334
40,0,-3,8,3,16,12,-3,118,24,4,34,-194,-243,72,-16,-31,-36,-103,39,137,22,-14,-92,104,11,-87,-78,-75,-83,-119,541335
50,-10,-3,-6,10,21,13,-55,50,93,-3,1,-16,-274,48,-11,-60,-46,-116,31,156,7,-45,-108,107,65,-81,-99,-109,-91,-110,541336
100,5,-5,-2,17,34,98,99,108,43,-83,128,-12,-85,78,40,-59,-64,-162,80,255,48,-43,-118,194,244,-95,-119,-128,-85,-156,541337
9,2,8,8,-1,14,36,13,74,39,-131,44,-27,-53,-11,-26,-22,-10,-64,1,23,8,0,-17,0,-79,2,-49,-48,-11,19,541338
59,6,-26,12,8,-12,118,45,-110,83,-81,-10,31,40,50,46,-30,-35,-61,96,187,78,-10,-42,169,152,-21,-44,-27,-1,-164,541339
194,42,-53,3,33,18,242,111,-269,72,-71,14,46,35,36,194,-90,-84,-229,221,586,163,-93,-178,470,785,-150,-141,-132,-97,-362,541340
-11,1,-4,-35,-13,-1,-60,10,-62,66,-89,-37,65,82,1,-15,-76,-45,-130,-28,81,-27,-83,-74,21,96,-45,-106,-97,-56,51,541341
-48,-17,-3,-44,-16,-15,-158,70,11,31,26,31,97,230,-12,-62,-32,-25,-41,-78,-84,-69,-65,-27,-99,-175,-2,-53,-43,3,66,541342
30,5,-1,-7,1,1,-39,-78,59,38,-16,5,112,55,45,0,-4,-12,-46,5,53,-4,-37,-34,35,9,-24,-29,-25,2,-11,541343
35,2,-11,-8,-2,-9,42,-91,72,-34,118,-3,-10,84,84,43,17,9,-20,42,119,20,3,-6,91,81,2,3,-5,23,-29,541344
42,21,12,-6,8,22,73,-123,115,-97,-101,-10,50,120,23,78,38,38,29,57,142,42,48,30,104,111,45,42,22,47,23,541345
44,29,5,-12,6,14,64,-9,89,-55,-2,2,25,-23,-18,46,-27,-33,-75,43,159,14,-12,-63,114,167,-53,-49,-50,-45,-67,541346
-104,-8,17,-42,-38,-19,-219,-43,5,-43,-253,-9,25,-99,-54,-95,4,26,-7,-104,-208,-62,-8,40,-124,-354,49,22,29,30,172,541347
-182,-39,25,-47,-47,-30,-397,5,10,107,-203,-38,184,-88,-35,-118,53,80,115,-121,-406,-46,36,164,-226,-677,163,120,142,137,285,541348
-254,-48,45,-49,-56,-33,-511,-105,60,67,-160,-11,105,133,-28,-164,113,144,238,-149,-583,-49,115,267,-363,-1017,264,192,225,207,428,541349
-325,-49,53,-45,-69,-56,-510,-246,107,-113,-363,-33,-108,357,-46,-190,218,233,405,-150,-767,-46,231,401,-483,-1368,385,315,352,319,636,541350
-93,-18,-7,6,-11,-23,-9,-95,69,-136,-204,55,-60,213,0,28,145,122,246,79,-214,95,172,223,-48,-577,198,229,235,204,181,541351
118,20,-49,61,41,31,364,204,15,-45,104,22,-132,-58,-60,94,-34,-69,-40,148,240,81,7,-70,225,138,-68,12,-27,-29,-295,541352
88,25,-24,53,44,41,225,218,40,-20,86,-66,-174,-288,-89,-43,-133,-141,-137,-15,85,-54,-99,-151,44,-28,-149,-99,-148,-136,-281,541353
65,19,-12,30,29,29,139,90,72,-146,282,24,-72,-168,-24,-75,-149,-159,-179,-65,25,-83,-135,-182,-13,-97,-187,-147,-183,-167,-255,541354
29,14,-11,29,14,10,109,65,80,-63,211,64,24,95,-34,-31,-49,-59,-60,-22,19,-31,-42,-84,-4,-132,-71,-58,-104,-63,-42,541355
30,-1,-14,-8,21,17,-8,-35,3,-185,-84,-27,-17,82,-52,-24,-26,-35,-40,-2,21,-12,-26,-50,-1,-150,-32,-28,-65,-32,-59,541356
-160,-23,55,21,24,21,-331,-61,45,-89,-119,-173,102,-285,-49,-254,11,48,86,-249,-562,-177,-19,106,-467,-1008,120,35,32,56,433,541357
-587,-66,163,90,-42,-35,-719,-217,237,-52,-320,-182,171,-150,-215,-664,194,260,565,-641,-1790,-430,157,557,-1326,-2909,529,334,385,376,1251,541358
-672,-69,179,149,-38,-42,-722,-308,318,17,-218,-96,127,-97,-147,-792,241,294,717,-713,-2189,-499,215,681,-1513,-3610,652,446,528,482,1397,541359
-678,-82,172,167,-14,-18,-776,-333,317,70,-300,-171,30,-193,-118,-858,233,279,755,-720,-2381,-505,219,724,-1544,-3986,681,495,601,512,1367,541360
-5,-30,-7,116,61,49,23,148,10,-22,207,104,-87,55,116,-154,70,36,232,41,-627,14,75,164,-158,-1451,127,177,258,174,-86,541361
233,-2,-86,47,58,52,317,322,-169,-65,203,167,-32,43,81,110,-92,-136,-174,244,208,136,-71,-186,379,-118,-194,-94,-57,-108,-490,541362
184,3,-59,45,49,48,244,188,-127,-48,126,51,-43,61,110,63,-91,-130,-206,164,151,72,-77,-188,282,-143,-173,-127,-105,-122,-394,541363
130,7,-28,39,58,56,183,186,-33,60,205,-36,19,120,37,15,-62,-85,-157,104,63,18,-32,-142,167,-253,-120,-89,-95,-92,-291,541364
105,0,-38,19,32,38,158,88,-13,-40,-13,-15,60,-51,-18,43,-12,-48,-76,126,87,38,67,-78,189,-222,-89,-26,-37,-54,-232,541365
57,3,-30,26,13,24,126,10,50,25,70,81,-122,-57,-42,17,-16,-52,-80,95,35,20,55,-66,144,-310,-68,-30,-35,-55,-170,541366
-224,-18,64,60,-8,1,-200,17,147,71,-139,-47,-15,-213,-76,-297,52,68,155,-238,-753,-192,86,176,-461,-1472,176,113,121,91,593,541367
-1037,-121,285,138,-90,-57,-1190,-685,377,38,-550,-504,195,-361,-185,-1152,327,411,983,-1074,-3137,-726,332,995,-2159,-5086,940,653,732,650,2193,541368
-1088,-145,281,199,-59,-25,-1207,-764,372,175,-610,-484,82,-283,-102,-1264,418,429,1208,-1097,-3628,-755,448,1164,-2342,-6017,1060,799,948,807,2170,541369
-758,-125,177,206,-2,21,-754,-272,299,304,-480,-258,-11,-272,-61,-1038,250,214,902,-813,-2956,-603,326,809,-1774,-5167,700,573,720,562,1261,541370
-47,-60,-29,145,74,64,113,-2,138,312,249,197,-94,42,83,-309,24,-75,226,-68,-999,-96,129,114,-323,-2339,71,141,237,113,-251,541371
235,-19,-102,70,84,79,406,35,66,268,320,326,-99,257,126,64,-40,-132,-95,241,19,143,41,-163,337,-807,-160,-36,-15,-83,-613,541372
201,5,-74,62,76,74,334,59,78,82,231,202,-242,142,54,78,-8,-75,-75,205,59,140,46,-103,297,-708,-107,-13,-21,-59,-378,541373
177,1,-71,54,62,61,265,-44,95,61,-66,187,-142,33,51,92,1,-49,-56,205,87,165,38,-57,281,-630,-56,4,4,-28,-327,541374
161,-1,-90,33,45,46,250,90,-64,47,41,151,-8,112,53,71,-22,-71,-92,166,123,121,24,-99,271,-530,-79,-41,-48,-66,-395,541375
141,2,-80,33,37,25,332,96,-151,-32,180,167,-74,212,120,102,16,-31,-59,183,168,130,68,-77,284,-450,-58,-18,-46,-43,-229,541376
94,9,-71,30,24,12,330,-145,-106,119,117,132,82,235,35,54,11,-27,-56,141,102,83,50,-52,195,-529,-48,-16,-41,-33,-166,541377
20,4,-42,50,33,27,165,46,45,124,61,21,173,11,2,-91,-31,-46,-39,4,-158,-26,-13,-17,-7,-892,-13,-9,-37,-19,-31,541378
-111,-22,-12,34,4,12,-126,-16,45,-183,55,66,15,-61,-58,-229,0,-11,88,-137,-517,-118,17,94,-261,-1429,70,85,51,38,197,541379
-179,-45,19,8,-1,6,-304,-174,41,-72,25,121,-117,3,13,-266,97,78,258,-150,-734,-116,104,245,-365,-1795,212,211,195,163,296,541380
90,-13,-37,3,36,36,28,261,34,116,150,208,-204,50,113,59,92,37,98,189,-20,119,122,65,200,-792,35,127,111,78,-263,541381
207,18,-76,1,41,40,207,415,38,103,131,157,-125,171,104,248,69,26,-49,355,417,238,129,-51,486,-112,-89,42,10,-6,-332,541382
135,14,-72,9,18,13,163,72,-25,90,162,90,-378,113,38,174,42,21,-41,270,300,184,70,-39,378,-214,-71,20,-2,-27,-221,541383
79,15,-60,3,15,5,132,143,-94,117,163,189,-148,27,37,117,58,37,-6,224,188,147,82,-8,285,-333,-13,28,20,-8,-74,541384
71,18,-38,11,26,3,110,79,-39,1,150,167,0,122,54,60,2,2,-93,174,147,93,-7,-72,218,-363,-56,-61,-54,-51,-70,541385
80,12,-24,-2,19,15,82,-18,-107,-30,181,92,43,86,31,34,-53,-44,-152,144,123,47,-53,-127,187,-361,-109,-124,-120,-85,-181,541386
-42,-12,10,-11,-5,12,-73,-214,-67,7,3,-39,8,-24,-98,-87,8,29,19,4,-214,-37,20,29,-88,-864,31,-19,-29,4,199,541387
-481,-57,139,57,-33,10,-613,-362,209,113,-498,-247,-35,-301,-138,-567,155,197,461,-474,-1497,-356,139,450,-1040,-2813,431,265,283,275,1018,541388
-535,-77,161,105,-17,30,-648,-256,230,223,-512,-252,0,-249,-83,-709,151,159,539,-591,-1884,-448,116,502,-1239,-3464,485,306,367,315,1013,541389
-399,-77,92,120,5,29,-407,-229,127,355,-48,-193,178,-195,-48,-639,69,52,396,-501,-1655,-409,70,344,-1011,-3198,315,201,274,206,626,541390
11,-42,-48,59,41,38,107,-44,-66,252,158,8,-84,25,26,-220,-80,-144,-22,-65,-509,-121,-41,-82,-128,-1543,-103,-53,-17,-74,-361,541391
185,-11,-93,8,31,32,283,145,-128,10,91,195,-50,139,95,73,-65,-124,-180,165,164,79,-30,-200,337,-520,-200,-107,-103,-134,-425,541392
145,1,-96,9,13,9,263,202,-108,149,-26,229,-105,213,48,126,11,-19,-95,185,201,108,51,-102,362,-443,-91,-33,-38,-52,-250,541393
108,10,-100,3,-2,-7,208,-99,-108,-6,-20,97,-88,261,13,121,19,-18,-66,166,181,121,63,-58,333,-437,-47,-23,-27,-32,-197,541394
101,20,-60,8,25,16,167,87,-221,-120,-62,62,-42,312,30,104,13,-25,-48,157,151,122,68,-31,296,-463,-37,2,-11,-7,-216,541395
78,0,-48,-16,5,4,170,32,-141,-15,-126,107,-98,172,62,86,24,-4,-16,143,129,107,59,12,251,-509,10,43,19,28,-201,541396
-6,-2,-32,-22,-4,-5,128,-36,-207,16,-305,72,16,188,13,11,48,36,37,53,-52,48,67,61,77,-786,61,58,52,51,-27,541397
-178,-5,3,21,-11,-17,-83,-314,-143,-22,-231,-99,38,125,-44,-209,66,61,141,-164,-551,-126,57,151,-305,-1533,142,89,93,80,362,541398
-286,-24,31,36,-25,-17,-302,-306,-55,-31,-227,-208,143,91,-59,-346,102,98,291,-266,-902,-202,80,276,-518,-2098,257,213,207,175,513,541399
-325,-51,59,33,-14,-7,-427,-244,80,-14,-133,-166,-3,109,36,-386,168,149,424,-272,-1099,-198,164,395,-604,-2459,363,314,324,272,511,541400
20,-42,-27,2,30,43,-18,71,-61,-8,224,86,-136,-3,61,-45,60,7,128,86,-222,38,105,67,79,-1195,53,105,114,64,-203,541401
216,-6,-66,-2,53,70,215,322,-56,23,318,194,-71,26,71,138,-28,-89,-112,260,370,135,53,-168,445,-285,-171,-71,-107,-130,-443,541402
156,5,-53,-2,46,52,145,396,-55,174,235,176,-76,68,119,94,-38,-83,-130,192,297,95,9,-144,337,-325,-138,-87,-114,-134,-317,541403
107,5,-45,-8,22,26,87,255,-3,59,78,47,-131,-85,49,84,-3,-49,-129,186,247,103,-10,-100,296,-369,-83,-78,-88,-90,-242,541404
104,6,-48,-27,8,3,67,154,-31,16,56,130,-32,-141,81,101,-8,-55,-140,213,282,134,-31,-108,334,-300,-111,-89,-86,-99,-266,541405
135,-2,-55,-36,7,4,81,7,-127,-214,225,142,111,104,75,172,8,-21,-94,277,398,198,-10,-64,421,-126,-80,-37,-53,-70,-271,541406
-10,-25,-4,-21,-11,4,-76,23,-2,-83,-129,-15,47,198,-2,-2,18,18,4,82,5,65,-1,40,111,-701,11,5,3,-13,49,541407
-221,-26,61,29,-10,3,-236,-36,18,91,-86,-98,-87,-84,-19,-256,72,98,211,-171,-669,-118,49,231,-355,-1705,190,133,148,128,473,541408
-239,-38,45,51,-17,-7,-181,-7,98,-11,-58,-36,70,-200,-75,-304,72,82,226,-210,-815,-172,44,229,-424,-1939,187,145,169,150,432,541409
-168,-39,15,42,4,14,-122,-59,12,-78,42,-69,100,-309,-19,-243,46,45,160,-152,-681,-131,15,177,-308,-1771,144,108,150,125,235,541410
22,-25,-32,0,19,28,37,61,19,66,90,86,-3,63,41,-10,34,5,33,73,-133,32,-5,38,95,-1021,20,39,66,51,-168,541411
158,-2,-42,-17,40,41,165,289,-118,66,130,144,-81,192,85,142,1,-48,-98,198,310,108,-4,-116,391,-343,-138,-48,-73,-70,-292,541412
120,-2,-65,-17,10,8,140,170,-63,63,-136,116,44,76,155,144,13,-30,-68,172,314,102,32,-77,366,-315,-112,-27,-64,-61,-310,541413
73,-1,-66,-21,-4,-14,56,33,-114,-23,38,136,96,89,94,146,58,52,27,161,232,99,59,31,288,-448,20,61,19,40,-105,541414
65,-9,-51,-36,-2,-9,-24,-34,-95,-142,204,39,35,22,83,148,65,64,38,157,197,122,38,66,263,-509,68,72,46,81,0,541415
48,-13,-35,-23,7,-3,-19,17,20,-43,6,126,95,27,84,72,32,7,-18,83,127,62,35,-30,170,-563,-40,-12,-37,-2,-70,541416
58,-6,-20,-13,12,2,72,-72,7,-116,-35,44,-16,126,107,62,32,6,-19,91,146,59,58,-57,158,-527,-79,-23,-51,-43,-138,541417
-45,-17,-29,-28,-28,-22,-19,-143,-37,-85,-176,-110,-90,99,92,-29,46,15,22,2,-66,10,47,16,-16,-814,-1,11,-21,0,5,541418
-97,-24,-10,-32,-22,-21,-117,-239,1,-26,-292,-128,-26,43,-14,-74,83,60,118,-39,-249,-23,107,101,-155,-1093,81,56,55,73,137,541419
-92,-22,14,-12,-1,1,-130,-102,126,39,-31,-152,2,-108,23,-105,68,49,120,-72,-324,-72,101,83,-204,-1220,65,45,34,68,141,541420
3,-7,-14,9,15,15,-46,3,77,12,-3,-78,133,-15,-4,-35,10,-10,13,18,-98,-14,33,-5,-4,-888,-19,-6,-11,-2,5,541421
88,10,-66,-6,5,-1,42,58,37,-40,-44,-36,-4,130,39,91,-26,-22,-108,151,230,99,2,-95,256,-384,-100,-70,-72,-68,-187,541422
63,4,-64,-22,0,-10,-16,78,-16,-88,67,-1,34,117,35,110,1,10,-77,165,255,112,43,-66,268,-344,-81,-59,-72,-64,-146,541423
28,-7,-53,-39,-13,-15,-26,-78,-148,-23,32,4,-1,-2,37,86,18,21,-31,145,189,96,32,-20,229,-440,-54,-14,-34,-47,-32,541424
18,-26,-66,-50,-21,-32,103,-102,-125,206,-79,112,-150,94,94,102,26,40,-7,165,199,123,0,15,251,-414,-9,24,10,-3,-63,541425
42,-6,-75,-37,-19,-32,154,112,-29,85,-210,228,-15,359,86,146,48,30,1,200,301,155,-7,10,315,-270,-11,34,18,4,-123,541426
139,16,-102,-11,-11,-28,246,260,-155,-118,173,119,-104,237,66,176,-50,-100,-162,239,518,141,-71,-158,448,98,-179,-96,-129,-139,-443,541427
292,46,-108,-5,32,3,385,121,-125,-61,382,124,-230,-16,103,243,-133,-185,-325,289,828,154,-139,-321,643,612,-338,-217,-269,-249,-689,541428
344,58,-80,-22,53,26,432,58,-67,-3,233,14,-227,-116,63,322,-120,-154,-334,323,991,191,-127,-306,752,890,-328,-197,-267,-222,-612,541429
311,42,-72,-43,36,30,380,104,-120,-41,177,114,-83,-52,58,326,-115,-124,-307,291,990,203,-136,-286,726,924,-291,-181,-249,-202,-555,541430
88,21,2,-38,0,21,65,20,-56,-131,-121,35,60,168,46,121,-11,7,-85,84,395,90,-58,-45,292,74,-62,-35,-71,-35,-63,541431
11,-2,12,-20,-8,5,-22,-32,-84,-27,-34,-79,-34,71,-69,59,20,41,-14,34,168,68,-25,30,140,-278,4,4,4,30,47,541432
14,11,5,20,-1,5,62,-121,-175,-97,184,-71,22,170,-23,-6,-52,-12,-84,-20,108,-13,-84,-71,73,-347,-78,-82,-81,-48,-63,541433
47,24,-4,44,20,11,145,108,-204,67,-20,-107,64,191,-56,-23,-92,-54,-112,-40,144,-54,-123,-147,78,-277,-177,-124,-153,-110,-179,541434
51,26,2,45,23,19,146,288,-25,139,-14,-123,124,39,-13,-11,-74,-54,-94,-50,130,-53,-86,-137,60,-292,-168,-107,-151,-112,-90,541435
39,33,-2,35,7,13,129,139,-9,155,26,-62,3,-74,-15,23,-40,-28,-73,-28,124,-33,-22,-97,59,-296,-118,-83,-124,-78,-112,541436
106,34,-24,3,0,10,161,12,8,128,-130,83,-237,42,46,128,-47,-66,-113,87,347,45,-28,-132,247,43,-134,-104,-142,-87,-263,541437
330,33,-84,-56,25,23,357,38,-75,-3,281,217,-244,-40,133,380,-117,-162,-319,326,1011,220,-89,-343,738,1080,-329,-227,-279,-220,-670,541438
385,33,-107,-78,14,11,444,368,-97,1,8,174,-60,-6,66,455,-139,-179,-432,389,1254,272,-126,-414,863,1512,-382,-305,-359,-276,-737,541439
381,39,-93,-66,-4,5,471,181,-193,-88,77,97,67,160,24,435,-127,-151,-447,365,1303,261,-121,-421,834,1630,-385,-321,-396,-299,-634,541440
39,19,12,-29,-21,-3,71,-62,-23,-85,-64,-5,191,-10,-70,34,-60,-44,-197,-43,361,-27,-69,-144,106,262,-145,-165,-231,-141,120,541441
-68,4,53,3,-12,-2,-26,-172,35,64,11,-94,92,-134,-52,-83,-11,14,-19,-121,-34,-89,-48,12,-123,-366,4,-40,-82,-6,189,541442
0,-5,27,-6,-11,-7,82,-108,39,14,37,-98,86,-264,-33,-37,-84,-73,-111,-54,94,-70,-106,-102,-16,-177,-104,-111,-150,-89,-47,541443
1,-6,22,-6,-16,-6,18,-82,92,35,-53,5,-31,-17,-67,-63,-107,-94,-112,-60,37,-82,-138,-97,-43,-251,-120,-130,-143,-98,-46,541444
-6,-8,-1,-35,-25,-20,-105,10,61,125,83,-104,-43,-48,-23,-36,-81,-69,-86,-26,50,-41,-137,-69,-18,-252,-84,-100,-114,-66,-50,541445
-19,-4,-20,-68,-34,-30,-156,-86,52,4,-64,-157,-69,-98,31,-11,-41,-24,-39,-20,84,-22,-97,-55,6,-220,-68,-81,-94,-49,2,541446
249,17,-68,-92,16,1,172,63,-26,-171,200,143,20,123,118,331,-41,-57,-193,323,853,210,-71,-209,607,896,-214,-133,-166,-109,-634,541447
765,101,-178,-107,67,41,920,686,-270,-153,534,416,2,399,157,924,-142,-194,-651,883,2384,607,-146,-640,1712,3206,-619,-398,-478,-388,-1495,541448
799,137,-201,-90,50,20,1057,542,-230,-217,562,328,-98,292,50,979,-206,-234,-814,874,2701,619,-209,-773,1802,3805,-754,-512,-637,-514,-1484,541449
606,122,-137,-81,25,5,727,252,-165,-207,200,62,-128,-9,19,743,-228,-228,-742,585,2222,423,-244,-688,1357,3281,-668,-499,-627,-491,-1025,541450
57,60,23,-47,-45,-30,-2,-95,-3,-46,-11,-149,-3,-422,-43,119,-135,-63,-310,-65,675,-29,-177,-230,186,1103,-226,-245,-336,-211,56,541451
-145,34,84,-13,-46,-35,-243,-94,30,-59,-221,-247,122,-197,-11,-122,-58,4,-59,-258,-31,-164,-128,0,-265,13,-23,-89,-127,-33,275,541452
-138,9,73,-38,-47,-33,-258,-63,90,-45,-65,-158,138,-14,-23,-58,-1,40,5,-180,-41,-75,-68,47,-210,-61,5,-21,-31,32,268,541453
-118,0,45,-68,-60,-44,-212,109,161,132,-4,-96,8,-94,-56,-42,-16,38,-2,-144,-7,-68,-57,13,-176,-23,-27,-30,-45,23,208,541454
-106,6,51,-62,-50,-41,-118,24,103,144,-110,-44,-62,-12,-26,-39,-19,38,1,-133,-13,-63,-72,22,-167,-46,-28,-25,-27,38,227,541455
-93,9,36,-38,-32,-37,-76,-68,90,40,-257,-49,-83,30,-4,-23,-12,35,22,-123,-47,-40,-86,49,-141,-102,0,6,16,52,217,541456
29,24,0,5,-7,-10,8,96,89,-135,316,-72,2,-227,-36,36,-81,-45,-79,-46,133,-2,-123,-80,41,170,-130,-65,-76,-33,-7,541457
226,31,-41,-7,21,14,186,329,-19,-211,140,-6,4,-225,-39,240,-134,-115,-268,170,682,118,-134,-265,442,1016,-306,-199,-216,-179,-435,541458
337,55,-40,-14,46,54,335,274,-56,-107,93,24,65,-183,36,347,-130,-127,-364,258,1026,172,-116,-361,618,1559,-352,-281,-327,-261,-562,541459
318,54,-32,-32,21,39,358,286,-58,-20,137,1,45,-87,-10,361,-105,-98,-342,253,1103,187,-99,-337,593,1665,-317,-266,-339,-244,-464,541460
-12,22,52,-21,-28,-22,-9,-142,-25,26,-163,-199,222,-78,-7,78,5,50,-37,-32,314,21,-71,-10,-9,485,1,-25,-110,-22,224,541461
-86,11,65,-19,-33,-38,-71,-327,-127,27,5,-71,287,-206,5,-17,26,70,76,-101,-2,-48,-60,74,-172,6,97,40,-13,49,249,541462
0,6,22,-16,-30,-23,38,-109,-10,-10,19,5,343,-124,-49,24,-23,23,-19,-46,144,-46,-61,-36,-25,218,-12,-44,-86,-14,64,541463
38,2,19,10,-15,2,40,-24,8,-84,-42,-92,223,-151,-73,-20,-87,-43,-94,-90,120,-83,-125,-106,-52,194,-112,-122,-155,-78,-17,541464
64,22,43,32,20,34,53,165,-46,112,146,-155,36,-177,-59,-10,-96,-75,-79,-86,128,-77,-107,-95,-31,200,-110,-98,-137,-76,-55,541465
110,25,29,42,23,49,159,237,-48,-2,335,-117,27,-193,23,41,-105,-90,-128,-26,259,-36,-99,-136,79,400,-147,-122,-148,-98,-159,541466
157,28,4,19,21,22,237,96,-108,5,87,-73,102,-151,48,132,-104,-94,-201,50,442,34,-125,-187,226,689,-191,-150,-161,-124,-222,541467
432,62,-94,-33,30,11,523,269,-113,-160,265,126,10,60,61,471,-177,-183,-460,383,1337,282,-188,-439,879,2027,-430,-311,-328,-285,-805,541468
446,75,-109,-69,21,-7,472,240,-111,-162,373,115,-45,239,123,539,-187,-175,-527,429,1561,330,-209,-480,988,2437,-451,-350,-385,-318,-794,541469
315,68,-45,-88,-4,-14,255,292,-47,-115,135,89,-57,310,26,477,-81,-50,-355,343,1323,290,-118,-307,758,2110,-273,-212,-264,-204,-427,541470
-38,31,51,-58,-42,-43,-185,7,0,-48,-62,-7,57,-123,-75,97,12,81,-40,-35,348,24,-36,4,-2,695,9,-12,-49,1,318,541471
-127,11,71,-38,-34,-33,-269,-66,43,-34,-173,-52,84,-54,-59,-37,36,99,88,-128,-27,-41,-43,105,-239,122,110,48,40,82,332,541472
-104,-6,61,-48,-28,-24,-217,-105,52,-131,-129,-118,114,-30,-64,-52,40,76,80,-118,-41,-45,-25,71,-247,61,88,32,23,59,315,541473
-81,-5,55,-17,-18,-14,-150,-39,126,6,18,-225,58,-243,-12,-65,38,64,64,-110,-40,-59,13,49,-227,43,58,27,8,38,280,541474
-74,-12,30,-10,-41,-31,-121,-213,104,-48,26,-143,-32,-270,-19,-90,-2,16,24,-124,-60,-90,-44,4,-216,31,5,-12,-16,-12,112,541475
-42,8,35,16,-23,-19,-76,-164,42,-65,67,-97,55,-4,-24,-21,31,56,62,-50,17,-15,-22,50,-105,104,44,19,36,33,166,541476
38,16,4,-3,-20,-18,16,90,57,53,133,-30,121,88,-16,117,42,58,36,91,297,102,-12,32,141,498,29,22,32,41,68,541477
136,22,-8,-33,-7,-13,157,373,50,6,211,89,-30,234,64,218,-34,-16,-91,171,608,151,-77,-104,349,990,-100,-83,-87,-41,-175,541478
226,40,-26,-49,7,0,252,416,28,-29,353,141,-107,156,90,293,-130,-106,-269,220,859,168,-181,-268,482,1416,-246,-227,-223,-163,-410,541479
217,31,-49,-65,2,3,203,134,-20,-3,159,108,-20,77,14,283,-179,-140,-355,182,851,136,-231,-334,425,1493,-305,-293,-297,-224,-349,541480
33,15,27,-45,-10,-9,-44,7,38,-19,-109,-76,-58,87,14,110,-57,-2,-121,-6,298,23,-105,-70,3,699,-47,-128,-107,-33,108,541481
-49,6,41,-23,-17,-11,-102,15,20,-118,-87,-104,-179,-82,-18,30,24,64,27,-68,42,-2,-33,56,-138,268,48,1,26,66,213,541482
5,16,32,-7,-13,-9,-2,-123,97,-159,-153,-3,-139,-69,-19,55,11,31,-11,-28,150,13,-53,3,-43,398,-22,11,-9,13,99,541483
-24,16,29,-5,-18,-18,0,-168,77,-230,-169,67,62,-66,50,35,-27,15,-3,-77,96,-22,-77,-12,-99,310,-22,8,-20,4,72,541484
-27,23,50,22,-1,0,-34,-85,88,-162,-83,-12,38,-76,-114,-6,-48,16,-18,-128,10,-65,-96,-12,-157,203,-4,-8,-23,5,89,541485
-52,14,44,23,-5,-2,-32,-132,31,123,-14,-146,-17,-323,-174,-45,-33,17,-14,-160,-91,-91,-82,14,-218,54,9,-12,-4,20,174,541486
10,21,18,7,8,-4,65,-206,76,61,64,-86,-38,-257,-7,51,1,36,-6,-58,99,-2,-29,1,-56,297,3,-12,4,28,120,541487
183,28,-47,-42,4,-3,174,97,19,-98,90,40,17,134,94,251,-51,-43,-182,163,659,131,-46,-176,349,1120,-159,-115,-105,-94,-294,541488
215,14,-51,-79,-4,-14,111,175,-99,-40,116,-15,72,173,55,291,-72,-57,-270,209,814,169,-67,-247,428,1410,-214,-176,-174,-162,-367,541489
156,27,-15,-60,-5,-22,52,122,-93,95,73,24,132,239,34,282,19,34,-137,194,688,175,33,-121,337,1245,-87,-71,-103,-60,-93,541490
-80,10,17,-42,-48,-62,-165,-43,-20,1,-177,-172,172,-157,-11,47,64,99,70,-39,88,5,91,80,-124,363,98,45,22,54,294,541491
-124,13,32,-25,-55,-52,-211,-316,154,-205,-160,-94,62,-229,-39,4,92,144,150,-64,-121,-30,115,162,-251,45,199,88,112,131,318,541492
-99,-3,63,-51,-27,-20,-199,-355,103,-35,-47,-30,85,32,-47,71,165,200,235,25,-79,56,164,229,-173,39,264,174,203,214,441,541493
-76,-17,58,-38,-15,0,-114,-220,133,-37,-128,-91,3,10,0,-5,49,57,82,-27,-68,-47,65,58,-156,76,67,33,64,50,209,541494
-50,-7,40,-12,-7,10,-23,-91,68,-117,-140,-86,27,-119,-71,-76,-62,-40,-49,-85,-69,-122,-50,-73,-162,122,-66,-71,-51,-78,40,541495
-40,7,32,-3,-3,6,-1,176,-44,-128,155,-137,155,-252,-76,-41,-36,6,-17,-52,-34,-64,-63,-8,-113,135,-8,-9,7,-25,39,541496
7,4,-9,-19,-20,-18,15,73,-53,-91,310,-100,94,1,-50,69,1,46,3,48,154,32,-38,11,61,370,21,31,55,18,-74,541497
211,43,-29,-13,24,14,194,-14,-111,59,160,44,42,91,56,288,-12,22,-135,260,689,191,-43,-117,464,1131,-103,-38,-29,-60,-375,541498
247,33,-42,-45,5,4,210,89,-92,-30,302,128,-140,31,70,376,-23,11,-187,314,890,244,-57,-166,588,1473,-162,-60,-86,-95,-401,541499
184,34,-47,-78,-13,-29,137,-196,-153,-177,185,243,-101,-70,76,401,17,55,-131,308,839,259,-26,-88,550,1452,-77,-15,-35,-34,-265,541500
-16,7,15,-92,-40,-37,-150,-281,-46,-87,70,154,-171,-84,-28,218,63,109,38,95,326,111,33,79,148,745,114,65,66,87,39,541501
-71,-3,51,-66,-25,-21,-294,-259,130,-30,-66,29,-103,-78,-13,60,37,56,108,-55,37,-3,48,99,-105,336,111,60,63,87,152,541502
-32,7,50,-40,-3,-5,-256,-153,37,3,-33,24,-18,47,-14,18,-6,-7,44,-97,37,-32,13,24,-139,359,39,-10,10,36,68,541503
-56,18,66,-20,-4,-6,-187,39,87,118,-149,30,107,75,17,-4,48,45,115,-122,-62,-35,86,81,-200,221,118,62,68,100,183,541504
-85,20,45,14,-18,-14,-61,-40,19,-86,-382,-103,129,33,42,-68,14,19,56,-183,-146,-97,61,39,-295,74,68,17,23,53,178,541505
-20,23,39,51,12,3,57,-5,-20,58,-227,-204,30,-41,-18,-93,-73,-63,-63,-195,-104,-135,-37,-69,-297,142,-42,-72,-77,-36,18,541506
21,38,44,46,26,32,107,16,109,193,17,-37,161,-52,11,-33,-68,-45,-59,-118,21,-70,-88,-74,-182,291,-71,-47,-65,-43,21,541507
95,29,-18,-8,1,6,180,-39,-6,62,62,2,15,68,0,85,-129,-92,-178,8,316,10,-160,-189,54,751,-169,-125,-142,-131,-188,541508
149,35,-25,-6,9,19,183,51,-22,-106,88,-49,75,-34,28,139,-147,-96,-207,58,438,43,-167,-209,167,976,-169,-159,-167,-148,-291,541509
76,19,-4,-10,5,-6,80,-47,59,-172,282,-53,64,-93,47,69,-127,-64,-160,15,285,-8,-146,-144,71,757,-122,-131,-133,-111,-179,541510
-45,3,36,-18,4,-18,-92,-33,40,-14,190,-98,84,-106,-56,-29,-49,-4,-3,-79,-25,-61,-69,9,-122,244,3,-16,-23,-21,117,541511
-60,6,51,-5,3,-16,-111,106,6,104,224,-15,81,-229,23,-42,14,36,80,-75,-93,-59,22,53,-158,95,70,41,35,18,183,541512
-68,6,41,-5,-7,-26,-159,84,-6,-37,-54,44,33,-309,29,-50,24,29,84,-62,-109,-67,53,58,-149,65,86,39,46,32,146,541513
-49,1,49,-18,-11,-12,-241,-161,91,-122,111,52,-88,-73,4,27,77,78,106,22,-32,27,100,120,-54,120,148,87,130,94,196,541514
-25,-9,29,-40,-15,-11,-285,-237,49,0,-66,-42,17,-79,-22,41,61,61,45,46,38,44,58,65,-7,188,88,47,99,53,149,541515
-10,-24,28,-42,-9,-9,-199,-244,27,96,100,22,167,-116,2,-1,9,13,1,8,24,-5,-13,13,-32,187,26,3,43,2,97,541516
67,6,23,9,23,17,94,-54,45,50,-179,22,19,31,-46,78,2,6,-21,83,212,46,0,-25,98,457,-8,-14,21,-21,-108,541517
157,50,-12,12,22,10,304,325,-24,80,-121,7,-55,163,-61,176,-34,-35,-138,169,500,107,-45,-131,280,903,-114,-90,-92,-98,-266,541518
132,42,-21,-2,5,-10,255,171,-115,80,145,1,-11,29,2,165,-70,-58,-168,131,494,89,-90,-162,259,938,-151,-101,-108,-109,-269,541519
129,52,-16,4,8,-8,220,301,37,-21,-46,-69,-43,-57,63,164,-94,-85,-164,104,482,73,-116,-170,257,965,-155,-108,-112,-123,-271,541520
7,28,3,-12,-11,-23,82,25,91,-118,-2,-145,-34,-14,19,14,-85,-68,-114,-54,155,-47,-100,-108,-2,537,-97,-104,-92,-101,-12,541521
-48,28,20,6,-7,-27,11,-34,11,-82,-61,-89,-80,131,-30,-19,-34,2,-24,-114,-34,-76,-56,4,-134,265,8,-37,-1,-5,120,541522
-21,32,28,8,0,-11,14,53,-54,-116,-75,-4,7,88,-21,76,51,66,80,-35,54,23,38,96,-47,343,95,69,100,95,135,541523
-42,28,28,-3,2,-8,-36,208,-3,-67,38,-100,40,-26,-21,75,71,83,116,-48,0,23,76,122,-85,260,136,99,126,122,133,541524
-37,14,35,-24,-2,2,-62,111,34,-295,-45,24,-3,109,-12,117,110,116,149,-16,30,38,109,150,-49,285,168,126,156,158,172,541525
-45,10,59,-13,11,-1,-81,52,77,-129,-62,84,111,38,-3,106,133,147,170,-13,-34,56,129,172,-72,181,189,153,180,174,204,541526
-94,10,38,19,-15,-10,-87,33,-13,40,11,4,30,52,-31,3,97,119,143,-91,-185,-2,94,154,-185,-34,175,108,146,149,242,541527
-105,5,21,3,-19,-19,-96,-278,-33,10,-127,-50,-75,-23,-55,-71,44,36,107,-122,-226,-37,54,94,-212,-80,106,46,77,100,160,541528
-83,-12,6,-42,-28,-27,-81,-245,-117,-216,-114,-74,-114,5,-29,-60,14,-11,55,-91,-133,-53,13,28,-150,38,50,11,26,53,101,541529
-94,-14,25,-49,-32,-11,-89,-39,-32,-286,-145,9,15,-24,-32,-51,20,10,57,-85,-151,-70,2,55,-166,-28,76,40,54,64,164,541530
-40,-5,50,-26,12,32,-74,-97,-6,-257,-25,-11,46,18,8,21,60,45,106,-1,-69,-1,34,96,-74,54,99,86,93,98,141,541531
13,-8,29,-42,15,35,-44,-108,3,38,171,37,-6,-41,-9,49,6,-5,49,33,46,20,-5,22,25,236,11,31,44,37,49,541532
23,-1,34,-45,23,42,-80,32,-6,134,0,-62,55,-143,25,-26,-62,-54,-24,-30,-12,-46,-96,-37,-55,174,-47,-22,-12,-38,-71,541533
-6,-15,26,-38,10,29,-97,35,-114,-39,-279,41,102,-45,8,-37,-49,-35,-13,-43,-78,-33,-113,3,-123,83,20,-21,20,-16,-11,541534
15,10,6,36,11,20,34,42,-77,-66,-25,74,-82,29,16,45,21,24,69,24,-5,41,0,61,-29,157,109,45,70,43,69,541535
-4,23,5,61,0,-3,57,59,-20,-9,145,34,-94,73,-19,25,42,48,70,15,-30,18,52,62,-32,138,123,35,68,54,65,541536
-26,22,-4,29,-6,-26,8,64,45,33,-49,91,-166,45,110,5,57,49,47,16,-9,22,49,60,-11,162,106,30,73,54,63,541537
-60,4,-16,-11,-31,-46,-60,-222,-85,15,70,-20,-54,95,12,-1,71,54,52,-11,-36,9,41,62,-36,109,92,42,92,57,61,541538
-61,5,-3,-29,-33,-44,-99,-86,-8,156,24,22,34,147,-58,-11,40,18,28,-22,-43,-12,16,54,-37,91,69,34,77,38,20,541539
-45,-6,8,-35,-14,-32,-157,177,-10,67,-131,109,70,192,-66,-46,-18,-28,-26,-58,-59,-66,-23,-4,-40,104,3,6,21,-22,-29,541540
-47,-14,3,-24,-19,-19,-155,38,-43,53,-247,72,100,39,-44,-69,-13,-35,-11,-90,-94,-80,4,-16,-59,45,-32,9,25,-39,8,541541
-67,3,30,14,-10,5,-58,-65,48,54,-129,-27,102,38,-47,-94,21,4,47,-116,-173,-77,23,49,-109,-89,38,47,73,19,108,541542
-61,8,21,5,-6,-1,16,-16,19,44,-20,-75,-140,126,-21,-66,3,-6,37,-99,-138,-56,-7,40,-96,-36,51,27,70,31,59,541543
-41,12,28,-5,-3,-2,-17,-35,-52,175,105,-91,78,173,36,-23,37,20,41,-50,-74,-11,46,37,-65,47,57,30,65,37,47,541544
-6,-3,15,-43,-13,-20,-10,111,-1,48,-108,64,149,59,12,41,64,49,57,27,61,52,85,41,41,220,44,41,60,44,38,541545
40,2,2,-34,5,-8,3,88,-32,103,-168,73,-38,-23,-49,45,8,-9,-4,29,141,27,13,-38,93,364,-17,-17,-11,-27,-126,541546
70,5,-1,3,17,11,4,-22,19,120,-30,53,-11,-177,-65,36,-40,-64,-68,6,170,-2,-26,-101,88,451,-66,-72,-78,-66,-205,541547
72,12,0,11,17,21,89,121,-19,178,144,43,157,-144,3,78,-19,-24,-47,39,198,28,-8,-69,103,471,-48,-54,-64,-38,-231,541548
108,28,14,29,29,33,167,133,-41,161,-29,99,158,107,9,115,-21,-23,-59,66,271,49,-30,-81,149,595,-75,-61,-82,-60,-277,541549
71,22,6,23,17,8,125,73,57,117,-161,13,-112,-5,-23,31,-46,-50,-80,-2,153,-1,-65,-92,60,453,-85,-87,-107,-82,-216,541550
22,23,7,24,6,-7,98,178,155,-40,-11,-73,-51,67,5,-1,-10,-12,-17,-17,50,-7,-10,-26,-6,292,-1,-46,-42,-32,-25,541551
27,28,-10,42,4,-21,153,123,16,18,169,-47,15,-31,4,26,-20,-27,-22,13,110,12,7,-40,62,372,-40,-38,-40,-34,-64,541552
25,34,-18,65,5,-23,154,45,34,82,46,-46,-218,-120,-68,-45,-119,-111,-108,-67,33,-72,-88,-113,2,318,-116,-112,-111,-105,-140,541553
23,29,11,49,11,-2,117,174,75,27,188,1,77,17,-47,-52,-120,-103,-106,-84,-20,-75,-123,-91,-31,262,-74,-124,-104,-78,-177,541554
-8,16,41,20,14,8,70,76,99,24,-61,-6,230,-38,21,-15,-19,-9,-8,-48,-55,-28,-25,20,-66,157,35,-20,-10,26,-14,541555
-28,-2,40,-1,13,11,-54,66,161,-41,-67,-32,124,-102,-60,-41,-28,-37,16,-70,-101,-55,-32,13,-127,95,10,-10,-17,10,53,541556
-30,-19,47,-14,8,13,-159,249,8,5,167,-16,-2,-205,-53,-77,-81,-84,-20,-111,-148,-116,-87,-30,-183,25,-30,-36,-45,-33,58,541557
85,3,26,-7,36,40,-3,314,21,253,206,125,184,-193,33,51,-62,-52,-50,24,119,-13,-76,-50,42,398,-18,-20,-32,-30,-108,541558
132,28,4,21,41,50,135,-27,36,138,198,111,83,-68,-13,75,-58,-56,-114,64,249,27,-73,-109,141,576,-89,-54,-75,-87,-195,541559
106,29,-4,25,18,20,188,91,42,-36,174,100,19,53,-40,68,-54,-58,-122,51,267,31,-77,-122,140,614,-117,-77,-91,-95,-219,541560
-1,22,22,37,3,2,93,209,-16,-153,124,24,106,-131,-33,-9,-14,4,-15,-38,44,-14,-28,-23,-45,265,-31,-17,-31,-24,86,541561
-59,7,37,25,-1,-13,5,52,-2,48,56,21,229,-188,-14,-86,-18,-4,9,-117,-160,-72,-11,14,-204,-32,27,-47,-12,-3,111,541562
-17,-1,39,19,15,11,29,172,-20,129,103,-60,96,-133,-4,-53,-23,-12,-26,-72,-77,-40,-24,-11,-141,64,4,-72,-30,-2,-1,541563
-11,-18,15,17,1,15,4,-12,-21,128,31,-134,-19,-83,6,-30,7,18,-11,-47,-60,-16,-1,20,-97,82,5,-40,5,7,55,541564
-9,9,11,30,5,14,-56,-71,50,131,251,-91,210,-178,8,-36,24,31,24,-45,-68,-19,13,33,-61,67,9,-15,32,7,89,541565
17,9,13,0,-1,14,-59,1,71,96,177,45,134,102,74,0,3,23,11,-17,33,-8,-5,9,27,214,3,-12,20,10,19,541566
162,15,-20,-30,17,16,111,209,0,-66,118,79,-82,82,17,149,-63,-73,-126,135,429,78,-50,-138,319,823,-100,-97,-97,-95,-397,541567
341,40,-52,-30,55,37,309,338,-93,-33,115,133,66,35,21,356,-104,-112,-289,315,946,203,-98,-307,671,1619,-246,-201,-231,-215,-674,541568
352,46,-74,-56,21,14,346,354,-91,160,148,276,73,-34,54,430,-76,-83,-304,368,1133,270,-92,-307,762,1926,-251,-200,-256,-206,-587,541569
303,63,-50,-44,20,12,294,348,-10,143,341,256,22,14,73,403,-54,-39,-262,326,1063,256,-81,-240,665,1849,-193,-161,-218,-174,-419,541570
88,39,6,-24,-14,-5,34,120,90,13,15,99,-17,47,-33,163,-4,27,-114,78,463,70,-44,-87,186,1033,-34,-84,-133,-78,2,541571
-90,-1,25,-10,-48,-43,-140,36,94,49,-189,-129,51,74,-51,-30,28,52,22,-106,-45,-76,4,42,-169,280,65,-2,-36,19,242,541572
-96,15,23,29,-39,-31,-27,27,85,-134,-107,-190,-88,-24,8,-29,15,52,43,-101,-80,-73,-13,60,-145,198,83,29,14,31,182,541573
-87,29,34,29,-21,-14,19,1,-30,-5,-77,-31,-55,-69,38,13,74,125,137,-48,-103,-4,46,151,-112,137,164,128,105,117,278,541574
-61,19,36,1,-7,-6,-54,119,-37,-66,6,109,215,-21,-11,31,75,104,124,-29,-103,-7,49,127,-115,137,141,107,86,113,155,541575
-75,-2,38,-30,-9,-9,-213,-92,58,-137,-322,-80,-27,28,-9,-6,54,72,112,-62,-166,-39,56,95,-177,38,115,84,70,83,131,541576
-15,-2,47,-31,4,11,-194,-9,25,-12,-98,23,73,4,42,37,39,36,68,-7,-60,-5,67,52,-86,206,64,43,46,53,-48,541577
202,12,-41,-41,25,18,171,214,-70,-125,254,85,-54,60,112,250,-79,-111,-190,215,591,128,-29,-212,389,1202,-179,-139,-137,-120,-533,541578
263,21,-66,-37,28,9,341,221,-106,-254,132,43,44,90,49,324,-109,-118,-282,282,881,180,-69,-278,558,1656,-229,-187,-201,-168,-636,541579
204,27,-28,-29,7,10,300,129,-103,31,178,-66,49,-64,-7,231,-108,-99,-279,177,766,112,-70,-250,420,1510,-208,-196,-224,-178,-489,541580
-8,19,15,-4,-11,-10,45,28,6,118,-84,-47,168,-8,-73,-59,-117,-88,-144,-118,177,-116,-99,-150,-70,658,-111,-150,-196,-139,-91,541581
-112,-5,27,-12,-24,-24,-147,-17,28,-53,18,-80,150,-3,-95,-143,-8,6,77,-184,-157,-137,-41,46,-238,92,61,53,-3,11,142,541582
-76,-10,24,-21,-22,-22,-110,-30,33,-65,-185,-11,33,36,-62,-51,52,71,114,-79,-77,-44,3,97,-104,165,103,111,75,72,198,541583
-55,-10,8,-10,-21,-28,-84,-78,21,-138,-73,-87,-219,-32,-89,-12,32,55,91,-51,-23,-25,-2,62,-56,236,55,67,37,40,58,541584
-20,-5,2,-3,-13,-17,-90,-33,-42,-46,378,24,-260,-103,-61,12,10,10,40,-18,50,1,0,-7,-7,362,-5,20,-15,-6,-56,541585
2,7,7,-20,-14,-14,-79,-41,-9,-75,239,75,-220,-94,11,86,62,59,88,68,173,89,63,41,101,496,49,64,44,52,-9,541586
41,-8,-30,-39,-22,-34,-32,-22,-43,-27,145,-58,-232,127,24,147,56,48,27,118,320,116,59,4,198,722,17,16,14,25,-87,541587
240,22,-69,-47,4,-5,170,198,-132,69,348,73,-178,159,89,360,-3,-30,-151,315,870,239,-9,-182,571,1555,-163,-109,-123,-94,-478,541588
351,45,-79,-73,20,3,283,145,-137,254,243,238,-69,127,118,476,-64,-89,-314,409,1259,305,-73,-327,778,2193,-283,-224,-262,-215,-712,541589
377,47,-89,-92,8,-3,285,36,-205,175,285,164,16,131,95,545,-56,-63,-325,455,1409,351,-69,-309,856,2467,-241,-214,-268,-193,-683,541590
90,29,-12,-77,-45,-35,-30,-146,-65,60,-187,29,55,155,37,242,27,38,-94,143,665,139,2,-78,274,1423,-28,-74,-121,-52,9,541591
-151,8,28,-30,-73,-66,-211,-251,71,-167,-488,-96,67,156,-66,-26,88,108,112,-96,-51,-36,70,129,-208,359,139,66,55,75,318,541592
-124,25,23,15,-42,-52,-61,-264,37,-4,-76,-47,-34,189,-87,5,102,105,124,-61,-60,-6,77,145,-162,312,150,91,102,117,252,541593
-124,9,17,2,-38,-49,-38,-321,-46,7,-171,-72,38,161,-44,-38,43,47,125,-106,-118,-69,33,96,-190,249,106,76,56,74,161,541594
-152,-6,38,-37,-35,-37,-116,-208,11,-54,-334,-94,-64,26,-24,-69,54,58,192,-118,-211,-80,43,142,-230,91,154,117,106,120,225,541595
-159,-14,28,-34,-40,-30,-185,-263,-7,45,-406,-114,-144,-83,20,-86,39,44,172,-122,-251,-94,30,130,-260,6,147,102,92,108,236,541596
-25,3,9,-25,-13,-1,-116,-292,-165,31,66,-148,73,39,3,55,41,35,119,19,36,3,47,52,-35,387,61,72,58,63,-13,541597
354,16,-64,-64,39,36,267,-75,-196,-60,223,116,-22,81,78,447,-62,-90,-230,403,1081,269,-40,-294,729,1944,-262,-160,-188,-170,-696,541598
501,24,-92,-102,33,40,424,123,-169,-44,281,256,-131,100,207,645,-96,-111,-417,553,1626,397,-99,-430,1072,2828,-370,-264,-319,-259,-858,541599
475,48,-86,-107,23,27,445,122,-191,-15,286,179,-215,138,115,633,-88,-84,-441,521,1665,387,-130,-411,1041,2966,-344,-265,-331,-256,-733,541600
119,44,18,-47,-15,-10,40,-314,42,-87,30,-76,-15,-149,-107,240,-34,23,-174,113,700,112,-98,-109,303,1623,-73,-82,-149,-100,-77,541601
-192,8,75,-13,-47,-36,-352,-329,110,-30,-203,-170,98,-250,-173,-133,2,60,70,-226,-223,-142,-51,103,-336,250,85,45,17,28,381,541602
-139,-1,53,-20,-39,-26,-330,-168,14,-73,-4,-146,58,-142,-94,-130,-46,1,34,-187,-181,-134,-84,47,-259,282,39,-1,-4,-1,200,541603
-108,-2,77,-3,-13,-5,-302,-214,79,46,-62,-34,47,-266,-93,-126,-31,11,69,-169,-213,-117,-72,95,-243,209,113,45,53,57,199,541604
-71,9,65,23,-2,-2,-159,-68,73,115,-243,-71,16,-45,1,-119,-70,-44,-14,-152,-161,-111,-93,0,-207,286,7,-26,-7,-13,67,541605
-84,26,39,25,-17,-22,-105,-143,15,-86,-171,-151,94,28,22,-91,-65,-46,-14,-132,-139,-93,-62,-8,-189,300,-7,-21,-12,-21,27,541606
32,25,-10,-12,-15,-31,-30,-13,-29,-69,-56,-49,115,82,-8,65,-72,-73,-96,33,225,16,-77,-95,84,835,-89,-71,-63,-71,-226,541607
604,86,-143,-48,67,23,572,588,-167,-74,451,296,4,210,121,681,-195,-232,-589,639,1799,406,-220,-580,1233,3191,-531,-376,-412,-362,-1279,541608
824,111,-175,-94,77,50,862,475,-137,-53,627,351,-63,235,122,932,-267,-293,-880,827,2600,545,-277,-840,1693,4482,-784,-566,-673,-588,-1511,541609
614,100,-103,-74,45,26,748,359,-132,39,569,78,-11,3,39,708,-252,-235,-751,562,2158,382,-285,-699,1276,3971,-666,-512,-632,-529,-1061,541610
80,48,30,-53,-39,-46,139,-94,-50,-49,-101,-155,102,-217,-118,129,-198,-102,-364,-51,713,-45,-279,-291,173,1934,-270,-290,-366,-256,-45,541611
-186,26,111,2,-47,-48,-204,-183,10,-49,-529,-167,-9,-305,-133,-159,-87,14,-22,-315,-169,-209,-190,28,-407,580,27,-72,-91,-12,313,541612
-155,17,81,6,-38,-38,-149,-199,-1,-98,-283,-128,58,-173,-219,-83,-16,53,64,-200,-131,-121,-95,82,-285,554,72,-6,5,60,288,541613
-116,24,71,12,-24,-40,-104,-261,-39,-164,16,-137,-9,-181,-157,-25,10,55,80,-133,-56,-70,-45,81,-181,615,59,21,38,64,232,541614
-124,9,65,-19,-25,-37,-173,-136,52,-20,152,-174,122,-202,-180,-55,-17,38,73,-148,-118,-90,-80,67,-220,517,32,14,35,48,183,541615
-90,3,46,-24,-17,-11,-151,35,-46,-35,-30,-175,78,-39,-115,-30,-19,13,68,-128,-96,-66,-66,59,-198,515,28,33,49,30,180,541616
-143,4,67,7,-13,2,-178,-103,-30,-73,-143,-218,112,-67,-176,-117,17,23,145,-199,-308,-105,7,116,-357,186,103,76,78,50,258,541617
-182,6,83,33,-1,4,-199,-139,72,-41,-302,-198,-12,-143,-148,-199,26,24,172,-255,-476,-148,57,138,-475,-81,130,73,96,61,339,541618
-139,-3,79,34,15,21,-168,-84,68,-22,-313,-199,-45,-93,-136,-195,3,5,138,-251,-460,-174,35,92,-459,-59,85,22,58,44,228,541619
-183,3,104,34,14,14,-222,-214,69,-2,-254,-224,14,-131,-85,-186,99,114,279,-242,-583,-167,96,237,-519,-297,232,155,195,170,433,541620
-135,1,69,3,2,-18,-171,-164,-14,125,-43,-97,14,-88,33,-55,159,168,327,-90,-407,-33,161,292,-319,-88,280,231,276,231,350,541621
-94,-8,13,-25,-27,-41,-97,-82,-23,-49,-43,-78,-88,74,80,7,95,97,217,-13,-207,10,113,197,-146,220,191,165,207,166,211,541622
-98,4,12,-8,-19,-29,-54,-148,86,-4,-59,-96,130,-46,78,2,86,84,206,-6,-196,10,96,183,-129,243,163,159,196,151,209,541623
-116,2,30,0,-12,-24,-74,-118,162,29,-208,46,-22,-273,-19,-84,20,15,135,-86,-279,-64,8,118,-233,111,108,86,122,85,190,541624
-83,-10,31,25,6,-4,-107,-164,68,69,-135,-71,-35,-160,-48,-145,-81,-76,-4,-147,-305,-139,-110,3,-315,105,24,-30,-5,-13,60,541625
-91,-12,35,24,3,1,-141,59,49,-76,-68,-188,17,107,-47,-126,-18,-23,58,-118,-307,-109,-16,49,-298,83,59,30,40,30,157,541626
-136,-1,60,16,-3,5,-154,83,78,-106,-111,-80,73,33,-28,-132,62,46,173,-137,-409,-101,85,160,-338,-128,123,112,132,108,322,541627
-579,-60,179,53,-53,-29,-644,-519,215,-6,-647,-217,109,-175,-138,-591,215,227,602,-594,-1669,-400,250,603,-1223,-2028,552,399,455,398,1254,541628
-750,-88,206,95,-59,-49,-827,-353,247,80,-513,-373,23,-381,-195,-798,274,284,822,-754,-2321,-520,316,809,-1587,-3114,755,560,676,562,1536,541629
-628,-89,143,101,-44,-29,-703,-356,2,-22,-716,-301,84,-124,-128,-713,209,182,693,-628,-2092,-444,272,636,-1344,-2881,568,464,594,460,1128,541630
-195,-47,43,88,34,40,-213,-190,-131,91,-310,52,8,-13,18,-272,87,32,302,-189,-977,-138,153,259,-489,-1306,200,216,333,205,98,541631
124,-6,-8,52,79,82,131,19,-51,23,77,163,29,44,37,41,-2,-49,-8,111,-62,87,21,-11,117,48,-23,30,101,8,-280,541632
98,-19,4,25,55,66,51,190,-39,19,67,136,200,154,100,-21,-5,-68,-31,57,-47,57,8,-42,61,127,-51,-6,23,-36,-164,541633
67,-7,-7,20,45,33,12,154,2,90,-92,99,236,157,-14,-16,23,-26,17,48,-31,59,62,-6,45,159,-12,29,41,-4,-52,541634
47,5,-16,22,28,12,-5,30,-112,134,207,82,-153,220,-11,-7,22,-34,15,32,-20,48,64,10,54,208,-9,19,37,3,-115,541635
25,7,-24,10,8,-2,-6,-148,-143,51,124,168,-59,265,84,12,52,21,36,37,-24,52,86,34,69,216,21,42,59,37,-29,541636
-58,-19,-21,-23,-17,-26,-101,-81,92,-39,-211,125,-49,117,43,-28,79,81,73,-14,-148,17,88,88,-34,18,76,71,96,85,180,541637
-281,-38,29,-22,-57,-47,-406,-185,167,-228,-310,27,-61,72,-24,-228,140,164,286,-210,-741,-103,153,295,-465,-886,250,209,241,218,543,541638
-360,-43,63,20,-38,-31,-503,-200,109,-28,-244,-102,25,-32,-14,-354,154,160,407,-319,-1115,-193,172,398,-704,-1486,347,284,326,275,712,541639
-271,-33,62,80,1,8,-315,-158,71,56,-259,-61,88,24,29,-341,85,75,322,-284,-1023,-194,110,301,-599,-1391,253,221,260,200,483,541640
-77,-27,9,49,22,21,-61,8,-3,23,-84,-16,-150,-33,79,-130,27,4,133,-53,-490,-34,46,131,-174,-618,91,118,161,93,59,541641
16,-12,-11,20,27,23,118,9,53,-141,97,67,-263,71,133,37,28,13,51,89,-130,52,55,46,83,-63,26,67,102,39,-99,541642
21,16,-44,42,19,8,216,-14,-7,20,74,199,-67,173,74,45,-7,-18,3,84,-52,18,47,-24,99,63,-41,19,24,-24,-158,541643
5,21,-41,42,21,0,229,-41,-18,-5,-39,63,-39,256,13,-6,11,-11,7,60,-84,3,58,-13,46,7,-28,23,21,-18,-54,541644
-8,-11,-32,0,12,-1,102,-142,-32,-120,-337,7,-171,12,-60,-44,26,3,45,37,-116,-7,75,39,7,-50,17,46,51,16,-38,541645
40,-14,-19,17,46,31,10,22,-113,-22,-254,99,26,-266,-93,-52,-36,-74,-22,26,-82,-21,5,-27,18,13,-50,-17,-18,-43,-146,541646
30,-8,1,35,36,36,93,68,-101,167,18,184,111,-128,18,1,23,7,51,63,-76,44,44,64,44,14,39,51,54,47,-15,541647
-39,-15,-14,43,-25,-23,174,-245,-77,10,64,86,-45,83,54,-16,61,58,88,49,-175,57,75,128,-7,-113,83,81,115,92,142,541648
10,7,-40,39,-18,-22,218,-67,-52,-151,120,32,-34,-13,16,-13,-18,-24,-58,51,-51,33,-9,-5,75,95,-47,-19,0,-19,28,541649
21,10,-12,30,2,6,124,-138,29,-69,47,57,-117,64,-5,-57,-48,-53,-97,-4,-80,-12,-32,-66,18,97,-100,-75,-75,-77,-99,541650
-11,-5,11,28,13,27,26,97,5,11,146,-14,70,-81,13,-112,-57,-46,-70,-70,-179,-64,-34,-40,-89,-34,-65,-68,-73,-64,-65,541651
25,-4,24,36,53,71,-5,115,36,155,77,-45,52,-227,-51,-140,-102,-99,-80,-103,-154,-116,-56,-95,-110,8,-101,-101,-117,-96,-189,541652
34,-17,18,8,37,47,-70,100,56,199,-8,-37,208,-103,24,-104,-31,-53,6,-75,-139,-75,20,-32,-85,-6,-55,-26,-68,-38,-48,541653
26,-17,1,12,19,10,-62,162,138,59,-18,-34,70,-252,-18,-68,20,-25,30,-40,-105,-29,27,14,-23,1,-21,17,-5,-6,-22,541654
17,2,1,39,14,4,5,208,113,168,-43,-61,-29,-76,-15,-101,-19,-45,-17,-61,-117,-44,-5,-2,-23,9,-42,-16,-10,-34,27,541655
20,13,23,61,28,20,89,171,80,188,259,-32,85,-118,-51,-112,-23,-45,-30,-70,-123,-48,-18,-3,-30,6,-56,-26,-4,-35,-4,541656
-43,1,13,64,5,13,78,15,127,46,145,-103,49,-173,10,-164,-13,-34,9,-135,-258,-88,-9,37,-148,-218,-27,-8,13,-4,81,541657
-135,2,31,77,-15,1,-16,-39,114,75,0,-70,93,-305,-73,-240,23,17,121,-221,-531,-145,15,144,-338,-623,78,79,86,65,305,541658
-165,7,32,69,-13,-13,-75,-56,57,61,-75,-118,-39,-195,-86,-252,56,50,195,-215,-649,-147,45,182,-389,-811,152,117,131,96,372,541659
-151,-18,18,51,-8,-10,-152,-21,52,82,-88,22,71,-85,-95,-236,34,26,179,-175,-630,-126,34,155,-373,-825,136,86,108,91,302,541660
2,-26,3,30,17,30,-49,107,28,125,125,106,55,57,16,-78,18,-2,66,-15,-261,-13,20,55,-93,-309,27,35,58,47,-33,541661
102,-18,2,27,34,40,86,-102,-30,89,12,148,28,-94,-18,39,-10,-28,-46,103,67,68,4,-44,121,166,-49,-44,-18,-17,-174,541662
102,-1,-3,26,36,32,109,45,-61,176,90,95,-106,-144,10,38,-28,-49,-86,98,99,58,-9,-72,122,233,-84,-71,-60,-62,-187,541663
86,27,-9,25,29,28,130,58,-83,-53,-70,67,35,85,33,62,-13,-35,-46,99,123,64,-4,-49,140,264,-53,-30,-36,-41,-95,541664
52,27,-9,17,14,8,127,-142,-10,24,127,-8,29,81,62,84,35,25,14,124,100,79,14,41,158,203,35,45,45,18,-15,541665
16,-12,-31,-8,-20,-11,128,39,1,80,81,67,-76,80,76,40,16,4,-16,86,47,44,-11,21,106,131,4,15,17,-2,-40,541666
-116,-18,22,2,-10,-3,-56,-152,63,-22,-139,-27,-156,-1,-63,-150,18,23,95,-105,-366,-100,37,92,-246,-448,78,52,46,29,261,541667
-453,-48,122,48,-20,-2,-489,-375,181,13,-411,-252,-77,-189,-120,-579,90,112,406,-514,-1409,-386,114,379,-1010,-2011,353,241,251,214,918,541668
-523,-69,126,69,-29,-6,-580,-310,125,5,-256,-266,-40,17,-111,-634,183,180,617,-547,-1734,-396,190,573,-1146,-2606,515,407,437,374,1009,541669
-446,-59,102,81,-8,4,-501,-166,217,-26,-151,-138,-64,-65,-89,-536,194,178,578,-445,-1603,-320,208,539,-983,-2486,488,407,451,363,834,541670
-122,-35,2,56,26,16,-126,83,-25,210,69,1,-148,18,-6,-206,97,51,279,-100,-735,-88,133,234,-306,-1240,210,226,252,168,118,541671
84,-10,-60,4,29,8,100,101,-48,271,418,148,-78,209,95,44,19,-26,29,129,-53,90,57,21,188,-199,18,84,69,10,-148,541672
32,-17,-40,-18,4,-5,0,5,-39,-73,233,124,-119,40,133,26,25,-1,0,94,-82,64,69,34,138,-193,32,56,52,6,-107,541673
4,-3,-16,4,12,30,-70,168,-28,27,118,-10,-81,17,72,-22,43,16,26,53,-144,28,113,55,54,-285,58,60,65,31,-44,541674
2,-9,-24,9,15,26,-90,79,-91,-100,219,-29,-112,203,68,-40,15,6,-12,25,-140,2,85,25,35,-275,37,23,28,13,-46,541675
30,-12,-8,5,8,23,-21,131,-12,-298,375,107,-47,113,-26,1,29,33,-12,61,-51,49,82,31,98,-141,36,30,44,30,-79,541676
4,-10,7,17,15,23,64,-12,67,-117,170,170,-65,39,80,-52,0,2,-25,12,-141,7,36,27,27,-231,-2,2,21,8,50,541677
-180,-12,42,62,-5,13,-71,-137,132,31,110,-11,97,1,43,-256,23,53,144,-195,-681,-149,33,186,-382,-1017,140,109,128,105,370,541678
-262,-11,71,88,-2,13,-160,-29,62,-97,10,-107,153,-27,-16,-344,76,87,292,-268,-953,-182,95,306,-561,-1488,236,199,236,193,504,541679
-311,-38,55,77,-13,-2,-272,-132,142,-57,1,-238,101,-94,6,-450,17,5,246,-359,-1160,-269,64,252,-701,-1804,180,150,185,133,478,541680
-91,-20,-25,73,6,17,-17,187,-63,-107,-29,-55,-31,-7,-15,-236,-37,-72,69,-116,-590,-117,18,42,-266,-1029,5,25,56,23,-30,541681
134,-4,-68,55,39,30,187,343,-97,60,166,76,3,43,-24,50,-39,-60,-54,143,64,77,12,-72,186,-100,-74,-31,-26,-44,-408,541682
136,-9,-50,27,38,34,122,197,-104,47,153,112,6,48,-2,72,-11,-30,-61,152,132,83,27,-61,189,9,-63,-23,-38,-49,-224,541683
114,-8,-62,1,11,16,105,161,-125,2,253,121,5,187,64,103,15,-17,-63,169,190,99,36,-73,224,119,-90,-37,-52,-57,-195,541684
94,6,-41,-1,9,20,147,134,-64,68,193,80,-29,200,59,157,78,42,29,209,227,142,109,8,259,145,-6,39,20,13,-43,541685
79,-1,-37,-15,6,19,187,-13,56,137,251,172,51,205,71,175,104,84,69,213,237,149,148,51,255,166,49,69,44,59,-20,541686
-23,-14,-21,-13,-15,5,42,91,-9,63,71,-39,-68,209,42,23,61,66,74,60,-41,41,106,64,16,-213,50,67,34,39,122,541687
-463,-48,103,35,-38,-13,-532,-158,176,70,-398,-325,48,-18,-138,-497,145,190,450,-453,-1319,-300,183,438,-928,-2114,390,292,287,254,971,541688
-649,-82,133,65,-55,-24,-763,-199,165,-69,-642,-352,84,-120,-159,-734,219,241,674,-633,-2017,-437,260,654,-1355,-3218,582,416,483,429,1117,541689
-443,-77,60,52,-35,-11,-547,-162,91,-127,-352,-60,70,-41,-16,-517,181,175,531,-396,-1553,-288,221,496,-958,-2631,460,337,424,368,820,541690
-96,-35,-28,34,18,26,-122,-43,75,-68,-10,132,-220,129,83,-100,173,126,345,32,-582,39,233,284,-200,-1271,264,265,318,251,235,541691
71,-18,-73,-8,15,21,109,156,31,-65,23,178,-121,278,132,142,149,94,170,251,28,203,216,130,273,-348,112,182,204,136,-25,541692
45,-16,-54,-3,12,10,59,209,74,119,130,209,-131,117,108,97,82,62,78,173,2,154,133,84,224,-333,85,109,138,78,-55,541693
68,-24,-44,-4,17,21,56,179,-37,120,133,262,-196,99,109,54,25,-2,-13,134,30,110,75,12,186,-250,33,16,35,2,-150,541694
78,-31,-26,1,33,42,87,47,-8,53,-96,202,-61,95,140,54,20,-17,-41,127,63,99,73,-21,182,-181,3,-5,-11,-39,-152,541695
33,-28,-26,31,23,30,98,-41,26,100,-134,102,-43,-6,65,-49,-58,-87,-94,23,-47,1,-24,-79,68,-298,-72,-70,-87,-95,-215,541696
25,-5,-38,43,16,6,112,84,-67,135,-268,-21,-29,35,-81,-68,-80,-86,-101,-4,-64,-31,-60,-81,52,-304,-67,-76,-99,-92,-193,541697
71,8,-65,34,12,4,169,70,-177,99,44,39,-113,175,-22,20,-62,-83,-101,76,122,23,-47,-90,190,-43,-81,-62,-92,-86,-264,541698
65,-3,-76,5,-7,-13,117,-127,-80,198,161,197,25,134,56,92,15,4,-36,152,204,104,12,9,257,63,17,20,-10,12,-86,541699
90,-20,-75,-36,-18,-10,55,-18,-100,63,120,136,69,146,110,154,38,23,-37,207,327,169,49,-2,338,237,2,19,2,10,-93,541700
63,-6,-48,-17,-5,9,-26,38,-10,90,33,-22,-24,140,0,46,-25,-57,-123,90,193,47,-19,-107,189,101,-109,-84,-104,-92,-107,541701
61,-1,-3,12,24,43,-82,164,-86,214,-185,19,42,144,-54,2,-20,-48,-104,50,70,6,-24,-73,77,-75,-66,-84,-81,-60,-28,541702
107,-13,-25,-6,12,32,7,79,-72,39,23,-18,-85,98,-89,60,-42,-41,-157,102,194,59,-38,-102,174,104,-91,-107,-106,-82,-144,541703
65,-18,-36,-6,-2,6,35,89,-67,-172,262,-56,38,137,-74,48,-49,-36,-133,79,148,36,-40,-96,147,62,-96,-98,-117,-87,-145,541704
0,-20,-44,-37,-32,-25,-5,-42,-29,-179,123,90,-16,244,22,71,6,19,-50,87,101,61,3,-14,138,-26,-10,-19,-36,-17,-15,541705
25,-3,-46,-44,-32,-28,6,-117,-46,-151,158,119,-118,139,58,115,22,47,-64,137,200,101,-15,-12,208,106,1,-21,-24,-10,-9,541706
80,12,-47,-28,-10,-11,-26,-140,-41,-20,-33,110,0,73,64,89,-48,-33,-168,117,264,64,-97,-127,231,239,-124,-97,-119,-111,-157,541707
460,52,-121,-42,56,41,432,357,-88,-49,124,237,21,168,76,445,-181,-202,-498,474,1268,307,-234,-476,946,1741,-453,-303,-356,-330,-1012,541708
695,74,-158,-60,81,78,862,357,-79,-177,376,365,-62,203,124,689,-286,-306,-750,671,2040,463,-334,-726,1431,2989,-669,-488,-584,-520,-1420,541709
551,60,-130,-69,40,43,733,240,-150,-18,390,188,130,50,47,562,-289,-278,-703,497,1787,334,-349,-633,1183,2757,-569,-467,-573,-477,-1111,541710
187,31,-33,-57,-9,5,248,69,-39,-44,213,-113,324,84,-27,209,-166,-119,-392,132,850,88,-226,-293,497,1449,-264,-243,-333,-257,-279,541711
-85,7,37,-48,-45,-28,-97,-118,24,-172,94,-141,201,-99,-6,-43,-38,11,-72,-111,35,-45,-100,4,-45,250,-6,-46,-78,-37,211,541712
-64,8,26,-34,-37,-23,-64,-219,-2,-210,202,-116,186,-150,-67,-30,-44,11,-37,-90,-1,-53,-87,-2,-75,179,7,-63,-61,-21,141,541713
-45,10,30,-24,-17,3,-30,-166,-79,34,86,-159,11,10,20,-45,-51,2,-28,-101,-63,-92,-79,-9,-130,100,-15,-74,-80,-29,66,541714
-24,6,29,-2,0,16,41,-181,87,13,-10,-33,198,-139,0,-33,-32,21,6,-82,-47,-81,-27,-10,-123,73,-20,-50,-65,-30,82,541715
-31,12,23,13,-2,8,76,-59,101,83,-65,-144,-2,-233,-39,-24,-38,4,-21,-76,-37,-71,-23,-36,-114,60,-56,-67,-72,-54,65,541716
-1,21,6,26,0,0,106,-99,-49,125,19,-96,20,-42,-96,14,-50,-15,-40,-36,46,-26,-77,-44,-38,162,-45,-50,-77,-46,-51,541717
7,-4,-1,14,-7,-24,97,-111,-29,82,65,-118,48,65,-141,18,-37,-45,-13,-12,100,-8,-93,-33,12,225,-34,-18,-67,-44,-47,541718
43,15,-8,24,5,-23,135,34,-17,172,61,-92,-38,66,-38,54,-32,-62,-31,25,191,16,-44,-48,75,344,-65,-27,-68,-37,-94,541719
83,22,-30,-9,-1,-30,194,151,-38,-66,337,26,-162,-41,-25,149,20,-5,-52,105,336,85,26,-40,195,577,-32,-22,-49,-16,-126,541720
90,33,-29,-8,3,-11,213,133,49,15,175,63,9,39,2,165,57,28,-26,133,387,104,66,-9,231,651,17,-5,-27,2,-49,541721
-23,2,-9,-18,-24,-12,22,59,-10,136,-131,-142,-43,114,53,-26,11,2,-3,-43,54,-35,28,-7,-43,181,3,-12,-51,-16,115,541722
-23,-13,10,-36,-12,-6,-98,70,-25,55,-128,-109,176,127,-7,-21,26,20,36,-29,16,-18,23,28,-37,112,23,21,9,20,73,541723
-43,-15,30,-42,-11,4,-212,25,92,28,97,33,217,-25,18,-8,43,50,46,-29,-52,-12,22,77,-50,7,64,43,48,57,119,541724
-34,-10,27,-34,-9,-9,-134,257,17,-68,118,110,175,181,26,14,52,50,44,-7,-27,12,15,63,-12,31,72,48,46,59,90,541725
7,6,16,-28,-6,-6,35,-15,50,-51,87,9,90,214,66,31,42,29,7,21,66,34,1,31,53,159,37,20,21,26,-4,541726
46,10,-13,-3,6,-5,140,-6,101,-161,22,28,155,61,33,39,-17,-34,-84,29,167,30,-73,-56,110,324,-54,-44,-46,-49,-135,541727
337,56,-100,-2,32,13,476,244,-113,-166,145,244,19,174,33,366,-112,-148,-314,341,1024,230,-123,-322,731,1600,-302,-181,-233,-218,-859,541728
384,66,-106,-47,22,-4,430,148,-203,-5,45,188,-52,187,100,495,-83,-114,-333,439,1342,314,-67,-333,913,2136,-285,-182,-259,-216,-776,541729
232,43,-85,-70,-10,-38,181,49,-91,-66,-61,88,-141,105,-8,380,-28,-65,-242,307,1072,236,-22,-221,670,1768,-184,-139,-208,-152,-443,541730
11,20,-12,-83,-48,-54,-166,-68,95,-133,-79,-64,-187,-51,-10,146,25,16,-92,73,465,79,-1,-55,203,891,-35,-63,-107,-55,29,541731
-129,-7,42,-81,-52,-50,-344,-228,-1,-103,-24,-10,-86,86,27,42,138,139,147,-13,33,46,72,176,-85,205,187,104,95,130,346,541732
-107,-16,46,-59,-35,-33,-230,-268,-35,6,-259,80,-50,173,-2,22,87,101,141,-36,-29,12,21,151,-130,110,147,82,85,109,250,541733
-104,-13,12,-26,-32,-35,-95,-316,-3,-106,100,32,-190,-17,-17,-64,-45,-26,-8,-117,-104,-84,-103,3,-194,57,-8,-47,-44,-19,104,541734
-60,11,15,30,-9,-18,92,-208,-23,-119,149,-93,-190,-22,-10,-61,-52,-40,-8,-102,-98,-69,-114,-10,-183,64,-27,-35,-49,-24,8,541735
-41,3,7,0,-14,-12,121,41,31,-31,34,-74,-142,146,-36,-24,-37,-29,20,-75,-48,-48,-78,1,-122,121,-7,8,-38,-15,17,541736
-55,-12,20,-42,-12,-7,-51,15,-10,-148,-160,8,-107,-28,-35,-35,-10,-5,28,-76,-80,-53,-30,17,-128,73,38,15,-8,-3,109,541737
-138,-34,50,-66,-1,19,-316,-152,-11,-159,-450,-81,46,23,-42,-199,-9,-1,67,-202,-351,-142,18,59,-333,-330,60,15,8,11,233,541738
-206,-48,83,-35,-6,27,-492,-185,115,-118,-566,-66,200,-161,-70,-325,1,23,130,-314,-657,-230,13,124,-536,-801,103,47,64,44,374,541739
-235,-37,109,23,-6,28,-425,-201,96,139,-195,-83,94,-55,8,-311,88,126,265,-295,-810,-198,66,272,-581,-1089,246,173,207,176,539,541740
-131,-11,50,52,5,11,-111,-64,68,-2,46,-117,-15,-20,48,-183,70,75,195,-147,-522,-95,46,188,-329,-721,165,127,171,125,267,541741
-9,15,-8,44,9,15,155,29,92,-6,96,-53,51,16,33,-69,-26,-46,-18,-40,-135,-30,-45,-16,-55,-120,-36,-18,3,-22,-48,541742
19,24,-2,41,23,18,192,-90,74,-119,71,23,135,163,76,-15,-8,-27,-15,-4,-21,-5,-15,-21,16,37,-21,-9,-8,-20,-88,541743
32,15,-5,56,25,16,145,19,60,15,43,-33,43,88,34,-33,-27,-34,-41,-22,-21,-24,3,-36,-18,56,-22,-45,-42,-49,-122,541744
45,17,-19,71,28,23,105,43,-17,-90,13,-59,63,-93,-45,-54,-66,-72,-81,-49,-23,-41,-30,-89,-55,81,-83,-87,-87,-83,-98,541745
19,24,4,72,30,15,64,98,-135,7,-323,-47,28,-125,-57,-64,-36,-36,-13,-59,-101,-43,15,-32,-100,-29,-36,-36,-42,-39,-55,541746
-31,-7,7,32,-15,-13,52,59,-116,-12,-2,-7,225,-107,-17,-24,56,59,84,-24,-143,-3,86,95,-87,-119,98,68,66,70,106,541747
-606,-76,163,42,-78,-51,-691,-384,237,172,-3,-349,100,-287,-43,-589,251,297,625,-606,-1720,-383,243,657,-1221,-2501,626,440,473,437,1352,541748
-914,-111,261,127,-56,-35,-1121,-580,346,199,-473,-435,18,-426,-92,-1044,261,319,884,-994,-2874,-686,268,876,-1969,-4304,791,578,681,577,1738,541749
-761,-112,219,143,-5,9,-919,-508,242,166,-506,-410,198,-239,-70,-999,213,220,829,-870,-2759,-620,251,759,-1766,-4271,665,526,659,514,1320,541750
-295,-81,67,143,46,32,-229,-47,175,54,-173,-69,57,28,-25,-525,99,37,456,-359,-1542,-267,165,359,-820,-2601,289,283,399,275,365,541751
208,-11,-68,128,94,62,439,174,-87,16,161,120,-37,232,36,-1,-77,-176,-82,130,-36,28,3,-165,183,-388,-199,-62,-18,-90,-635,541752
174,0,-64,105,72,57,385,179,-108,299,83,5,-55,119,7,7,-83,-152,-126,92,62,23,-22,-175,169,-197,-203,-70,-78,-137,-421,541753
132,-11,-66,53,45,30,302,159,-3,140,191,97,56,209,7,21,-65,-109,-100,83,86,46,-27,-126,169,-159,-169,-32,-62,-107,-303,541754
100,-7,-69,20,12,4,205,71,57,26,-40,98,54,13,18,38,-23,-66,-76,92,100,75,-15,-70,180,-125,-113,-7,-26,-67,-220,541755
91,-1,-45,26,37,12,110,29,-69,96,-128,107,30,56,100,42,14,-13,-43,97,76,86,25,-22,164,-143,-23,9,-2,-27,-57,541756
-13,-15,-18,17,20,-8,-49,53,-43,151,139,56,45,-5,73,-44,59,40,48,15,-166,41,70,72,-28,-487,73,59,62,48,169,541757
-473,-63,120,49,-34,-42,-598,-193,148,167,-246,-145,106,-161,-50,-508,213,247,457,-464,-1478,-281,209,506,-982,-2441,479,315,365,342,1081,541758
-795,-108,175,82,-66,-69,-915,-621,336,58,-511,-235,-149,-36,-127,-887,281,334,788,-783,-2510,-529,290,781,-1660,-4063,733,512,610,533,1510,541759
-746,-103,168,119,-28,-35,-793,-545,256,93,-520,-194,-26,-115,-163,-874,276,307,854,-722,-2547,-504,319,775,-1607,-4251,714,554,670,547,1310,541760
-289,-72,55,94,47,24,-241,-176,131,103,-39,168,-94,132,58,-386,195,166,522,-218,-1380,-159,277,443,-674,-2645,399,380,483,357,347,541761
200,-17,-92,55,87,57,349,120,38,-77,232,360,-185,172,180,80,-2,-75,-40,221,26,143,93,-94,311,-524,-118,7,44,-42,-469,541762
184,-5,-94,42,55,27,303,68,75,65,246,188,-218,92,80,74,-47,-104,-147,171,142,98,19,-163,314,-259,-155,-68,-64,-137,-408,541763
123,-11,-54,26,44,31,199,112,-11,192,86,93,-115,51,73,42,5,-27,-51,127,48,84,59,-39,224,-368,-15,20,10,-50,-202,541764
112,-24,-61,13,26,19,232,167,-60,135,158,76,-78,2,106,28,-40,-55,-102,107,75,69,15,-82,220,-269,-73,-32,-53,-72,-268,541765
86,-15,-57,23,30,13,182,223,-19,9,265,54,-19,-118,5,28,-24,-39,-82,95,36,81,4,-41,188,-298,-51,-19,-16,-58,-216,541766
41,-13,-25,17,33,14,90,58,15,25,159,-28,15,-41,18,3,6,-3,-37,48,-73,69,18,11,98,-454,15,10,25,-17,-17,541767
-542,-87,125,35,-53,-24,-655,-376,93,69,-222,-241,78,-174,-67,-625,151,193,448,-570,-1685,-371,141,503,-1110,-2854,483,310,339,298,1173,541768
-748,-108,177,86,-52,-30,-931,-501,101,122,-295,-268,36,-180,-54,-865,264,305,768,-756,-2469,-500,265,767,-1585,-4169,728,516,598,515,1543,541769
-584,-89,138,121,-4,-9,-653,-347,173,159,-353,-174,-86,-160,-18,-682,312,299,785,-516,-2161,-350,343,733,-1241,-3876,670,554,643,524,1083,541770
-178,-57,-13,97,32,2,-63,-71,-23,53,-157,82,-128,116,21,-289,151,84,386,-96,-1066,-76,193,317,-400,-2340,271,290,367,247,97,541771
201,-20,-121,65,65,29,418,185,-155,149,26,253,-187,129,82,49,-84,-172,-152,226,76,112,-35,-191,323,-612,-195,-86,-65,-137,-605,541772
186,1,-108,66,66,31,341,149,-116,56,41,127,-251,98,63,51,-60,-142,-162,199,149,91,-21,-180,304,-471,-187,-83,-112,-137,-461,541773
127,-1,-95,33,40,4,229,212,-66,0,-338,25,-44,211,23,79,19,-40,-66,200,134,112,56,-77,284,-487,-71,0,-33,-43,-239,541774
86,-8,-93,-3,5,-19,117,278,-87,29,-45,119,49,140,-4,86,52,1,-39,198,125,125,67,-27,264,-496,-32,27,-1,-2,-121,541775
128,6,-63,-6,23,4,75,164,-72,103,246,168,-5,80,82,119,69,15,-20,231,189,159,77,1,311,-393,-2,45,26,26,-127,541776
99,-10,-47,-3,18,12,23,30,33,78,183,156,3,48,128,73,51,10,-6,172,96,115,61,9,217,-501,10,35,29,14,-101,541777
-119,-35,26,11,-7,2,-189,-64,170,-45,-232,61,78,-266,95,-148,77,85,117,-74,-489,-63,81,143,-250,-1346,143,112,107,94,341,541778
-198,-36,62,34,2,36,-227,156,139,-73,-21,-3,141,-138,43,-266,80,85,191,-187,-782,-152,90,188,-446,-1791,169,148,142,111,356,541779
-187,-48,43,34,13,34,-200,5,149,-44,-173,-15,-85,-125,28,-303,40,36,173,-206,-798,-165,37,153,-419,-1831,131,120,120,81,289,541780
-21,-19,-12,25,43,32,3,23,23,-76,33,97,-185,12,52,-98,6,2,59,4,-354,-5,-12,78,-31,-1210,71,84,93,59,-4,541781
141,5,-60,18,48,32,210,143,-76,-25,221,217,-57,25,64,108,-25,-38,-82,189,160,147,-42,-67,347,-418,-66,5,0,-32,-297,541782
134,9,-50,28,39,30,180,234,-22,40,-5,125,-13,-147,141,55,-66,-83,-170,120,152,93,-74,-135,287,-317,-148,-69,-82,-99,-345,541783
128,1,-55,2,24,16,170,12,-83,73,-126,186,-295,-22,102,53,-75,-82,-158,106,168,73,-56,-128,266,-223,-146,-73,-89,-89,-328,541784
148,22,-42,21,44,38,206,87,-69,228,-53,61,-84,-58,13,82,-52,-50,-116,129,220,84,-10,-94,273,-129,-130,-56,-68,-69,-244,541785
128,8,-43,20,36,38,158,49,-104,86,-131,-8,-99,38,-35,73,-34,-45,-78,103,169,79,4,-76,236,-175,-111,-24,-41,-54,-180,541786
57,-15,-16,-29,18,20,23,6,-65,-16,-161,-21,-135,-181,-41,25,7,1,-12,41,50,39,31,-1,112,-367,-26,5,-22,-3,-30,541787
-276,-54,82,-22,-16,-6,-423,-229,131,-47,2,-86,-17,-322,12,-324,89,126,262,-300,-864,-204,58,282,-566,-1760,239,161,150,175,649,541788
-370,-71,77,-11,-32,-25,-542,-289,179,65,-53,-127,90,-1,-34,-386,154,187,394,-324,-1155,-219,87,410,-714,-2300,362,261,295,283,717,541789
-253,-35,55,23,-10,0,-331,-1,120,173,5,41,-50,34,74,-281,169,185,388,-180,-925,-130,159,341,-508,-2063,301,261,292,257,478,541790
-52,-30,-8,29,24,18,-35,-14,-10,140,-14,146,-3,23,87,-104,88,69,205,4,-433,-24,128,139,-144,-1366,119,128,144,121,44,541791
156,-8,-77,21,37,36,217,219,-77,-29,122,60,-32,98,14,100,8,-51,-56,198,172,95,72,-82,284,-453,-83,-23,-31,-35,-331,541792
143,24,-66,31,32,41,191,404,-75,165,166,58,-86,28,30,87,-19,-69,-77,166,202,92,41,-94,267,-391,-94,-21,-62,-61,-257,541793
120,23,-40,36,31,33,125,203,-24,85,18,160,-19,45,5,65,-29,-62,-96,144,195,88,11,-98,242,-385,-84,-34,-65,-60,-204,541794
78,2,-49,-16,-8,8,-24,222,-37,56,13,122,-40,6,7,34,-40,-70,-118,117,171,65,-20,-105,221,-408,-92,-57,-73,-76,-192,541795
69,-18,-55,-30,-8,-4,-90,200,-5,-26,-175,218,3,159,70,62,5,-32,-61,141,191,94,29,-72,236,-386,-65,-29,-35,-42,-156,541796
100,-2,-37,-26,13,15,8,204,24,7,-30,281,-27,201,98,94,1,-31,-60,177,247,114,30,-76,282,-278,-73,-39,-43,-46,-225,541797
186,24,-60,-8,11,15,271,237,-148,169,307,210,-39,158,107,164,-62,-69,-201,220,458,129,-41,-209,433,101,-176,-160,-144,-140,-311,541798
195,37,-85,-17,5,-4,366,118,-85,-133,334,82,-67,229,67,208,-46,-67,-256,243,582,163,-43,-239,500,301,-198,-194,-175,-164,-356,541799
183,50,-79,-16,16,6,316,25,-36,-198,-12,62,-19,174,11,234,-25,-52,-211,250,630,181,-8,-202,487,363,-183,-149,-153,-140,-397,541800
78,25,-59,-31,-6,-7,125,31,-124,-213,-219,20,-28,80,-38,129,-44,-44,-139,120,373,78,-21,-152,261,67,-143,-112,-137,-115,-190,541801
41,33,-25,-32,-1,-5,48,80,-103,-113,30,13,-55,-44,-38,131,40,47,-22,116,287,99,50,-31,209,-56,-12,-11,-35,-19,-83,541802
49,23,-38,-47,-17,-13,39,57,-68,-84,-111,55,-281,-59,11,147,73,65,6,131,326,130,78,-2,241,-14,5,24,-7,17,-38,541803
44,13,-26,-50,-14,-10,-26,34,10,-36,-217,8,-132,-38,0,82,37,19,-13,79,252,86,28,-45,187,-87,-55,5,-36,-19,-14,541804
17,2,-20,-61,-19,-20,-142,46,-6,177,52,82,11,-82,33,45,28,7,-13,50,169,46,11,-28,124,-193,-36,7,-30,-19,-31,541805
10,3,-21,-40,-14,-17,-223,123,8,19,204,98,72,-12,8,18,-16,-24,-63,9,124,6,-38,-69,80,-236,-74,-37,-67,-54,13,541806
40,0,-15,-48,-2,9,-198,32,-99,-11,123,64,-132,-54,-4,21,-46,-36,-100,22,146,11,-62,-89,107,-183,-98,-67,-83,-55,-29,541807
134,8,-23,-46,31,30,111,-37,-91,30,-47,103,-18,105,-10,119,-46,-23,-148,140,370,101,-46,-120,304,160,-121,-91,-91,-59,-150,541808
194,24,-57,-24,21,18,330,115,-12,-47,163,109,-71,69,-71,153,-98,-71,-247,178,539,120,-93,-225,420,451,-223,-163,-176,-156,-334,541809
189,39,-49,4,15,15,340,146,-36,-74,301,25,-87,81,-25,163,-103,-74,-241,177,553,121,-114,-209,404,490,-212,-159,-178,-151,-319,541810
84,34,-23,-2,2,4,186,2,-49,-56,112,-2,45,75,-64,69,-77,-63,-146,60,297,39,-99,-121,186,129,-124,-101,-119,-100,-180,541811
12,17,-19,1,-1,6,92,4,-9,-112,-156,-72,-6,-87,-63,-19,-68,-51,-93,-32,57,-33,-74,-83,18,-213,-80,-85,-91,-71,24,541812
20,17,-26,-1,-8,-14,109,101,42,-214,-8,-63,58,63,-34,-3,-9,-1,-55,5,70,13,-24,-45,56,-231,-28,-49,-50,-26,71,541813
11,32,-28,7,-12,-31,123,-46,-53,-54,-91,-77,247,-47,0,69,82,81,56,93,118,105,74,59,127,-243,54,57,60,58,99,541814
48,43,-20,10,-1,-14,124,8,12,75,-159,-13,18,70,42,76,36,26,1,94,174,88,35,-18,160,-147,-13,-3,-11,6,23,541815
44,35,-8,19,7,11,92,22,7,-10,-77,-130,104,-47,-27,7,-46,-57,-79,20,129,11,-54,-88,74,-186,-85,-79,-95,-64,-88,541816
60,27,-5,22,2,18,111,46,52,4,41,-194,104,36,-51,11,-72,-95,-122,19,163,0,-79,-123,81,-129,-124,-105,-128,-101,-180,541817
231,34,-62,-6,8,11,332,44,-87,-117,252,-67,-90,-171,-25,272,-69,-102,-232,257,700,185,-99,-229,492,677,-210,-148,-176,-150,-443,541818
294,36,-91,-41,1,-1,430,183,-285,0,260,42,-101,-71,4,394,-60,-88,-296,362,1001,261,-86,-269,687,1163,-246,-160,-210,-173,-540,541819
280,42,-98,-49,-15,-20,388,271,-119,-80,184,42,-73,81,3,333,-116,-140,-333,295,1002,188,-133,-326,640,1246,-301,-224,-272,-226,-488,541820
123,24,-24,-35,-18,-19,135,-2,42,9,15,16,94,88,-84,155,-81,-70,-210,100,552,74,-102,-191,288,635,-174,-145,-184,-149,-133,541821
-49,-11,1,-42,-43,-42,-97,-94,-22,-112,-117,9,24,68,-28,14,1,16,-7,-31,102,-5,-18,-2,-27,-52,6,-13,-29,-8,128,541822
20,5,-26,-43,-26,-19,-11,25,-59,-180,-70,-23,-23,-89,18,83,-29,-24,-22,42,235,36,-46,-46,105,132,-42,-39,-44,-11,-33,541823
-23,12,5,-31,-27,-10,-34,-52,-70,-200,-133,-133,70,-89,62,43,-32,-26,-22,1,134,5,-78,-26,19,-21,-30,-31,-37,1,-11,541824
-62,3,19,-34,-39,-25,-89,-142,36,-87,-178,-131,-49,75,15,-23,-7,2,16,-42,5,-44,-52,15,-62,-216,4,11,-10,16,-4,541825
-41,9,0,-41,-31,-20,-82,-159,42,-56,-23,-90,-148,38,-23,-38,-7,2,-2,-43,33,-62,-28,-17,-14,-171,-9,-3,-27,-2,-29,541826
16,20,-21,-28,-10,2,-7,74,-22,-46,-85,0,-174,177,1,-2,-75,-74,-117,-8,146,-39,-116,-105,89,14,-97,-92,-86,-66,-217,541827
301,44,-111,-30,12,13,310,351,-224,-83,29,76,-147,90,-33,292,-199,-213,-437,274,924,153,-224,-415,653,1214,-379,-322,-303,-274,-755,541828
393,52,-116,-73,13,4,427,257,-141,-198,110,206,70,-104,92,456,-140,-166,-446,408,1294,272,-145,-433,884,1799,-399,-310,-335,-274,-735,541829
274,41,-69,-97,-18,-2,306,172,7,-216,247,215,132,-11,113,401,-85,-82,-356,324,1128,245,-105,-302,694,1577,-273,-237,-267,-180,-350,541830
57,47,16,-71,-30,-5,-25,5,122,-97,333,58,90,-84,26,183,-5,42,-125,86,524,88,-46,-78,211,695,-60,-79,-120,-41,105,541831
-125,16,32,-90,-56,-41,-277,-132,55,-98,106,-67,-53,-37,-28,44,103,151,123,-36,44,23,57,113,-85,-52,100,85,57,103,301,541832
-139,-26,5,-135,-73,-56,-323,-140,30,-265,-39,-48,-122,-43,-4,70,137,180,170,10,39,70,143,157,-53,-124,137,118,118,145,263,541833
-65,-19,39,-74,-14,8,-251,-230,56,-169,14,-48,-144,-145,52,41,75,89,94,-2,39,47,86,75,-41,-111,75,43,65,76,202,541834
-13,-14,47,-8,25,33,-158,-252,-112,0,3,-156,-112,-179,-40,-27,-49,-22,-21,-74,-19,-44,-40,-38,-89,-118,-13,-53,-47,-37,52,541835
-7,11,17,14,2,9,29,-110,49,29,-3,-84,48,-142,-26,-23,-24,7,-30,-54,16,-34,-42,-27,-54,-82,-4,-32,-24,-30,52,541836
14,36,5,54,-12,-5,134,113,24,-96,-158,3,-92,6,-44,-21,-17,12,-40,-32,77,-39,-20,-34,-3,-2,-24,-25,-35,-31,11,541837
82,47,11,67,19,25,140,88,80,5,262,7,-62,171,-28,17,-48,-37,-70,0,218,-10,-42,-75,103,201,-87,-48,-75,-66,-130,541838
75,26,-1,43,16,10,92,100,52,33,185,-60,80,35,-56,51,-40,-50,-63,19,254,26,-43,-82,138,267,-83,-56,-75,-61,-96,541839
84,21,-3,32,10,8,82,174,1,-48,46,9,200,-72,12,73,-23,-35,-78,47,286,42,-28,-97,139,332,-67,-77,-89,-60,-54,541840
11,8,1,9,-23,-9,-6,78,-24,115,-105,-122,250,-126,-43,-20,-19,-22,-31,-35,102,-41,-18,-66,-15,79,-32,-63,-75,-45,68,541841
-1,0,23,4,-9,7,-43,104,-16,88,-17,-160,150,28,-60,-11,30,15,39,-22,19,-47,29,17,-58,-80,19,11,5,21,123,541842
63,11,19,2,16,22,72,-2,-48,-32,72,-28,83,127,-9,82,26,18,20,73,191,27,38,-4,99,130,-14,5,7,30,-17,541843
60,15,10,18,10,8,139,1,28,-52,99,-24,50,-11,-39,46,-18,-21,-40,38,182,-9,-15,-68,76,120,-67,-33,-39,-25,-43,541844
83,22,-4,53,19,17,197,-30,-47,-70,111,-51,130,-181,-92,12,-83,-90,-137,-6,195,-52,-83,-145,79,154,-147,-115,-113,-109,-139,541845
91,16,-14,49,8,18,257,-117,-82,-57,29,-66,-45,-161,-13,19,-103,-113,-155,-2,208,-55,-102,-168,93,187,-164,-138,-146,-121,-177,541846
80,30,-17,60,13,8,242,-21,-46,51,15,2,-105,-47,-3,30,-70,-73,-91,24,205,-36,-54,-134,94,187,-144,-86,-109,-95,-110,541847
178,42,-47,40,22,-1,280,134,-78,6,9,77,-18,-27,23,165,-50,-81,-137,164,519,80,-13,-176,318,640,-178,-102,-124,-112,-331,541848
247,44,-56,12,16,14,320,246,-91,-177,173,30,26,-32,-37,243,-98,-136,-273,211,766,109,-63,-281,454,1061,-245,-198,-234,-191,-472,541849
167,23,-49,-17,-9,3,196,169,-105,-279,20,-68,51,-54,-108,179,-117,-120,-272,117,619,64,-113,-254,316,920,-191,-202,-242,-188,-225,541850
29,19,-2,6,-16,1,28,69,-22,-18,7,-128,-90,-141,-18,36,-43,-9,-123,-22,225,0,-72,-86,14,358,-41,-103,-118,-67,140,541851
10,46,47,43,7,14,22,-10,36,41,27,-86,-37,0,0,-1,-13,51,-13,-45,85,-21,-41,3,-56,127,34,-20,-25,9,108,541852
5,26,48,29,6,11,19,-146,54,-41,-80,29,138,-154,-26,-3,-33,36,-30,-50,64,-25,-79,-11,-45,120,11,-21,-32,-4,73,541853
-10,12,34,11,-5,1,-24,-165,103,-135,177,-26,-25,-160,-54,-10,-22,29,-21,-59,26,-16,-63,1,-64,55,4,-14,-21,-4,44,541854
-16,17,38,16,12,16,-6,-96,67,-141,245,-50,-25,-32,8,14,37,79,37,-41,3,19,9,65,-68,-7,70,31,49,59,117,541855
-49,-3,13,-15,-7,-6,-40,-75,18,-183,-143,-75,-5,13,-83,11,24,66,41,-44,-36,5,2,73,-84,-55,85,29,50,68,119,541856
-56,-5,15,-21,-5,-5,-58,-167,-90,-343,-462,-75,15,7,-24,37,50,85,70,-19,-25,18,33,78,-49,-46,63,61,70,76,127,541857
-26,1,13,-30,-3,5,-93,-45,22,-69,-11,46,-76,140,24,41,36,54,58,-6,28,21,31,45,0,22,24,55,50,45,23,541858
14,-1,7,-28,-2,-1,-89,-69,87,166,-61,55,-213,-262,41,41,-9,12,25,14,86,24,-9,27,30,111,0,25,22,29,-35,541859
16,-8,8,-37,-13,-2,-62,170,72,225,67,0,55,-207,47,8,-57,-18,-29,1,69,7,-40,-30,2,120,-40,-34,-20,-17,-103,541860
-4,-6,19,-33,-11,8,-99,-70,103,73,-95,-43,78,-80,46,-37,-38,-17,-17,-43,-16,-28,-23,-27,-57,-8,-38,-42,-28,-27,-44,541861
-7,-11,25,-21,3,24,-121,-83,78,79,-103,-126,90,-56,-2,-48,-20,-24,3,-42,-56,-41,-17,-5,-80,-104,2,-29,-10,-4,1,541862
35,-17,-2,-28,4,20,-33,-20,24,-39,130,-65,133,130,-81,9,-31,-34,-32,26,80,-12,-33,-46,31,61,-9,-46,-34,-18,-46,541863
-5,-13,-3,-27,-15,-5,-5,46,-89,145,252,-42,94,68,-17,34,39,49,39,31,60,20,28,40,26,-25,73,30,31,44,89,541864
-5,12,20,-5,-1,5,67,23,30,51,-36,38,-63,-10,60,64,70,69,79,50,67,50,53,55,26,-56,84,54,53,62,51,541865
20,15,32,15,13,18,132,-98,116,20,104,23,87,-126,54,31,-15,-13,-13,31,81,6,-35,-29,11,-34,-14,-31,-30,-20,-44,541866
63,22,12,46,22,17,152,-19,167,46,145,34,148,119,66,20,-74,-78,-91,27,149,-14,-113,-113,55,102,-100,-83,-96,-88,-147,541867
165,23,-44,11,8,2,203,309,72,87,42,37,13,-52,93,157,-72,-104,-186,152,485,87,-86,-196,291,633,-169,-115,-150,-138,-408,541868
187,26,-32,-5,19,13,188,309,-121,183,156,143,-54,35,68,218,-56,-80,-190,187,600,137,-41,-182,354,834,-165,-110,-141,-125,-326,541869
154,6,-24,-38,3,2,116,132,-162,238,-99,67,-76,73,-23,173,-93,-93,-230,116,531,87,-78,-209,295,806,-211,-145,-176,-156,-269,541870
41,5,25,-24,-1,11,-18,38,-79,153,-138,-32,20,-81,-14,60,-48,-8,-114,2,226,5,-53,-72,67,396,-80,-66,-85,-68,-39,541871
-52,-3,53,1,-15,-2,-121,-68,69,96,19,25,77,-177,48,-73,-65,13,-56,-119,-112,-87,-80,-6,-165,-61,-2,-55,-36,-20,109,541872
-36,-21,52,4,-7,0,-98,-111,97,-46,-94,-22,67,-21,1,-78,-88,-14,-116,-120,-108,-101,-112,-54,-147,-63,-52,-97,-66,-51,6,541873
-33,-16,38,-18,-11,6,-112,118,82,-29,26,-11,-22,-46,23,-2,19,66,3,-43,-67,-27,-5,51,-93,-36,52,15,38,47,87,541874
-53,-24,29,-32,-27,-13,-69,-36,40,137,6,72,5,-40,29,57,101,129,107,22,-10,47,62,143,-26,1,123,111,118,128,140,541875
-73,-17,18,-47,-37,-16,-72,-40,-116,108,22,34,34,-215,28,32,60,87,93,0,-41,26,26,115,-59,-16,105,91,98,108,100,541876
-67,-10,-1,-49,-29,-16,-94,-174,-51,27,268,-73,-60,-165,31,35,41,48,95,-6,-31,28,33,87,-83,-3,79,72,92,89,94,541877
85,8,-43,-47,4,-2,28,21,39,-5,-25,22,-134,103,125,183,-27,-23,-48,166,368,150,-38,-35,216,572,-47,-13,7,10,-279,541878
150,2,-36,-56,11,19,42,67,-90,0,-49,142,97,148,139,230,-75,-26,-125,192,521,177,-116,-95,332,838,-88,-62,-62,-40,-301,541879
139,0,-4,-57,17,32,3,-101,-168,-17,19,92,-125,228,16,171,-84,-35,-162,125,435,109,-147,-123,247,747,-107,-111,-127,-74,-220,541880
51,11,25,-16,0,14,-73,-96,41,-69,27,-16,3,-143,-5,44,-54,-27,-96,-8,165,-6,-97,-76,-1,346,-66,-107,-125,-51,-163,541881
-17,-5,18,-1,-20,-22,-83,-176,85,25,57,8,95,-109,-79,-67,-68,-39,-23,-104,-36,-111,-57,-53,-153,31,-52,-77,-106,-58,-85,541882
7,11,26,14,-6,-1,-21,-38,29,140,97,25,97,-35,-47,-39,-43,-56,-36,-58,44,-64,2,-81,-71,109,-78,-58,-103,-75,-47,541883
0,-8,8,-4,-6,10,-17,-51,-74,-4,177,-30,-48,-15,-61,-48,-40,-64,-108,-55,45,-45,-16,-90,-57,98,-89,-87,-97,-84,-53,541884
19,-6,8,-10,1,11,25,-38,55,-165,-16,-65,83,9,-24,3,-36,-25,-60,-11,61,2,-23,-36,9,136,-28,-45,-30,-25,-37,541885
22,4,18,-2,0,1,90,31,70,152,-169,-42,38,128,50,33,-16,-3,-21,22,73,29,12,-18,26,150,3,-29,-2,3,-17,541886
64,29,15,10,10,1,158,44,94,103,5,8,25,176,67,98,6,-3,-31,77,229,60,66,-59,108,366,-27,-51,-23,-18,-103,541887
105,19,-25,-26,-10,-17,144,-109,79,33,74,34,-27,138,-17,162,-15,-24,-54,126,420,75,53,-105,233,657,-97,-71,-80,-64,-265,541888
147,28,-36,-38,-5,-3,152,13,-11,65,4,8,-19,90,28,204,-53,-66,-115,149,566,85,0,-156,299,881,-132,-97,-134,-109,-284,541889
160,22,-37,-33,5,7,126,-13,-125,172,-290,106,63,77,92,173,-75,-79,-166,112,564,54,-69,-200,262,924,-158,-126,-181,-133,-301,541890
75,6,12,-20,-1,11,29,-71,-72,60,-152,-33,19,-33,23,103,-9,-9,-65,42,331,38,-81,-74,114,583,-52,-27,-82,-47,10,541891
-20,2,64,8,3,11,-85,-29,58,137,-61,-43,51,-211,-12,1,47,51,47,-45,11,-5,-24,57,-96,101,69,56,30,53,163,541892
-29,4,67,18,5,19,-97,-107,39,0,38,-61,140,-185,-28,-61,-11,-12,17,-95,-90,-66,-60,17,-163,-13,32,8,6,25,59,541893
-50,-12,40,-5,-12,2,-114,-187,60,164,-38,-103,-25,-54,-42,-113,-63,-67,-34,-139,-145,-133,-104,-41,-214,-56,-34,-49,-61,-34,42,541894
-50,-16,25,-30,-25,-2,-97,-108,127,-18,-80,-5,-88,-18,-48,-43,-8,-6,40,-65,-84,-80,-28,36,-134,-10,20,17,21,32,66,541895
-52,-5,31,-25,-17,-3,-136,-71,32,-141,58,67,-14,97,27,-12,35,43,87,-46,-88,-56,31,68,-75,-29,41,71,79,67,125,541896
-41,-13,6,-38,-16,-11,-167,-52,32,92,146,140,178,51,77,22,55,73,83,-11,-22,-16,34,90,10,15,84,86,109,94,139,541897
14,-4,-20,-60,-8,-5,-113,-69,60,61,-102,174,54,203,46,118,75,80,57,99,201,71,70,72,174,311,88,80,97,92,19,541898
73,7,-25,-65,-3,2,-65,-39,25,-13,-173,122,-109,233,-32,201,83,77,39,173,379,143,80,46,292,569,73,79,75,82,-96,541899
72,11,-7,-59,-4,-4,28,-103,-49,113,-157,71,-100,186,-3,237,106,101,39,193,416,164,101,53,305,604,61,106,66,80,-87,541900
-15,14,-7,-28,-25,-23,25,-244,-194,53,56,3,-120,-16,22,110,51,64,34,77,190,62,32,49,100,307,55,81,44,60,80,541901
-69,17,23,-17,-20,-31,-77,-144,-63,-20,30,22,-13,18,17,5,9,60,26,-24,-17,-7,-30,50,-55,42,54,45,35,49,159,541902
-72,-6,35,-30,-17,-13,-232,-20,-2,96,19,1,-67,3,-31,-48,-23,32,-7,-77,-97,-60,-64,19,-131,-61,28,-2,14,11,96,541903
-29,5,36,-20,11,14,-288,-27,37,43,-93,78,-166,-60,-105,-48,-41,-6,-3,-79,-75,-62,-34,-9,-108,-23,-3,-34,-20,-21,2,541904
6,-8,22,-41,8,9,-226,134,5,-25,31,159,-176,-11,-29,32,7,25,12,-9,61,23,23,3,-2,147,8,-10,8,11,89,541905
24,-2,3,-39,-7,-8,-28,140,-3,-65,154,108,20,201,-7,131,76,93,41,72,194,116,80,49,96,289,51,46,69,68,93,541906
47,28,2,-4,-2,-4,129,5,-78,-118,37,43,31,171,-63,133,58,58,-11,79,259,95,57,-3,115,410,16,3,11,33,23,541907
17,32,11,33,10,7,155,-11,-37,-168,98,-18,-38,281,-11,67,51,39,7,16,132,32,59,3,24,227,3,5,16,24,52,541908
92,31,-22,37,18,14,240,86,-2,-68,-62,-55,40,253,-94,132,-25,-32,-72,88,330,79,-34,-75,187,533,-74,-52,-40,-29,-246,541909
108,41,-6,41,24,5,228,-138,82,-58,50,70,26,152,-44,130,-46,-48,-81,98,338,83,-61,-84,215,596,-82,-57,-44,-40,-350,541910
23,15,10,17,4,-11,111,-260,-31,-2,-71,86,73,57,-27,12,-72,-66,-62,-10,119,-19,-70,-63,53,326,-54,-68,-44,-39,-202,541911
-21,-2,10,20,-8,-9,41,-44,17,-56,-122,-18,153,-109,-62,-64,-96,-88,-66,-91,-35,-94,-94,-63,-58,116,-44,-89,-57,-59,-104,541912
21,23,22,58,10,9,101,57,-16,141,-184,-31,28,-35,-43,-34,-72,-80,-64,-48,26,-67,-75,-63,-5,194,-42,-72,-55,-62,-24,541913
-21,29,23,43,-5,1,64,206,18,93,-214,-33,95,118,-58,-36,-21,-19,0,-33,-19,-48,-28,-9,-25,132,4,-22,-5,-3,-6,541914
-50,14,7,8,-23,-25,-20,53,-71,-241,-63,25,98,174,-31,-17,5,3,56,-16,-13,-29,18,17,-29,104,27,17,24,33,31,541915
-38,-3,15,-5,-16,-20,-102,-138,-8,-114,179,-1,-78,366,-30,-21,-11,-19,58,-32,-24,-49,24,-6,-62,97,-13,-5,-9,8,-59,541916
-8,-5,27,-11,1,8,-74,4,21,180,91,-102,-3,134,-62,-23,-43,-42,3,-31,-4,-43,-35,-34,-62,105,-44,-45,-39,-33,-69,541917
64,-13,-8,-28,-4,2,128,234,-113,70,-257,-104,87,-61,22,88,-30,-45,-63,83,232,29,-32,-79,124,453,-57,-53,-51,-44,-183,541918
93,32,-11,19,17,10,263,67,-52,47,38,-8,16,31,16,100,-30,-53,-111,85,278,8,-23,-106,169,542,-88,-65,-77,-75,-195,541919
90,28,-25,22,11,-6,220,25,-35,60,238,-8,39,8,-60,90,-49,-75,-177,57,293,-9,-61,-121,179,557,-127,-86,-99,-103,-143,541920
28,7,4,2,-9,-12,69,178,-71,117,98,16,28,25,-27,79,-10,-22,-87,26,176,16,-6,-30,83,379,-53,-10,-21,-35,29,541921
-20,13,11,18,-15,-34,18,61,-84,-56,-74,-3,-94,-21,52,33,11,17,-1,-30,25,14,11,25,-31,161,13,21,20,20,58,541922
-42,20,-5,28,-25,-55,79,103,-43,28,-88,15,16,17,71,-1,8,30,21,-47,-18,15,-28,42,-69,98,36,16,33,37,88,541923
-27,28,12,31,-17,-37,118,170,55,37,-45,159,93,26,92,29,12,59,33,-14,6,43,-44,57,-28,144,65,28,43,57,142,541924
-42,16,21,-4,-22,-24,30,-156,-29,-116,31,74,5,234,67,15,-9,43,-9,-40,-31,-6,-67,25,-54,111,49,6,16,31,110,541925
-73,-6,31,-34,-12,-9,-147,-26,74,-85,-157,106,108,282,9,-17,9,44,23,-78,-92,-30,-47,62,-91,17,76,43,32,58,85,541926
-45,-24,41,-51,-14,19,-203,8,80,45,47,73,89,107,-16,18,30,49,44,-29,-53,25,-11,74,-38,52,93,62,58,73,15,541927
64,-5,39,-37,15,46,-72,-55,67,47,12,-1,-62,-6,33,90,-14,-2,-60,52,175,52,-49,-46,113,390,-23,-35,-20,-19,-174,541928
165,20,5,-29,35,46,95,-55,-2,153,-104,-41,67,-96,76,162,-49,-46,-160,125,446,67,-48,-171,271,813,-153,-127,-129,-105,-337,541929
123,23,-14,-39,2,11,111,159,77,112,293,-26,-79,-56,73,210,1,-6,-78,169,492,109,2,-88,284,842,-64,-58,-65,-35,-320,541930
0,14,-21,-79,-45,-47,-52,39,59,-80,143,8,-75,172,13,135,46,56,27,104,296,78,60,13,142,568,33,30,11,38,-51,541931
-110,-7,-5,-96,-54,-43,-287,-188,27,-39,-45,27,-86,414,-10,56,120,126,159,43,38,52,116,159,-2,161,148,141,130,140,224,541932
-92,-28,1,-111,-26,-22,-373,-132,-65,12,25,-40,-146,265,51,61,112,101,162,62,47,59,95,147,40,149,126,136,146,135,167,541933
-48,-18,18,-58,2,6,-257,-98,-32,-68,-226,-5,106,-92,52,17,33,26,96,23,11,12,23,76,16,109,71,70,85,86,99,541934
6,9,28,33,13,17,52,-7,54,134,-89,-55,153,-61,16,-16,-34,-47,4,-14,-2,-45,-29,-22,-27,107,-16,-26,-14,-11,17,541935
60,37,20,99,24,20,271,45,82,190,217,-99,35,-99,-2,-34,-74,-100,-89,-25,58,-65,-62,-118,-16,205,-125,-109,-104,-102,-99,541936
42,45,6,97,22,2,232,189,109,158,94,-121,-214,-144,-33,-51,-52,-60,-62,-31,22,-75,-32,-87,-44,147,-105,-94,-82,-88,-40,541937
137,36,-32,48,21,6,316,189,-60,91,78,-149,-7,-187,-85,71,-57,-80,-127,74,317,21,-16,-170,193,616,-181,-134,-123,-135,-234,541938
200,41,-39,39,31,19,325,177,-176,64,40,-103,34,214,-10,125,-105,-143,-240,106,510,45,-61,-278,313,964,-259,-226,-224,-219,-415,541939
208,58,-37,50,31,18,248,-83,-165,0,68,55,164,48,61,165,-86,-126,-211,129,582,73,-55,-232,358,1085,-192,-185,-192,-179,-317,541940
109,36,-5,7,11,-4,99,262,-145,19,185,118,13,19,-5,146,-18,-24,-83,95,426,93,-10,-69,258,834,-43,-57,-54,-42,-121,541941
-77,6,48,-4,-13,-10,-94,-125,61,-14,26,-4,-116,-88,-23,-5,65,76,81,-43,-29,27,34,116,-78,146,120,66,94,94,218,541942
-64,23,53,28,-6,3,12,-221,75,-19,115,6,-156,59,52,14,73,79,104,-40,-47,35,16,118,-89,106,121,74,104,109,205,541943
-55,25,28,45,-1,8,84,-84,54,25,-56,-36,169,98,5,46,79,88,165,-22,-30,48,4,144,-51,108,127,120,124,133,174,541944
-77,17,20,46,8,8,34,-203,-28,20,-170,-154,-28,24,-35,-34,32,35,117,-85,-124,-24,10,94,-135,-20,88,71,73,75,187,541945
-58,7,0,23,-3,-5,-59,-12,-99,-90,-216,-135,33,-197,-54,-78,-38,-39,31,-123,-106,-88,-27,0,-139,50,13,-18,-19,-10,18,541946
11,-1,-7,-5,7,7,-55,100,-97,-32,-191,-101,26,-192,-29,2,-16,-19,61,-37,48,-29,8,3,-3,243,7,3,-16,5,-25,541947
183,11,-28,-34,32,29,140,62,-146,-85,85,71,43,70,13,216,-35,-43,-64,171,542,124,-17,-124,351,951,-119,-68,-96,-70,-242,541948
247,23,-58,-49,14,3,255,127,-57,-150,175,161,-80,269,62,326,-40,-52,-188,279,831,218,-58,-209,553,1446,-195,-128,-167,-139,-378,541949
236,50,-38,4,18,14,288,257,-61,-174,472,58,5,76,20,316,-23,-22,-196,283,838,227,-44,-171,552,1472,-153,-116,-160,-114,-332,541950
127,37,-4,15,14,7,174,272,95,-2,146,-40,171,-63,-46,148,-43,-32,-168,96,509,74,-50,-152,285,1021,-135,-139,-170,-122,-156,541951
-15,12,26,19,-4,-11,26,89,26,67,17,-199,150,-119,-37,-19,-11,-11,1,-58,74,-47,-19,-15,-25,378,-25,-47,-64,-35,125,541952
-7,26,36,40,3,5,82,141,-33,136,153,-63,-56,-109,-58,-3,3,-12,68,-40,48,-26,-10,27,-27,341,17,3,-12,1,79,541953
-12,14,34,32,2,2,61,-185,-44,41,150,-5,-165,-40,-83,-60,-80,-79,-33,-101,7,-94,-94,-76,-64,274,-72,-74,-81,-82,-94,541954
24,16,33,8,13,9,-23,35,27,4,-114,-4,71,-90,-44,-22,-84,-50,-69,-58,53,-60,-118,-78,-24,335,-61,-84,-70,-75,-41,541955
6,0,36,-5,22,9,-79,-129,56,47,-71,-3,63,-67,18,33,8,44,35,-11,42,14,-27,30,-8,275,47,13,12,25,128,541956
16,1,38,7,16,9,-11,-151,49,-96,-109,21,74,84,9,33,1,37,22,-8,32,1,-23,10,-19,280,30,-10,-6,16,-23,541957
352,41,-49,4,56,30,424,243,-152,-93,302,209,18,287,23,339,-118,-135,-321,303,929,181,-125,-348,593,1622,-313,-253,-269,-231,-732,541958
676,97,-128,-28,83,65,806,485,-236,-100,525,212,-13,160,97,669,-259,-306,-697,598,1934,365,-242,-729,1207,3190,-689,-504,-574,-502,-1308,541959
745,111,-164,-77,62,39,886,632,-221,-118,399,162,-73,176,151,808,-291,-326,-800,688,2380,446,-270,-821,1444,3962,-773,-575,-685,-580,-1416,541960
359,82,-48,-94,3,-10,400,302,33,-96,133,68,-41,142,69,507,-135,-119,-443,342,1533,261,-169,-423,798,2808,-388,-316,-422,-334,-392,541961
-196,33,111,-32,-48,-37,-272,-131,144,-111,-208,-264,94,-158,2,-65,66,113,133,-197,-54,-99,9,158,-300,457,155,59,19,76,592,541962
-118,19,82,-18,-21,-8,-156,-166,80,-62,-191,-288,68,-117,-45,-40,9,62,78,-141,-28,-89,-27,87,-193,482,82,-4,8,54,226,541963
-116,-5,77,-23,-29,-11,-180,-189,186,-91,-85,-259,205,-162,-64,-94,-21,27,63,-193,-137,-154,-34,37,-270,348,48,-37,-36,14,166,541964
-105,2,92,10,-7,11,-201,-178,93,96,17,-85,174,-264,-118,-113,24,41,103,-190,-207,-141,-7,79,-294,181,75,14,8,43,199,541965
-29,17,80,12,11,27,-158,-19,30,140,85,-56,97,-400,-15,-33,26,51,70,-79,-33,-50,-6,69,-124,396,66,43,30,51,133,541966
7,11,30,-13,-8,1,-106,-45,1,138,200,-43,102,-354,13,56,13,50,29,5,131,29,-19,50,12,627,44,34,31,41,27,541967
587,84,-138,-41,52,26,692,452,-286,78,535,412,-28,75,113,668,-175,-207,-538,639,1772,451,-214,-524,1242,3078,-495,-333,-357,-322,-1348,541968
1168,162,-265,-122,105,69,1368,807,-394,-30,894,681,-106,288,215,1275,-388,-435,-1206,1177,3586,842,-448,-1134,2468,5905,-1060,-752,-864,-757,-2230,541969
1005,154,-207,-177,68,47,1082,824,-332,-176,671,287,-58,222,99,1146,-384,-395,-1196,971,3417,729,-459,-1052,2215,5850,-991,-755,-898,-762,-1721,541970
469,86,-71,-170,-19,-14,395,320,-249,-202,111,-13,-72,-95,5,619,-274,-214,-782,386,2082,306,-346,-616,1137,4028,-567,-519,-660,-502,-664,541971
-210,30,124,-88,-93,-76,-380,-273,50,-65,-372,-327,153,-313,-104,-92,-35,63,-41,-304,91,-186,-114,66,-299,1091,71,-73,-145,-22,635,541972
-245,27,114,-44,-87,-80,-347,-249,174,-81,-240,-263,282,-262,-37,-126,37,116,134,-280,-167,-171,-6,176,-414,578,170,37,25,104,561,541973
-216,23,105,-24,-70,-71,-300,43,61,-169,-33,-185,287,-17,-16,-85,80,145,201,-221,-200,-127,55,214,-380,449,215,97,98,143,539,541974
-219,34,108,-19,-40,-58,-342,-16,53,7,-62,-200,122,-153,-16,-122,75,112,192,-251,-295,-125,47,188,-403,282,182,98,105,123,428,541975
-176,23,95,-41,-27,-40,-311,149,36,42,-269,-132,49,-278,-80,-57,95,139,205,-163,-215,-46,62,222,-305,337,238,135,158,169,452,541976
-116,6,91,-45,-23,-26,-223,-53,11,-17,-95,-90,70,-180,-82,9,91,115,187,-90,-103,1,74,186,-182,483,205,133,151,164,323,541977
194,51,11,-21,28,7,183,48,-46,-187,235,61,24,-57,-8,295,-35,-30,-122,210,719,184,-45,-143,431,1701,-125,-91,-75,-55,-351,541978
276,44,-35,-62,2,-15,294,175,-53,-174,328,135,-49,-163,-27,397,-81,-77,-297,290,1087,228,-127,-279,645,2289,-257,-207,-207,-167,-480,541979
259,50,-27,-75,4,-15,235,203,-15,-91,214,132,-128,-15,7,374,-94,-71,-295,250,1079,212,-150,-270,609,2342,-256,-202,-222,-172,-523,541980
152,54,7,-66,5,-17,68,98,84,-152,-32,-4,18,-11,48,262,-68,-31,-228,120,810,115,-144,-191,386,1995,-175,-177,-188,-135,-273,541981
-116,5,65,-65,-42,-40,-269,18,57,-74,-33,-140,104,-272,-104,-9,13,73,41,-150,51,-76,-59,83,-162,886,91,6,7,47,263,541982
-133,-12,89,-70,-38,-30,-276,2,24,-83,-34,-46,264,-182,-36,-5,59,98,141,-119,-74,-61,18,167,-195,674,168,90,116,124,297,541983
-129,-20,86,-45,-27,-25,-249,-75,-6,-139,-141,-83,36,-145,-102,-35,76,74,128,-123,-119,-68,57,142,-230,581,122,73,124,106,319,541984
-84,-8,42,-7,-17,-21,-142,157,20,-18,-303,-177,49,-239,-131,-54,12,4,65,-110,-61,-89,-1,44,-188,677,12,4,39,25,127,541985
-63,18,50,22,0,2,-143,152,-1,123,-130,-169,-114,-183,-83,-47,18,26,88,-101,-98,-87,-4,67,-204,614,37,13,42,44,167,541986
-77,13,36,6,-20,-20,-149,57,-7,23,19,-169,2,-351,-47,-43,9,21,64,-110,-112,-81,-6,63,-193,580,30,10,44,38,117,541987
77,34,-1,-8,-9,-21,81,204,17,-65,-5,53,131,-64,4,157,9,10,-16,110,353,82,-27,-9,171,1243,-5,-10,11,27,-153,541988
242,41,-47,-49,-8,-26,296,289,-93,-119,269,133,-89,-3,64,357,-54,-56,-230,295,911,224,-106,-206,554,2096,-184,-144,-145,-112,-520,541989
258,42,-50,-76,0,-18,257,112,-104,-98,-115,53,-1,153,9,347,-124,-102,-333,235,999,173,-177,-310,545,2292,-280,-241,-276,-241,-474,541990
93,36,11,-50,2,-20,26,73,-34,-170,-426,-19,-53,66,-7,174,-69,-39,-191,17,535,33,-144,-151,180,1614,-133,-132,-182,-146,21,541991
-165,12,82,-23,-31,-28,-228,-88,21,21,-220,-90,103,-133,-115,-57,56,90,113,-196,-195,-83,-29,159,-328,501,149,90,72,95,392,541992
-167,15,81,-6,-25,-20,-166,-320,139,50,-24,-59,188,15,-101,-77,47,86,166,-197,-280,-79,-8,166,-357,340,155,100,105,114,315,541993
-116,12,63,-2,-11,-14,-102,-174,10,176,113,4,6,-43,-65,-51,16,47,124,-162,-182,-85,-11,112,-275,452,96,52,73,64,258,541994
-100,-9,51,-38,-12,5,-181,-53,-66,44,64,-122,-152,-67,-44,-58,26,27,86,-149,-168,-88,11,92,-247,459,70,44,61,46,207,541995
-119,-13,67,-34,-3,23,-254,-51,21,17,-202,-94,-59,-166,-76,-80,57,51,115,-167,-237,-103,62,123,-283,319,103,76,92,77,295,541996
-127,-22,63,-28,-12,11,-273,-143,7,-36,2,-112,118,-196,-71,-111,35,30,107,-198,-306,-122,24,120,-311,229,103,74,101,71,270,541997
-81,-8,45,-5,-4,-6,-192,-39,-41,6,161,24,-31,-55,-39,-77,-13,-7,50,-135,-196,-83,-43,79,-199,366,50,53,74,46,99,541998
-59,-4,16,-21,-29,-34,-124,-111,44,10,70,48,-53,46,-81,5,22,46,78,-36,-43,13,-3,99,-72,574,78,94,110,75,109,541999
-64,-8,25,-29,-19,-27,-89,38,74,-105,34,66,-88,290,-91,24,50,77,112,-30,-50,33,25,116,-68,597,107,111,131,94,121,542000
-35,-5,12,-11,-6,-18,-31,-208,41,-150,-150,-45,-76,60,-82,-2,-2,28,35,-49,-34,-20,-20,38,-49,651,35,35,47,32,67,542001
-66,1,19,-7,-12,-7,-80,-256,47,-65,-217,-59,96,-33,-149,-37,10,41,43,-81,-138,-78,3,62,-125,501,47,32,50,32,102,542002
-7,20,13,1,5,12,-43,-69,83,-20,-181,-15,62,-128,-103,0,18,11,-4,-31,-24,-57,42,-9,-69,646,-17,-12,1,-14,20,542003
-10,15,26,1,6,7,-99,-60,17,-125,-239,-12,-7,-113,19,-18,15,-9,-2,-46,-44,-67,46,-9,-127,589,-8,-9,-3,-24,67,542004
-47,-3,29,-17,-9,-13,-179,107,124,62,-23,12,71,57,3,-23,50,36,100,-33,-108,-27,30,95,-157,438,83,85,94,60,164,542005
-70,-20,11,-27,-35,-29,-170,-229,107,83,-92,0,-72,102,-44,1,91,67,148,5,-128,20,63,141,-139,388,129,122,160,103,231,542006
-80,-9,12,-26,-24,-38,-203,-65,-9,-127,-155,60,-146,18,3,-6,71,44,117,-16,-123,1,57,116,-124,416,108,101,132,82,226,542007
-166,-26,17,-49,-46,-60,-374,-95,-21,-130,-98,23,-104,-118,69,-45,105,103,184,-66,-280,-15,91,204,-205,185,198,161,196,155,350,542008
-183,-28,46,-57,-42,-45,-468,-163,48,-66,-1,-43,-44,23,38,-19,138,159,253,-48,-321,1,106,293,-206,60,281,236,273,231,412,542009
-266,-39,62,-29,-32,-45,-507,-195,94,23,-119,-47,115,-176,-24,-183,100,128,258,-218,-642,-153,44,289,-483,-405,265,192,234,207,522,542010
-236,-25,67,32,-1,-18,-346,-240,78,90,307,-77,194,-79,-95,-256,47,49,232,-271,-748,-191,20,222,-564,-578,182,128,181,137,464,542011
-7,4,45,62,45,26,26,-38,129,2,249,41,-76,-63,11,-73,5,-41,75,-86,-250,-44,44,49,-210,119,37,29,57,23,25,542012
-3,4,13,61,21,4,187,-70,38,-89,-74,-72,-16,-211,41,-87,-26,-75,14,-108,-207,-70,29,8,-211,201,14,-7,-3,-6,-76,542013
-47,8,-6,60,6,-16,182,-24,60,46,-17,-39,107,15,2,-102,-2,-38,58,-131,-235,-69,75,34,-245,167,11,15,8,10,28,542014
-85,0,-5,28,-15,-19,47,-206,8,24,58,-29,61,14,-32,-106,21,2,107,-134,-265,-73,90,67,-254,130,44,44,38,35,96,542015
-75,-17,-5,11,-19,-26,-37,-128,-18,49,-46,-4,31,12,-47,-88,7,5,93,-100,-228,-50,47,77,-203,175,59,61,63,56,69,542016
-89,-14,9,10,-17,-19,-70,-175,-117,39,-61,121,22,-22,-27,-77,30,14,102,-100,-243,-25,33,119,-199,129,104,101,99,87,151,542017
-486,-42,118,34,-51,-35,-551,-479,127,-39,-314,-99,45,-176,-81,-446,174,197,489,-485,-1326,-269,167,519,-971,-1514,487,353,374,349,1026,542018
-794,-100,199,61,-78,-47,-918,-509,402,-39,-603,-150,118,-321,-102,-765,310,338,843,-751,-2285,-458,306,838,-1587,-3075,757,588,660,576,1556,542019
-894,-153,209,53,-80,-40,-1032,-600,324,16,-556,-267,32,-331,-149,-898,347,350,953,-832,-2716,-544,354,931,-1812,-3853,826,663,771,653,1641,542020
-562,-121,125,90,-9,33,-588,-264,120,51,-149,-197,43,-72,-29,-669,217,175,692,-545,-2082,-405,265,629,-1273,-3017,539,477,592,458,780,542021
152,-39,-66,84,81,93,299,181,-93,199,255,99,-116,107,99,-31,-82,-162,-60,95,-205,-12,-1,-129,75,-204,-163,-25,30,-76,-534,542022
131,-31,-79,45,44,41,273,180,-67,-29,141,92,-89,91,-63,-38,-105,-157,-144,77,-63,-22,-38,-163,114,75,-196,-70,-49,-141,-382,542023
95,5,-50,35,44,32,219,103,-83,72,-11,46,-76,26,-5,-44,-85,-108,-139,62,-90,-27,-35,-118,66,61,-122,-65,-35,-102,-248,542024
89,7,-41,5,40,27,195,36,-46,68,159,-2,24,46,0,-17,-72,-87,-133,75,-51,-14,-26,-98,77,155,-107,-72,-38,-84,-208,542025
78,6,-36,2,43,24,169,-61,-9,-23,172,-22,-2,174,-74,-22,-75,-87,-119,51,-67,-19,-38,-110,40,151,-131,-76,-51,-103,-136,542026
-10,-16,-26,35,18,9,70,-123,28,-115,34,-46,-75,59,-76,-171,-94,-89,-102,-95,-322,-124,-73,-89,-185,-202,-102,-83,-61,-109,20,542027
-901,-91,241,147,-75,-38,-933,-645,386,91,-417,-497,261,-409,-237,-1093,223,305,772,-1037,-2833,-729,218,820,-2034,-3977,754,505,560,479,1992,542028
-1629,-176,421,263,-115,-75,-1716,-1215,561,248,-849,-722,204,-548,-298,-1881,525,618,1659,-1740,-5184,-1201,559,1626,-3562,-7710,1476,1075,1255,1065,3202,542029
-1436,-196,333,258,-74,-56,-1459,-1084,417,165,-681,-423,35,-367,-185,-1720,512,528,1634,-1476,-4965,-1047,612,1507,-3191,-7666,1340,1073,1317,1052,2619,542030
-731,-152,115,194,8,11,-646,-448,161,103,-237,-2,-187,-114,54,-971,345,273,1054,-668,-3118,-485,493,906,-1720,-5121,789,731,962,698,995,542031
193,-57,-159,94,102,78,405,268,-156,-59,163,399,-158,162,177,9,11,-107,57,266,-405,136,184,-68,193,-1108,-83,91,216,22,-780,542032
224,-61,-155,28,86,64,250,353,-130,-79,127,288,-76,131,96,54,-65,-147,-166,229,-52,112,57,-213,275,-460,-223,-54,-18,-141,-594,542033
168,-61,-108,10,64,59,78,425,-14,-54,11,149,-54,10,46,47,-9,-50,-101,196,-79,136,61,-78,188,-433,-86,11,29,-37,-287,542034
136,-48,-91,16,43,43,107,375,-47,39,85,143,-60,82,158,57,23,-11,-31,186,-52,147,81,-17,180,-350,-18,48,40,10,-217,542035
111,-25,-112,27,16,18,180,279,-57,39,79,259,-205,245,141,7,-13,-64,-81,131,-32,79,27,-84,155,-260,-84,-23,-38,-62,-305,542036
69,-15,-107,18,8,0,190,323,9,13,151,260,-140,313,108,16,47,-3,9,135,-39,96,90,-6,160,-277,-19,50,14,-2,-141,542037
-331,-65,6,29,-34,-27,-281,-154,100,122,-161,-98,114,-84,-44,-412,141,130,334,-298,-1122,-195,175,339,-636,-1883,304,271,237,205,683,542038
-573,-99,82,51,-38,-25,-637,-456,161,84,-327,-271,182,-121,-11,-736,172,173,567,-585,-1963,-414,219,568,-1154,-3203,514,416,429,364,999,542039
-519,-112,72,49,-34,0,-646,-420,116,116,-213,-231,139,-275,3,-713,175,167,532,-518,-1932,-379,196,548,-1065,-3280,493,412,454,372,868,542040
-221,-70,11,81,20,35,-299,-192,46,38,37,34,-56,42,42,-414,134,97,324,-184,-1219,-162,183,319,-531,-2317,272,288,327,246,333,542041
196,-12,-92,89,79,75,275,234,53,114,186,280,-228,288,120,20,-16,-72,-82,221,-54,104,48,-94,260,-593,-114,12,6,-43,-380,542042
255,8,-110,111,81,61,450,228,-4,185,232,257,-98,16,97,106,-57,-105,-172,272,189,141,-4,-166,378,-185,-195,-36,-82,-120,-486,542043
254,22,-126,81,58,43,484,289,-143,152,331,159,-150,132,118,165,-52,-105,-178,315,331,198,-12,-139,489,56,-163,-26,-86,-107,-487,542044
247,14,-133,28,41,16,451,111,-111,49,154,100,-111,282,169,217,-68,-121,-220,358,488,215,-16,-166,566,328,-155,-78,-114,-115,-459,542045
155,-1,-119,2,-2,-19,367,45,-91,-84,151,113,-33,346,147,158,-62,-98,-201,273,363,146,-12,-146,430,174,-143,-100,-121,-114,-361,542046
118,-3,-106,5,-6,-11,403,-11,4,-102,-29,149,-80,423,69,137,-30,-72,-133,238,316,119,-12,-112,372,121,-108,-65,-107,-91,-261,542047
-158,-20,-3,48,-7,-11,28,-103,157,50,-104,-140,27,111,-19,-213,33,21,117,-130,-553,-123,57,146,-307,-1154,131,89,59,65,338,542048
-285,-49,40,86,-3,6,-154,-225,85,140,-299,-294,26,-104,-47,-410,86,54,311,-295,-1071,-237,152,285,-655,-1947,258,185,202,175,551,542049
-191,-51,6,88,0,15,-78,-246,51,210,-328,-148,-11,-82,-73,-354,60,2,239,-210,-906,-198,150,187,-510,-1741,166,139,147,132,247,542050
4,-20,-21,69,32,55,98,84,75,82,163,-2,73,-73,-30,-120,65,-7,98,37,-354,-3,131,71,-74,-955,56,91,88,85,-118,542051
190,-3,-87,20,35,54,293,245,-51,-60,353,130,-170,99,64,110,-27,-71,-169,237,282,145,27,-152,384,36,-176,-70,-81,-81,-415,542052
188,1,-86,-5,27,43,234,396,-148,120,149,98,-184,91,-19,145,-39,-48,-187,232,368,141,5,-150,447,258,-164,-72,-101,-87,-360,542053
146,4,-73,-6,19,31,161,210,-81,77,-89,3,-173,-19,31,119,-25,-35,-173,187,294,117,-6,-111,388,196,-120,-63,-85,-63,-295,542054
147,3,-63,1,17,19,160,23,-72,-101,-157,130,49,228,74,133,0,1,-137,197,271,149,11,-48,380,186,-52,-26,-27,-1,-189,542055
126,-3,-61,5,8,21,192,-172,55,-91,-43,123,-27,105,112,83,-49,-50,-180,147,218,100,-35,-99,332,170,-113,-86,-73,-45,-194,542056
103,12,-49,31,17,22,209,-85,-31,-155,-39,-23,-100,67,69,19,-106,-100,-228,81,165,31,-89,-156,245,133,-157,-145,-138,-97,-253,542057
145,13,-60,22,22,22,253,-112,-126,83,35,-13,-44,235,48,40,-120,-124,-266,115,283,43,-104,-201,287,329,-204,-184,-185,-134,-346,542058
266,36,-64,27,51,51,381,26,-132,40,96,57,112,129,125,146,-142,-153,-333,212,585,114,-118,-293,459,775,-277,-238,-261,-194,-559,542059
409,66,-102,25,62,51,588,254,-121,-89,167,134,97,-6,112,299,-211,-236,-475,353,1051,198,-209,-473,734,1470,-423,-359,-412,-328,-810,542060
357,52,-98,-17,30,27,513,288,-138,7,245,72,15,0,13,284,-188,-202,-441,314,1050,204,-211,-430,678,1489,-374,-331,-416,-319,-626,542061
3,22,2,0,-5,-5,41,80,-5,-4,-13,-16,104,11,37,-28,-34,-37,-81,-11,140,1,-60,-63,15,136,-29,-72,-151,-64,115,542062
18,13,-28,-23,-6,-11,-1,-72,-29,-33,-21,-54,-109,72,26,32,-7,-19,-20,62,157,61,-39,-13,76,108,0,-29,-83,0,-32,542063
9,3,-19,-39,-23,-9,-58,8,47,156,100,-111,71,93,16,71,25,36,14,85,135,95,-18,35,79,47,42,14,-32,37,17,542064
-42,0,6,-21,-23,-8,-110,-50,6,-17,115,44,8,-9,41,32,60,87,69,34,-27,62,31,94,-34,-195,104,60,17,83,124,542065
-12,13,18,5,-5,5,-11,65,12,-219,-88,60,-34,-124,50,22,46,48,64,35,15,25,52,62,3,-139,60,62,5,53,-4,542066
65,10,-6,-8,12,19,127,-20,-34,11,-54,41,-21,201,36,100,50,41,30,116,209,73,79,11,177,123,-14,56,6,19,-87,542067
