-12,-5,38,14,21,52,74,29,68,188,108,166,132,226,119,187,116,110,14,1401,-536,-211,269,93,-197,-1304,121,135,128,-145,159,504856
-229,-30,94,40,14,37,-208,-232,150,213,-186,64,148,130,104,-112,157,162,200,849,-1080,-300,274,276,-607,-2149,254,245,245,-2,634,504857
-427,-46,118,114,18,32,-477,-210,187,99,-156,-139,165,-52,17,-508,129,131,361,122,-1735,-438,209,413,-1068,-3193,358,286,336,146,832,504858
-277,-45,28,118,32,36,-249,-179,154,50,-123,-77,85,-191,-52,-477,52,18,279,-146,-1341,-275,128,273,-726,-2747,214,169,251,129,406,504859
44,-17,-86,91,38,40,237,127,91,101,-206,119,-33,107,74,-139,2,-72,99,-113,-301,97,64,44,75,-1336,-13,25,90,90,-229,504860
474,48,-234,36,69,31,716,388,-109,-31,373,305,-338,115,145,314,-141,-251,-326,66,1145,504,-118,-400,1118,735,-419,-270,-270,-139,-1078,504861
734,92,-303,-21,84,31,869,417,-305,30,691,498,-215,280,154,649,-180,-289,-581,217,2145,784,-200,-617,1791,2253,-619,-404,-468,-251,-1514,504862
1139,130,-410,-127,100,34,1307,678,-501,-85,645,606,-298,418,251,1159,-283,-388,-970,572,3616,1171,-291,-983,2773,4449,-966,-622,-774,-459,-2272,504863
1118,136,-372,-178,72,22,1297,770,-435,-95,702,504,-70,291,184,1171,-318,-386,-1037,433,3835,1146,-373,-1007,2814,4945,-972,-676,-877,-495,-2090,504864
587,94,-220,-156,-13,-26,700,505,-216,-285,176,124,42,127,23,583,-264,-265,-749,-230,2475,670,-386,-676,1730,3205,-665,-550,-711,-313,-1103,504865
324,49,-159,-150,-44,-52,415,-55,-158,-200,154,34,118,-127,-88,309,-222,-202,-546,-463,1707,440,-370,-482,1174,2200,-481,-448,-550,-173,-726,504866
241,62,-99,-129,-39,-27,290,68,-4,-33,184,21,52,-234,24,243,-179,-150,-427,-416,1387,354,-339,-352,933,1816,-356,-367,-442,-90,-481,504867
39,24,-46,-125,-66,-49,5,18,-46,-21,-21,5,-163,24,-29,90,-74,-20,-219,-418,787,194,-230,-133,461,993,-142,-202,-256,32,-96,504868
-35,6,-6,-100,-53,-38,-132,-91,-74,-106,-116,-136,34,-58,-130,-6,-73,-28,-169,-351,379,54,-206,-76,146,476,-75,-159,-209,23,28,504869
-42,12,9,-78,-27,-27,-164,40,29,-161,-114,-116,76,-68,-56,33,-19,16,-89,-108,225,31,-114,-9,41,273,24,-76,-120,48,161,504870
-94,8,21,-65,-40,-44,-258,-8,100,-212,-105,-101,66,-106,-1,69,36,82,-20,176,51,-28,1,38,-98,44,71,-31,-63,31,244,504871
-283,-22,107,-46,-65,-66,-531,-236,8,-11,-417,-107,78,-84,-12,-75,124,182,168,333,-606,-236,99,232,-606,-903,265,121,82,91,611,504872
-346,-32,156,1,-49,-38,-550,-360,143,-53,-316,-172,97,-40,1,-122,183,221,297,555,-1003,-350,184,361,-869,-1516,393,251,212,123,717,504873
-240,13,155,67,4,14,-330,-174,150,-54,-192,-152,96,228,21,-92,122,128,163,727,-950,-358,175,233,-801,-1469,233,154,151,-16,520,504874
-103,39,118,87,23,34,-140,-141,111,122,93,-95,115,128,-16,31,59,80,3,879,-638,-248,112,90,-542,-1065,89,55,71,-117,297,504875
-147,22,104,90,13,15,-198,-285,161,270,92,-115,-13,-38,-22,0,88,120,63,800,-703,-220,142,154,-586,-1211,142,101,114,-63,435,504876
58,27,35,59,33,28,16,10,94,96,-56,3,-208,-193,83,127,-11,-6,-109,783,-127,-59,53,-57,-147,-426,-62,-54,-52,-180,-110,504877
422,61,-51,2,64,63,474,272,-100,76,301,239,-48,200,129,522,-52,-98,-354,890,1055,291,24,-350,708,1233,-329,-233,-274,-300,-716,504878
554,82,-134,-50,42,40,683,443,-108,64,406,295,-18,323,140,684,-66,-135,-458,797,1709,484,-31,-472,1159,2214,-451,-303,-394,-333,-943,504879
561,99,-166,-62,36,19,732,448,-117,-49,535,223,-121,239,161,653,-132,-179,-533,524,1919,511,-166,-530,1309,2624,-495,-365,-466,-322,-894,504880
289,66,-96,-85,-4,-17,359,208,-78,80,-38,74,58,120,99,319,-117,-100,-336,-33,1221,289,-194,-302,794,1747,-280,-258,-320,-144,-417,504881
302,38,-110,-118,-18,-19,276,292,-99,-24,-11,66,-71,-29,36,312,-131,-123,-325,-131,1223,301,-230,-298,849,1835,-292,-248,-302,-99,-594,504882
565,61,-180,-126,15,10,573,387,-108,66,159,129,-163,36,53,541,-278,-303,-661,9,1967,447,-369,-633,1364,3028,-601,-491,-579,-319,-1187,504883
569,85,-193,-95,-2,-20,584,300,-161,18,223,16,-177,-28,37,506,-348,-346,-766,-108,2026,383,-428,-731,1340,3244,-682,-592,-705,-400,-1175,504884
296,63,-108,-68,-32,-55,247,256,-151,-119,26,-71,-10,-141,11,215,-285,-257,-545,-440,1253,150,-364,-484,770,2242,-442,-451,-551,-254,-576,504885
171,45,-51,-45,-27,-41,111,166,-37,-4,-227,-78,113,-154,12,140,-159,-119,-330,-490,854,103,-212,-268,540,1681,-239,-277,-341,-80,-304,504886
357,76,-86,-54,-2,-9,342,295,-126,-87,-121,102,-69,15,30,398,-142,-125,-381,-131,1348,276,-178,-354,903,2383,-310,-300,-368,-108,-680,504887
586,101,-132,-105,18,17,585,379,-109,-226,447,82,-106,-60,51,654,-216,-216,-624,227,2045,434,-264,-600,1329,3424,-513,-468,-555,-313,-1035,504888
636,113,-133,-132,17,9,686,157,-196,-60,517,74,16,41,138,769,-245,-244,-749,425,2319,475,-289,-691,1455,3892,-582,-545,-649,-408,-1108,504889
471,111,-91,-127,-10,-32,513,91,-236,-3,252,120,-41,-43,97,647,-215,-191,-668,408,2013,340,-282,-589,1140,3483,-494,-477,-607,-397,-707,504890
-124,52,82,-77,-70,-78,-238,-260,151,37,-82,-280,76,-173,48,38,-40,52,-96,-43,379,-114,-133,-30,-126,1071,24,-92,-185,-79,367,504891
-289,22,143,-38,-69,-66,-508,-364,213,-55,-316,-425,9,-122,-41,-108,92,149,165,42,-249,-217,25,194,-568,18,217,98,48,60,651,504892
-325,9,161,-13,-61,-67,-570,-428,96,-58,-372,-456,38,-165,-113,-135,149,189,239,231,-447,-193,114,267,-719,-443,253,154,137,89,789,504893
-268,18,133,26,-43,-48,-435,-293,121,-146,-400,-236,226,-227,-141,-42,176,207,258,439,-327,-84,129,286,-598,-418,266,190,202,110,655,504894
-231,23,153,42,-26,-16,-372,-207,81,-221,-179,-111,96,-1,-80,4,173,202,264,501,-291,-38,123,284,-551,-439,262,199,219,117,612,504895
-228,10,159,45,-10,20,-366,-234,24,-193,-79,-139,17,-3,-61,-25,170,176,268,446,-344,-52,148,274,-580,-564,247,185,208,116,515,504896
265,60,7,18,58,62,239,-9,-141,-1,277,70,98,45,46,412,-10,-42,-162,794,913,252,-3,-203,411,1289,-198,-115,-131,-165,-562,504897
808,117,-159,-58,82,69,951,540,-252,137,652,296,57,259,75,965,-235,-284,-731,1144,2549,625,-237,-766,1624,3816,-713,-495,-590,-532,-1572,504898
842,117,-194,-123,46,42,988,613,-259,-36,593,301,-156,224,-18,1026,-291,-297,-875,969,2867,641,-353,-864,1812,4511,-779,-602,-735,-610,-1500,504899
582,83,-138,-146,-5,-9,583,268,-137,85,455,33,-83,235,34,763,-233,-188,-695,480,2269,411,-306,-670,1314,3867,-573,-508,-642,-479,-867,504900
-12,35,20,-113,-83,-63,-247,-67,49,108,-212,-142,-100,104,-6,131,-28,81,-120,-321,580,-32,-130,-77,75,1555,-23,-118,-214,-65,336,504901
-127,18,64,-64,-73,-55,-428,1,73,-76,-181,-95,-13,-49,-56,-61,1,91,22,-548,41,-152,-105,66,-226,802,110,3,-42,58,336,504902
-39,11,42,-62,-54,-39,-293,2,73,-151,-182,-103,186,-46,-31,-49,-68,-12,-106,-577,108,-156,-163,-51,-101,952,8,-59,-101,-19,44,504903
-21,6,45,-37,-35,-26,-165,80,40,-101,-364,-63,84,-178,-59,-96,-125,-72,-199,-648,6,-193,-220,-112,-106,856,-45,-117,-128,-76,-14,504904
-103,-13,54,-39,-61,-55,-259,-4,194,-33,-230,-122,86,-224,-32,-186,-141,-76,-169,-737,-253,-268,-256,-73,-232,497,-5,-130,-99,-65,95,504905
-141,-16,45,-39,-62,-74,-306,-90,224,79,-191,-105,82,-99,26,-146,-44,11,-10,-665,-337,-226,-134,48,-242,321,103,-23,28,32,201,504906
77,30,0,-42,-15,-46,25,144,117,-81,-12,28,-45,45,85,161,21,41,-42,-269,276,37,-39,-26,226,1104,42,-23,23,22,-175,504907
409,72,-74,-58,18,-3,462,269,-63,-136,297,189,25,123,17,506,-116,-111,-390,158,1266,261,-159,-394,872,2518,-299,-268,-271,-237,-783,504908
453,71,-82,-78,7,-15,537,383,-80,-68,338,79,-58,-22,69,549,-188,-168,-525,264,1528,241,-235,-527,935,2920,-420,-375,-438,-373,-879,504909
341,60,-54,-92,-24,-20,390,339,-81,5,131,-25,10,-128,85,448,-177,-161,-464,238,1360,172,-211,-459,728,2672,-351,-334,-418,-337,-602,504910
-64,34,82,-51,-53,-29,-151,-152,52,1,-109,-203,210,-74,-58,53,-4,43,-31,-40,316,-45,-53,-6,-96,1051,51,-25,-95,-46,355,504911
-132,4,81,-63,-50,-34,-308,-80,94,-11,-141,-140,73,-22,-40,6,46,74,109,70,144,-4,12,99,-203,658,101,37,25,45,346,504912
-119,-3,55,-72,-41,-22,-362,-208,67,-23,-272,-120,-8,-26,-163,14,42,59,104,199,241,52,15,70,-148,668,44,17,18,39,267,504913
-100,-12,54,-88,-37,-14,-349,-291,-8,-235,-92,-155,-3,-47,-133,50,69,64,140,296,340,140,25,97,-64,717,62,52,58,84,285,504914
-57,-3,64,-39,-19,5,-218,-195,43,-150,-160,-106,55,-222,-54,48,75,41,136,297,373,180,15,110,-19,704,67,56,76,108,262,504915
16,8,48,3,5,11,-21,-75,-48,-59,-9,-147,115,-384,-110,69,20,-6,30,266,490,171,-6,-1,78,888,-33,-24,-13,33,45,504916
111,11,-10,-15,-10,-22,121,-13,-176,-85,121,-61,-39,-235,-51,185,-53,-68,-130,259,742,189,-95,-163,299,1331,-165,-135,-145,-68,-319,504917
347,52,-68,-43,10,-13,404,50,-190,-139,235,173,-106,133,58,459,-109,-119,-332,431,1371,336,-182,-357,794,2384,-331,-256,-288,-210,-753,504918
303,46,-44,-66,-4,-9,299,13,-150,-241,79,64,3,174,48,430,-105,-87,-310,294,1268,258,-180,-317,717,2397,-283,-221,-282,-220,-531,504919
110,34,25,-55,-13,-10,27,-186,-118,-218,22,-67,57,-37,-86,229,-32,5,-143,20,651,64,-126,-124,283,1653,-76,-105,-151,-121,-61,504920
-246,-4,128,-12,-41,-27,-332,-490,5,-66,-191,-192,63,-102,-165,-161,54,141,146,-411,-518,-265,-43,198,-534,71,234,84,87,74,602,504921
-392,-6,162,52,-50,-45,-330,-425,59,19,-284,-267,228,-178,-99,-383,31,124,210,-612,-1144,-469,-35,258,-925,-813,291,106,175,96,777,504922
-441,-13,166,85,-43,-55,-396,-416,107,70,-245,-233,188,-168,-128,-480,74,157,318,-655,-1513,-546,31,353,-1121,-1353,384,206,285,153,914,504923
-469,-55,152,48,-58,-69,-561,-354,178,-70,-234,-182,-45,-292,-165,-491,101,177,382,-616,-1684,-555,111,404,-1203,-1618,438,266,346,186,963,504924
-381,-64,131,11,-44,-47,-587,-327,168,109,-248,-176,-108,-277,-69,-369,143,200,388,-426,-1509,-450,168,396,-1021,-1459,446,306,395,203,811,504925
-287,-54,108,15,-30,-24,-520,-194,187,-3,-206,22,-75,-51,1,-274,150,195,338,-279,-1287,-353,177,349,-842,-1233,399,290,380,165,651,504926
-107,-33,52,28,13,2,-308,-212,53,66,141,76,6,-4,-16,-112,72,72,185,-83,-798,-224,121,181,-486,-615,227,175,254,32,225,504927
51,-38,-2,8,12,3,-123,56,-122,44,145,44,85,57,-2,21,-30,-45,-3,68,-271,-100,21,-30,-120,96,34,35,75,-113,-165,504928
200,-7,-34,-10,25,12,104,112,1,87,-23,62,-181,155,113,203,-31,-57,-128,249,280,79,16,-149,270,822,-87,-43,-16,-166,-414,504929
240,14,-47,-17,16,1,258,139,21,-56,56,156,-211,286,58,242,-69,-101,-245,252,571,149,-32,-263,425,1209,-204,-153,-131,-241,-435,504930
66,13,-13,16,4,-10,131,20,-60,-75,-101,70,-76,67,-14,20,-57,-64,-99,-72,198,41,-39,-120,96,619,-89,-83,-70,-121,1,504931
124,18,-68,15,3,-11,279,19,80,-32,-161,3,81,59,-64,46,-93,-132,-100,-161,509,129,-68,-186,314,979,-183,-139,-139,-108,-331,504932
200,4,-113,-27,-7,-17,350,6,-82,-115,64,-27,-93,-41,-137,88,-134,-177,-188,-242,885,231,-159,-280,555,1451,-293,-215,-233,-126,-502,504933
203,-17,-117,-72,-17,-22,303,-93,-134,-134,247,-96,-269,-241,-64,113,-130,-161,-143,-332,1019,313,-189,-260,652,1638,-279,-180,-217,-63,-482,504934
154,-16,-102,-82,-18,-25,186,121,-169,-87,50,13,-414,-178,-33,78,-99,-146,-89,-442,983,306,-157,-211,594,1599,-231,-154,-202,-10,-371,504935
125,-8,-81,-83,-19,-38,110,44,-47,-151,60,-24,-228,-164,22,51,-105,-136,-97,-504,920,265,-172,-194,533,1543,-212,-163,-204,5,-350,504936
115,-2,-74,-85,-27,-59,108,-77,6,-176,267,36,-124,-58,3,94,-73,-107,-93,-404,843,229,-161,-168,496,1526,-158,-134,-164,18,-379,504937
302,8,-130,-120,-29,-62,372,215,-120,-152,71,135,-180,158,22,385,-102,-115,-291,29,1343,357,-179,-329,878,2358,-279,-217,-246,-113,-641,504938
274,41,-65,-98,-20,-51,322,274,-149,-55,38,132,-220,189,124,403,-90,-69,-335,193,1189,280,-145,-310,728,2270,-244,-212,-250,-179,-476,504939
32,-5,41,-110,-40,-43,-58,-96,-60,-156,-72,18,-37,-173,12,151,-30,27,-169,108,384,-11,-71,-119,92,1209,-59,-99,-129,-135,-40,504940
-428,-68,207,-80,-74,-38,-599,-422,125,-29,-555,-209,264,-193,-132,-305,121,230,280,-186,-1102,-423,105,347,-985,-903,399,211,224,117,857,504941
-606,-82,243,-18,-71,-40,-701,-517,211,102,-735,-278,159,-306,-101,-561,116,222,415,-278,-1907,-656,135,466,-1501,-2104,518,278,352,155,1179,504942
-742,-87,283,65,-51,-26,-902,-305,381,161,-625,-319,34,-387,-86,-771,174,291,599,-316,-2628,-820,186,640,-1944,-3208,665,403,524,243,1511,504943
-712,-102,270,98,-20,11,-1073,-481,326,178,-505,-331,60,-398,-92,-802,152,256,605,-204,-2828,-841,158,628,-2036,-3598,637,402,566,216,1347,504944
-469,-77,210,111,28,52,-809,-514,152,103,-244,-122,68,-221,-17,-538,139,226,507,148,-2302,-612,158,517,-1588,-2974,535,373,538,153,936,504945
-319,-70,155,111,25,46,-538,-161,92,140,-100,-93,21,-12,-7,-375,143,166,400,346,-1876,-459,205,392,-1250,-2466,411,311,446,65,681,504946
47,-39,34,94,51,54,-21,21,33,199,129,179,49,266,-36,-13,6,-23,14,665,-777,-179,103,-18,-436,-974,27,40,141,-198,-213,504947
596,39,-132,49,114,88,756,305,-127,167,370,428,-144,275,106,544,-182,-253,-482,1090,946,244,-80,-553,777,1490,-493,-290,-298,-534,-1254,504948
819,98,-208,10,110,79,1077,465,-301,111,592,412,-289,174,142,790,-256,-327,-696,1154,1924,464,-182,-781,1400,2932,-742,-458,-538,-667,-1618,504949
768,109,-193,-29,86,62,968,309,-265,-93,597,262,-188,120,103,750,-282,-305,-752,849,2121,465,-268,-774,1417,3285,-764,-504,-623,-643,-1415,504950
136,13,-50,-54,-22,-29,149,-48,-64,-98,-123,-45,-27,-42,-90,89,-127,-95,-286,-181,620,66,-215,-227,277,1164,-252,-182,-273,-237,-203,504951
133,-3,-86,-49,-20,-38,200,25,-13,-55,104,22,-184,-106,-85,9,-148,-145,-230,-627,659,161,-255,-202,418,1179,-258,-198,-207,-115,-360,504952
234,9,-129,-72,-18,-31,341,221,-8,6,185,83,-88,-108,-5,32,-233,-234,-309,-972,1044,267,-308,-339,697,1756,-370,-353,-312,-131,-611,504953
223,12,-137,-85,-35,-55,326,111,-76,28,-39,62,82,-109,-27,56,-170,-165,-173,-1182,1130,321,-247,-248,765,1893,-261,-254,-278,-2,-571,504954
154,-6,-135,-106,-64,-84,196,-101,-106,-71,-325,-83,-49,-125,-23,33,-83,-94,-54,-1308,1043,319,-185,-134,716,1781,-152,-141,-191,120,-364,504955
89,-17,-121,-131,-79,-95,77,-119,-51,-196,-153,34,-113,-99,-53,-14,-63,-64,-14,-1326,878,266,-162,-89,617,1611,-112,-104,-137,142,-266,504956
499,49,-206,-125,-16,-52,633,259,-202,-152,359,268,-36,341,10,466,-123,-179,-340,-575,1914,549,-165,-437,1410,3156,-469,-294,-351,-103,-1133,504957
1054,133,-328,-145,60,-2,1308,472,-361,-135,664,384,-197,311,196,1094,-355,-417,-1018,433,3464,857,-388,-1063,2443,5563,-1021,-702,-836,-592,-2137,504958
881,136,-224,-137,43,0,1010,307,-231,-157,612,152,-172,107,149,951,-398,-390,-1085,622,3031,593,-446,-1008,1948,5141,-952,-723,-876,-697,-1700,504959
428,98,-49,-132,-14,-27,383,37,-98,-134,33,-109,8,-173,2,508,-285,-217,-772,548,1692,158,-322,-627,856,3327,-581,-508,-641,-560,-747,504960
-417,-2,207,-48,-107,-84,-640,-488,112,-406,-464,-483,67,-436,-211,-319,-10,129,5,47,-792,-497,-57,178,-990,-289,190,8,-39,-92,928,504961
-640,-31,280,29,-89,-68,-863,-489,316,-77,-626,-468,242,-457,-155,-486,223,343,495,165,-1677,-562,229,594,-1505,-1764,584,328,377,218,1435,504962
-747,-79,283,16,-100,-80,-967,-521,332,52,-397,-369,159,-428,-119,-530,345,458,747,365,-2099,-566,420,769,-1713,-2560,771,495,600,332,1648,504963
-717,-76,274,47,-59,-51,-940,-646,221,-1,-208,-258,172,-178,-152,-520,340,428,839,534,-2205,-569,453,755,-1730,-2872,771,522,641,313,1474,504964
-513,-53,234,90,-12,8,-671,-519,106,27,-135,-131,72,-22,-88,-381,276,318,744,758,-1839,-466,406,604,-1463,-2464,610,445,535,197,1087,504965
-373,-41,200,91,15,37,-419,-331,148,-11,91,-135,-81,-16,-51,-286,211,235,589,821,-1511,-380,309,462,-1262,-2086,469,365,430,106,830,504966
-194,-33,115,67,27,48,-184,-144,54,-189,39,-186,0,48,-92,-190,61,72,303,778,-1029,-280,138,193,-887,-1436,189,172,230,-75,353,504967
106,-17,41,16,61,73,77,47,-7,-137,-199,-15,38,68,11,87,-31,-55,-29,842,-167,-55,28,-73,-178,-205,-92,-20,16,-231,-216,504968
304,1,-5,-7,76,75,249,189,-43,-128,36,150,83,149,35,335,-43,-67,-180,809,518,187,-29,-176,386,788,-194,-63,-55,-237,-512,504969
376,37,-41,8,65,44,351,249,-64,-15,361,68,71,325,75,448,-41,-57,-208,580,946,338,-48,-203,698,1441,-224,-93,-118,-197,-664,504970
40,-2,11,1,-1,-21,-47,82,-96,-114,34,55,-59,-42,-19,59,27,44,55,-273,162,103,-17,75,109,420,34,18,28,28,15,504971
53,3,-33,-4,-9,-45,49,-206,-59,13,71,124,-130,-33,27,-18,-14,13,77,-831,177,132,-76,73,225,521,25,20,39,116,-114,504972
166,8,-100,-14,-5,-40,240,15,-139,114,191,182,-112,-39,19,31,-105,-90,-85,-1230,517,189,-188,-75,544,1139,-116,-63,-78,79,-411,504973
98,-7,-106,-30,-27,-58,133,86,-115,74,257,22,-118,-42,-28,-128,-155,-130,-157,-1621,339,48,-249,-122,396,1021,-160,-140,-149,66,-362,504974
0,-19,-93,-62,-50,-72,-36,76,-21,-44,97,-68,-42,-110,-66,-259,-145,-115,-109,-1808,79,-42,-226,-79,198,717,-122,-130,-138,96,-248,504975
60,-16,-97,-84,-39,-68,-72,271,-31,-58,-13,65,52,17,-64,-173,-134,-98,-98,-1624,200,13,-211,-93,304,917,-105,-108,-117,103,-295,504976
245,11,-127,-88,0,-41,152,349,-119,-172,138,156,-43,194,29,110,-154,-131,-242,-1005,743,181,-219,-217,686,1666,-214,-183,-191,-11,-651,504977
341,30,-127,-120,12,-31,294,89,-145,-145,139,39,-97,209,59,314,-155,-148,-372,-351,1122,261,-186,-334,848,2142,-306,-244,-290,-169,-745,504978
196,30,-57,-104,-11,-55,123,-23,-92,76,-178,-42,-41,179,-11,270,-61,-52,-236,25,820,181,-78,-203,510,1637,-164,-152,-213,-145,-397,504979
-14,23,46,-36,-23,-32,-165,-54,43,-32,-291,-87,106,-61,-105,36,-47,-19,-118,210,185,-56,-24,-86,-76,635,-48,-110,-151,-147,21,504980
-272,-1,144,48,-13,-21,-500,-224,188,-132,-179,-266,208,-331,-137,-224,62,102,195,289,-673,-281,124,211,-751,-737,215,81,89,-4,635,504981
-441,-53,177,66,-35,-14,-659,-258,234,91,-232,-376,161,-226,-164,-365,166,197,491,346,-1265,-375,259,448,-1166,-1729,435,269,304,154,1036,504982
-716,-85,263,132,-48,-14,-804,-315,375,67,-351,-454,139,-193,-147,-666,254,289,792,230,-2160,-585,347,728,-1799,-3160,683,464,541,322,1488,504983
-650,-46,259,172,-23,1,-556,-235,402,220,-212,-308,125,-43,0,-551,322,343,861,472,-2068,-452,443,787,-1619,-3237,708,566,672,399,1383,504984
-313,-19,141,151,27,20,-121,58,227,211,-131,4,38,47,4,-209,238,202,538,863,-1186,-175,369,481,-871,-2065,396,399,485,209,633,504985
-160,-18,81,119,56,28,7,203,-79,34,-57,12,16,-43,14,-117,107,79,281,887,-773,-129,241,269,-534,-1445,198,238,298,45,350,504986
-131,-30,84,107,46,33,8,170,68,39,143,-116,41,-155,86,-109,107,91,210,740,-666,-100,211,222,-420,-1274,151,187,238,32,340,504987
-167,-21,87,93,39,37,-98,-69,61,134,217,-76,52,-135,96,-132,140,127,217,510,-716,-96,244,254,-456,-1326,192,180,246,83,449,504988
-186,-28,63,64,28,32,-238,-62,49,92,101,83,-81,-81,-10,-185,132,112,249,232,-752,-115,251,278,-485,-1368,209,177,250,113,430,504989
-145,-38,43,37,39,32,-275,-42,54,70,-53,75,-1,83,40,-173,144,118,280,1,-650,-60,251,289,-379,-1230,212,190,278,156,285,504990
9,-36,-8,13,42,35,-75,166,27,36,-58,68,-220,61,86,-58,92,56,179,-195,-267,56,114,182,-29,-608,111,132,204,140,-6,504991
127,-15,-55,36,37,26,215,90,-86,-57,-67,94,-210,-158,2,-10,-10,-43,-17,-518,45,83,-57,19,220,-22,-22,26,59,63,-285,504992
179,20,-66,66,54,23,316,315,-65,111,111,20,-190,-48,8,-15,-74,-82,-95,-809,153,86,-113,-58,323,283,-76,-21,-21,48,-364,504993
174,21,-81,50,45,11,279,210,-83,110,228,49,-108,80,-24,-33,-100,-84,-162,-951,163,80,-144,-95,304,381,-98,-89,-65,24,-359,504994
56,5,-61,12,5,-24,115,86,10,-5,-10,12,25,-2,12,-120,-88,-37,-89,-1051,-90,-7,-138,-25,81,85,-19,-62,-36,61,-191,504995
72,10,-64,9,7,-23,136,178,87,68,-100,87,26,235,65,-82,-73,-39,-97,-910,-14,4,-114,-68,107,222,-48,-91,-77,24,-240,504996
-132,-5,0,33,-4,-25,-90,208,116,87,-35,-27,-22,47,-35,-259,16,69,125,-848,-519,-145,28,133,-346,-559,157,36,53,132,251,504997
-80,10,21,57,23,17,-46,240,21,80,51,-87,-34,-56,-37,-207,11,14,108,-487,-449,-140,65,79,-325,-564,94,8,33,74,91,504998
-28,-12,25,44,24,46,-39,90,92,-6,49,-18,111,-90,5,-129,24,28,91,-168,-327,-100,109,58,-289,-510,73,3,23,40,128,504999
-58,-9,44,62,37,48,-26,131,100,165,154,-40,-34,-98,16,-115,38,67,147,55,-389,-88,128,125,-347,-720,109,51,85,67,244,505000
78,9,4,55,47,44,168,193,76,169,182,-53,-143,-84,-10,61,14,-11,24,407,65,46,97,-12,11,-138,-30,-21,2,-28,-65,505001
32,-1,22,43,23,42,38,54,115,-11,164,22,-78,-88,-77,71,82,43,105,479,68,74,165,74,-15,-189,37,62,62,29,43,505002
-132,-28,62,25,-3,39,-213,-78,86,-167,33,10,116,-9,-38,-85,106,56,215,337,-307,-42,188,196,-320,-772,156,132,147,109,268,505003
-134,-30,53,35,6,29,-104,-3,-1,-36,109,104,128,224,108,-70,129,58,243,372,-276,-14,208,224,-253,-768,164,177,171,147,227,505004
20,13,-2,47,29,36,197,99,20,30,351,80,158,242,40,96,93,16,110,501,166,116,183,78,118,-171,15,111,76,66,-66,505005
86,22,-16,47,39,50,266,138,-85,36,51,-24,103,153,-7,140,30,-24,-7,479,382,149,96,-28,277,162,-82,26,-16,-13,-189,505006
-108,-5,34,44,8,7,1,-4,-5,-100,-131,-61,-71,-163,-83,-86,66,50,140,165,-155,-11,86,145,-134,-537,98,114,86,103,250,505007
-284,-9,53,63,-28,-22,-167,-188,57,30,-108,14,-82,120,-14,-215,157,161,378,-48,-633,-88,178,375,-453,-1231,309,268,280,279,562,505008
-386,-40,69,43,-45,-34,-305,-238,66,-75,-174,21,119,160,-23,-328,180,197,480,-234,-990,-180,219,465,-684,-1724,402,331,367,357,767,505009
-409,-66,74,51,-26,-15,-395,-265,95,10,-143,-48,117,-41,-48,-417,192,196,524,-367,-1274,-241,233,525,-809,-2110,451,364,436,396,710,505010
-15,-23,-26,35,32,27,41,-29,49,176,217,64,192,72,17,-73,55,23,134,-16,-363,-8,131,132,-88,-733,93,110,179,142,-105,505011
52,4,-19,17,32,43,47,175,-145,66,227,142,87,160,49,-9,-4,-17,-5,16,-179,-15,68,19,-4,-373,9,32,56,28,-167,505012
13,11,17,30,35,37,-25,187,7,23,184,120,145,100,95,-17,41,31,23,23,-323,-43,84,83,-118,-523,76,79,97,50,-5,505013
-35,-6,18,24,22,25,-67,312,53,20,-18,102,132,151,31,-56,42,47,20,37,-460,-103,81,98,-246,-689,102,74,102,44,97,505014
-80,-2,36,40,25,20,-89,37,113,110,-16,113,181,177,-18,-103,50,87,108,49,-653,-151,99,159,-385,-958,167,122,168,84,159,505015
-27,3,15,56,37,35,35,142,-20,142,-36,114,165,85,59,-50,20,34,60,146,-531,-132,65,90,-297,-801,109,82,120,24,34,505016
-131,-4,47,73,18,51,-92,60,9,148,-299,10,18,-201,39,-145,65,90,172,55,-759,-165,92,219,-477,-1198,227,174,204,109,361,505017
-432,-37,126,106,-18,20,-463,10,227,57,-264,-46,49,-351,-62,-463,182,216,511,-280,-1547,-327,208,548,-1036,-2466,503,383,444,335,895,505018
-362,-36,105,133,17,48,-343,-70,125,11,-42,36,139,-141,-47,-434,171,171,517,-281,-1390,-248,223,487,-869,-2373,426,341,421,339,686,505019
-184,-22,57,136,47,68,-93,47,-29,213,-14,6,56,106,20,-278,97,52,342,-211,-865,-99,144,275,-475,-1683,218,196,260,238,288,505020
235,17,-66,77,87,98,398,323,-39,174,244,216,-34,122,84,154,-21,-100,-27,145,424,263,9,-115,472,129,-186,-49,-37,0,-490,505021
309,44,-97,48,79,72,470,252,-67,74,438,237,41,169,121,280,-53,-100,-147,155,875,358,-43,-209,734,793,-262,-110,-128,-47,-634,505022
282,54,-101,41,58,56,405,49,-157,96,237,170,-61,202,94,273,-47,-90,-165,25,955,352,-72,-205,753,939,-259,-117,-153,-21,-572,505023
239,43,-101,7,28,22,417,115,-99,-113,176,160,-17,216,64,283,15,-44,-133,-55,1033,382,-17,-143,775,1066,-214,-70,-133,41,-434,505024
222,23,-124,-60,-14,-23,412,166,-145,-310,123,119,-131,188,100,284,-12,-97,-203,-103,1169,389,-24,-210,841,1316,-266,-108,-196,8,-507,505025
188,34,-112,-65,-5,-23,336,34,-133,-373,105,170,59,105,79,250,-38,-104,-201,-173,1149,351,-40,-211,804,1337,-256,-127,-218,-6,-498,505026
-3,32,-37,-52,-17,-32,91,-143,-62,-115,-98,121,-37,101,81,72,48,16,33,-341,598,204,46,25,388,593,-22,15,-50,147,42,505027
-324,-3,48,-11,-47,-48,-322,-161,138,119,-230,-93,17,47,-20,-287,127,144,349,-622,-430,-69,104,335,-377,-856,268,197,193,342,641,505028
-467,-33,90,40,-39,-33,-591,-388,101,78,-482,-174,208,6,-66,-500,142,167,466,-705,-1124,-244,120,446,-830,-1816,394,263,318,403,867,505029
-479,-59,109,26,-38,-3,-621,-212,88,21,-400,-88,95,-72,-68,-459,207,227,572,-493,-1331,-229,218,546,-857,-2132,509,366,463,476,884,505030
-54,-11,9,-5,8,40,-68,46,-97,3,90,265,1,424,92,104,178,165,327,315,-235,93,268,252,7,-553,253,227,296,280,78,505031
-56,0,7,-40,-13,21,-109,223,-92,-14,-33,205,133,398,94,188,200,201,270,673,-219,17,313,215,-51,-436,251,238,236,183,223,505032
-151,-25,47,-23,-14,4,-190,-63,-61,-103,-141,102,57,244,129,128,220,221,265,875,-564,-127,324,263,-313,-873,307,295,267,144,345,505033
-131,-11,72,41,20,33,-181,10,-33,-40,-108,24,74,161,106,79,144,143,109,982,-730,-225,242,197,-427,-1084,238,215,220,35,302,505034
-88,-10,99,95,64,88,-141,114,-85,122,111,-44,118,79,-15,-16,43,42,-7,982,-876,-327,152,99,-533,-1258,135,119,138,-74,251,505035
-27,8,87,126,76,114,76,-57,43,163,82,-127,71,-48,-1,-20,-1,-8,-68,979,-792,-310,78,48,-454,-1169,77,67,100,-115,146,505036
-221,-10,123,118,30,79,-106,-97,160,243,-109,-210,22,-220,-8,-234,33,44,86,561,-1171,-395,56,202,-755,-1800,238,137,186,-1,506,505037
-614,-56,200,137,-22,26,-598,-199,205,79,-316,-215,85,-258,-131,-710,109,137,452,-195,-2160,-619,126,522,-1464,-3342,498,329,402,235,1118,505038
-540,-63,132,145,-9,20,-487,-173,84,37,-203,-100,98,-197,-123,-710,89,70,497,-457,-1969,-479,99,464,-1251,-3212,403,304,386,279,877,505039
-277,-51,26,120,13,21,-120,-74,103,23,-171,115,65,151,2,-440,52,9,380,-457,-1134,-156,47,304,-592,-2127,248,219,309,267,282,505040
291,2,-146,49,63,60,547,350,-102,-7,265,313,-17,321,167,139,-114,-207,-124,-127,587,342,-121,-217,685,334,-264,-117,-57,-7,-889,505041
513,45,-190,-1,78,77,780,490,-321,-63,605,430,-133,223,129,359,-225,-320,-440,-114,1415,521,-271,-492,1220,1609,-534,-339,-334,-184,-1232,505042
649,84,-243,-30,79,62,882,418,-399,56,466,360,-73,212,43,539,-271,-370,-606,-121,2031,660,-335,-649,1599,2587,-670,-455,-490,-252,-1433,505043
649,88,-251,-72,51,36,845,462,-361,-60,388,253,-92,192,52,598,-249,-331,-652,-192,2293,706,-319,-648,1716,3055,-683,-465,-537,-245,-1364,505044
460,73,-189,-84,23,15,593,364,-229,82,183,148,55,65,31,445,-208,-248,-556,-431,1954,584,-293,-505,1396,2633,-549,-393,-460,-161,-980,505045
324,62,-135,-62,4,-1,369,81,-75,107,16,112,-10,39,-9,298,-149,-179,-435,-558,1583,458,-244,-375,1086,2153,-427,-328,-388,-82,-694,505046
134,53,-76,-52,-10,-10,147,-27,-30,271,-425,125,37,163,31,133,-54,-61,-195,-597,1077,332,-191,-143,697,1460,-191,-134,-207,71,-225,505047
-135,7,-18,-31,-65,-53,-97,-185,27,87,-188,-59,18,64,10,-122,49,54,118,-687,259,132,-108,113,123,318,88,99,13,227,256,505048
-262,3,36,19,-56,-45,-131,-167,8,110,-166,-163,111,-185,-31,-257,77,82,268,-612,-269,-45,-7,204,-252,-413,189,158,94,266,491,505049
-304,-21,46,25,-49,-29,-164,-82,32,79,-103,-102,-35,-266,-118,-382,26,20,209,-485,-661,-270,24,115,-562,-916,97,60,16,137,482,505050
-16,-4,-6,5,12,31,122,-69,28,-59,-19,-22,15,-268,-18,-86,-79,-104,-107,170,-78,-179,5,-180,-124,-45,-172,-133,-173,-130,-178,505051
-55,-17,57,-8,18,66,-54,-40,33,-20,-185,-119,91,-158,18,-11,12,22,-46,610,-310,-226,92,-47,-300,-325,-24,-26,-50,-105,158,505052
-176,-17,108,13,-1,50,-280,-171,86,49,-374,-92,75,-109,-4,-51,131,171,151,906,-797,-328,223,172,-626,-1043,201,125,143,-1,521,505053
-149,6,108,45,7,33,-193,-73,106,40,-360,2,23,-75,72,42,146,170,153,1179,-766,-323,253,154,-590,-1042,188,126,149,-55,424,505054
-2,31,71,63,24,32,73,37,66,4,146,178,101,240,140,281,166,168,107,1470,-311,-169,277,98,-247,-440,138,125,137,-89,198,505055
-98,-2,93,28,-6,24,-70,-316,-21,68,284,135,-62,253,101,196,174,177,170,1316,-477,-197,294,179,-402,-729,201,201,179,-46,379,505056
-398,-52,177,35,-35,24,-484,-501,159,128,-243,-102,79,43,-30,-261,183,189,372,606,-1380,-438,256,388,-1081,-2043,363,306,289,86,979,505057
-562,-58,211,109,-16,43,-691,-404,211,75,-213,-179,180,-200,-64,-574,217,223,594,-53,-1987,-527,247,590,-1434,-2997,542,426,458,303,1204,505058
-399,-46,127,105,15,40,-454,-175,156,84,-90,-75,3,-136,-49,-479,156,122,457,-258,-1524,-326,180,455,-972,-2423,379,334,393,292,743,505059
-127,-22,-14,39,20,21,-109,81,36,-173,79,60,-62,70,59,-148,157,89,321,-226,-544,70,155,298,-159,-1110,222,278,314,295,193,505060
321,26,-172,-33,47,30,435,102,-255,-207,317,326,-86,467,144,348,27,-87,-49,0,972,516,24,-130,973,1074,-187,11,-20,89,-765,505061
619,63,-241,-97,61,37,769,451,-380,-125,358,425,-154,586,173,637,-118,-236,-468,107,2046,735,-145,-521,1672,2723,-549,-290,-380,-168,-1345,505062
996,111,-325,-151,89,55,1191,574,-461,-110,483,537,-159,437,191,997,-294,-395,-933,306,3278,991,-345,-954,2473,4659,-940,-619,-777,-454,-2000,505063
947,108,-318,-160,55,31,1090,444,-483,-227,394,307,-132,280,51,884,-387,-444,-1031,64,3305,868,-491,-1041,2329,4922,-1019,-748,-943,-539,-1874,505064
483,73,-191,-133,-17,-19,523,83,-280,-186,74,-24,-117,113,-53,423,-278,-259,-615,-471,2148,506,-415,-627,1365,3422,-615,-516,-687,-276,-961,505065
273,76,-118,-89,-38,-48,299,66,-50,-3,157,-88,-241,-15,-35,292,-148,-129,-292,-582,1556,410,-282,-329,969,2637,-349,-289,-433,-43,-522,505066
-36,28,-38,-74,-86,-77,-94,-76,-70,-117,-115,-120,32,-125,-97,5,-53,-7,-17,-780,636,151,-152,-29,295,1373,-71,-85,-202,133,102,505067
-385,-19,83,-23,-97,-89,-529,-287,155,-284,-596,-305,75,-231,-220,-389,78,119,301,-1000,-585,-178,-25,327,-528,-381,268,143,105,352,723,505068
-461,-37,108,19,-80,-71,-524,-237,165,-312,-431,-387,186,-146,-165,-476,111,139,362,-860,-1027,-274,1,419,-780,-1064,361,222,232,382,815,505069
-417,-43,108,48,-66,-45,-421,-232,134,-127,-255,-348,-28,-145,-174,-463,67,99,335,-579,-1150,-325,-28,350,-839,-1270,316,205,234,304,698,505070
-84,8,50,62,-6,19,3,-36,96,99,-48,-134,-174,-55,-121,-132,-84,-87,-42,64,-394,-185,-109,-52,-316,-197,-34,-53,-50,-18,-11,505071
-141,9,117,60,16,43,-147,-146,196,203,156,-132,-33,-68,-72,-121,-36,-17,-33,390,-613,-270,-17,-9,-566,-534,21,-27,-44,-85,316,505072
-279,-25,140,51,-12,15,-324,-297,103,69,-69,-82,217,-1,-51,-191,71,81,124,603,-1025,-395,114,145,-916,-1212,164,91,82,-43,576,505073
-255,-9,137,52,-5,11,-239,-323,234,20,-109,12,184,36,50,-116,117,119,215,808,-1015,-375,186,195,-901,-1288,206,160,145,-42,593,505074
-127,5,92,54,17,23,-70,-189,124,-5,182,131,-57,12,117,42,110,103,128,1002,-658,-271,176,116,-652,-863,133,128,98,-106,395,505075
-208,14,123,73,13,17,-260,-93,18,-132,36,51,-12,-55,51,-64,129,141,190,828,-906,-324,192,207,-841,-1291,217,193,172,-48,574,505076
-373,-33,166,52,-13,-4,-550,-361,127,61,-65,-128,236,-16,35,-330,129,128,304,359,-1390,-437,174,339,-1149,-2016,305,256,255,45,871,505077
-904,-133,265,65,-80,-50,-1271,-791,360,142,-586,-373,383,-139,-75,-957,265,309,843,-556,-2869,-765,275,858,-2142,-4208,791,587,650,462,1833,505078
-801,-129,191,78,-61,-54,-1111,-692,268,201,-577,-222,30,4,-99,-859,305,318,910,-671,-2667,-561,319,878,-1788,-4043,808,654,764,597,1454,505079
-320,-90,0,33,-15,-38,-472,-225,161,129,-248,69,-54,286,-41,-390,172,114,497,-401,-1324,-131,190,441,-658,-2157,385,382,476,385,391,505080
299,-4,-157,27,61,14,440,369,-116,228,202,297,158,288,95,175,-63,-157,-150,-37,438,327,-57,-186,639,446,-201,-65,-26,4,-798,505081
523,46,-222,19,75,20,834,559,-250,45,190,221,-85,347,144,335,-254,-337,-504,-31,1223,419,-273,-536,1111,1712,-514,-347,-379,-256,-1249,505082
677,66,-264,-43,68,-4,933,619,-228,-9,423,305,-147,378,129,502,-349,-430,-698,7,1903,512,-376,-749,1534,2827,-727,-511,-624,-407,-1560,505083
628,71,-223,-105,42,3,655,566,-144,141,242,318,-186,198,93,573,-241,-285,-600,-41,2014,566,-292,-630,1560,3071,-593,-430,-554,-296,-1244,505084
355,31,-154,-128,-14,-36,192,411,-186,86,55,154,-158,95,39,362,-125,-124,-354,-301,1406,376,-217,-353,1057,2300,-323,-267,-364,-108,-663,505085
225,-1,-118,-145,-22,-43,56,226,-112,6,-74,119,72,69,39,218,-110,-117,-252,-422,999,224,-212,-242,746,1797,-236,-190,-275,-29,-438,505086
302,13,-91,-106,-1,5,282,144,-172,-36,203,2,151,28,57,238,-175,-194,-352,-312,1059,203,-236,-338,787,1922,-353,-246,-333,-118,-600,505087
356,29,-85,-80,15,19,396,295,-221,-212,331,-40,54,-184,3,261,-246,-268,-511,-182,1161,155,-296,-501,791,2137,-493,-377,-471,-262,-668,505088
261,38,-74,-75,0,-10,318,349,4,-16,276,-40,-244,-257,-57,243,-178,-186,-416,-67,999,125,-248,-379,611,1900,-374,-298,-381,-223,-456,505089
180,53,-34,-58,-4,-23,243,171,-7,-12,31,-38,61,-46,-28,266,-93,-77,-299,116,851,137,-175,-236,475,1664,-232,-165,-246,-139,-197,505090
-62,26,77,-26,-10,-19,-127,-200,109,-34,-63,-108,301,-62,-37,27,23,66,-22,84,76,-65,-58,45,-136,515,45,26,-30,6,352,505091
-191,-7,128,20,-15,-10,-283,-179,204,-28,-113,-234,7,-131,-115,-144,47,87,74,182,-472,-238,18,132,-581,-348,131,60,57,6,522,505092
-227,10,152,70,8,19,-290,-178,184,-36,24,-215,80,-217,-86,-197,53,74,137,353,-725,-310,65,163,-776,-798,166,95,103,-13,567,505093
-227,-3,158,47,9,35,-303,-225,231,38,108,-271,135,-165,-53,-208,59,61,167,476,-782,-277,73,175,-810,-963,173,122,133,-24,530,505094
-193,-25,142,31,10,50,-284,-124,180,46,8,-287,299,-75,32,-165,50,35,79,560,-675,-225,55,114,-725,-871,118,75,94,-80,406,505095
-206,-33,122,21,7,14,-338,-114,202,66,-177,-141,27,6,5,-140,97,91,122,543,-663,-189,114,167,-696,-928,153,130,134,-31,479,505096
182,29,-9,7,52,20,141,258,-12,-137,191,206,-121,221,109,293,61,8,-91,827,427,165,121,-102,188,598,-114,-1,-22,-146,-321,505097
511,62,-140,-55,58,20,596,212,-165,-14,287,361,-140,387,183,680,-55,-116,-437,959,1551,475,-16,-427,1024,2304,-412,-231,-272,-314,-871,505098
552,64,-175,-115,26,-11,647,328,-152,-2,213,235,-3,322,117,735,-126,-142,-550,759,1833,514,-141,-484,1219,2863,-457,-325,-368,-335,-983,505099
519,68,-146,-118,23,-9,581,393,-158,-40,66,175,129,78,30,666,-153,-165,-544,448,1824,456,-214,-479,1199,2965,-457,-341,-391,-320,-839,505100
27,11,-41,-88,-58,-64,-13,-33,-11,-49,-123,-21,-50,-243,-82,82,-89,-63,-197,-329,513,30,-172,-116,177,1172,-116,-135,-179,-96,89,505101
-90,-8,-17,-62,-59,-77,-129,-188,115,-95,-333,-122,-107,-119,-93,-67,-17,3,18,-531,91,-65,-74,37,-78,562,6,-1,-42,46,195,505102
5,9,-19,-56,-34,-55,15,7,55,-98,-67,-110,-49,-82,4,7,-14,-13,10,-529,277,-17,-30,-30,71,792,-66,-38,-84,29,18,505103
36,-7,-24,-69,-25,-37,34,-132,16,-114,-81,-18,-30,-120,12,-9,-73,-67,-60,-595,292,-42,-104,-116,121,824,-125,-99,-145,-33,-77,505104
14,3,18,-46,-8,-10,-8,-10,111,18,80,-57,-28,-78,34,-39,-29,-15,-6,-619,154,-42,-82,-32,84,606,-57,-43,-69,25,36,505105
-6,-16,6,-51,-20,-16,-43,-102,10,188,82,-72,105,-187,-9,-68,-35,-20,-15,-604,42,-67,-97,-23,15,468,-39,-53,-49,19,22,505106
130,18,-29,-39,3,2,51,46,-3,207,308,-54,213,-165,22,82,-77,-90,-149,-383,371,5,-107,-167,238,932,-168,-148,-150,-95,-306,505107
236,30,-45,-54,14,8,173,105,-75,-32,58,32,56,-92,49,243,-114,-125,-273,-135,779,99,-98,-289,494,1508,-267,-226,-249,-200,-504,505108
324,27,-73,-95,-1,-12,309,209,-134,-202,8,126,-114,81,-1,382,-121,-125,-367,106,1155,195,-113,-362,720,2035,-330,-265,-314,-248,-657,505109
390,59,-82,-85,8,-21,401,180,-138,5,-155,89,39,-24,86,476,-142,-156,-468,321,1432,262,-173,-417,841,2446,-386,-300,-379,-300,-695,505110
-83,17,45,-46,-54,-59,-178,-46,10,138,-156,-230,201,-318,-17,-2,-16,16,-92,0,194,-66,-100,-4,-141,656,3,-42,-88,-66,282,505111
-165,2,79,-9,-32,-40,-262,-166,37,18,-15,-188,204,-274,-48,-97,35,51,50,137,-122,-113,-34,105,-361,108,110,32,39,20,338,505112
-105,10,91,-9,3,7,-225,-88,69,-33,-28,-168,54,-282,-43,-43,38,37,82,361,-17,-46,6,98,-306,185,100,42,55,13,322,505113
-119,-12,107,-25,3,22,-253,-142,72,43,-78,-100,16,-155,-35,-54,89,72,173,434,-57,-11,75,146,-320,89,160,105,107,69,344,505114
-90,-12,63,-36,-14,-4,-155,-167,41,-25,-179,-170,-139,4,-64,-24,44,18,93,474,80,34,22,51,-215,277,62,28,39,0,198,505115
-50,-14,36,-25,-11,-14,-110,37,-11,57,-108,-213,-120,-89,-91,-15,-24,-39,-15,426,166,33,-42,-45,-172,435,-31,-68,-50,-75,106,505116
28,4,-2,-16,-6,-20,2,50,28,-23,62,-103,148,12,-35,103,-4,-5,-17,406,342,110,-9,-48,15,701,-41,-37,-20,-33,-31,505117
340,46,-95,-47,25,-7,470,201,-94,2,338,13,-53,147,45,491,-28,-57,-236,613,1260,365,-30,-265,750,2061,-249,-143,-160,-152,-615,505118
182,29,-61,-65,-16,-31,288,134,-33,-104,202,18,-92,-47,82,325,-8,-6,-134,266,888,189,-13,-153,435,1599,-121,-77,-127,-102,-277,505119
-16,-3,5,-47,-27,-26,-51,-3,-35,-6,121,-44,-48,-143,-33,32,-12,13,-27,-170,179,-82,-9,-36,-82,653,-33,-32,-73,-53,84,505120
-141,-23,55,-22,-26,-20,-312,-46,149,170,-175,-188,-66,-215,-86,-167,-17,35,3,-450,-347,-277,-11,38,-441,-89,42,0,-31,-21,385,505121
-191,-28,73,-17,-29,-32,-367,-316,209,93,-152,-161,-54,-98,4,-180,58,135,118,-495,-560,-292,71,163,-536,-440,166,116,109,80,486,505122
-266,-29,72,8,-44,-49,-366,-233,148,66,-153,-97,79,-218,17,-203,137,215,270,-513,-806,-257,113,334,-646,-847,315,267,290,199,639,505123
-289,-32,89,34,-30,-39,-345,-147,147,85,-321,-165,73,-110,-47,-280,97,161,270,-548,-969,-293,65,322,-749,-1120,296,254,294,163,598,505124
-227,-27,91,35,-8,-7,-268,-169,191,-19,-210,-113,21,-65,-39,-280,44,101,204,-506,-940,-315,34,204,-730,-1079,188,177,202,74,460,505125
-197,-27,80,28,-16,8,-223,-105,60,-93,-111,-110,-16,27,-62,-247,32,87,196,-416,-883,-289,48,164,-696,-1032,143,148,169,35,359,505126
-234,-41,71,1,-28,-25,-324,-135,44,-185,109,-164,-117,1,-52,-249,47,96,255,-371,-939,-282,86,208,-730,-1158,200,166,207,69,406,505127
196,43,-35,-7,26,18,234,-80,8,-92,160,8,-175,74,68,260,-20,-16,-145,219,614,166,-24,-164,391,1074,-154,-89,-111,-94,-296,517348
163,22,-33,-45,4,-4,117,85,-40,-122,-29,-1,-63,23,28,239,-14,-11,-128,202,622,163,-9,-139,390,1092,-129,-78,-122,-109,-272,517349
74,14,3,-44,-12,-5,-22,-24,-77,30,-217,31,-71,74,51,151,24,27,-63,102,378,96,10,-51,208,761,-21,-33,-68,-54,-167,517350
-52,8,53,-16,-13,1,-168,-175,-35,-12,-257,-39,14,3,-65,7,57,69,60,-34,-26,-7,34,91,-77,179,103,72,57,61,149,517351
-47,10,52,-3,-2,13,-149,-99,101,17,-199,31,-35,71,-57,-5,45,52,59,-31,-78,-7,29,79,-101,103,91,56,65,58,127,517352
-19,14,25,6,0,-15,-74,100,100,59,-131,43,-129,148,-41,46,27,34,35,17,1,29,27,41,-36,229,52,27,40,27,72,517353
-63,-1,2,-12,-28,-50,-74,-95,122,31,115,21,-87,130,-22,37,25,28,62,2,-26,20,17,60,-61,188,47,45,40,42,72,517354
-62,1,-6,-5,-28,-53,-42,-276,42,-85,174,-7,0,29,29,43,48,46,69,26,9,49,16,64,-39,228,54,50,47,43,99,517355
-26,8,-12,-8,-12,-28,-61,-140,43,-107,72,-71,-13,-48,30,9,8,7,-9,17,46,33,-16,4,-15,320,3,-11,-3,-10,4,517356
-42,-13,17,-30,-16,-17,-186,-120,73,-105,-20,-74,14,40,4,-31,-1,11,-17,-26,-30,-8,-34,6,-69,202,21,-15,1,-3,-38,517357
-29,-11,12,-44,-19,-20,-254,-91,-57,-88,17,-36,-64,132,-6,13,2,13,-13,2,17,13,-40,14,3,259,14,12,30,10,-10,517358
-1,7,14,-30,-12,-13,-281,-84,24,25,-3,6,-110,87,39,61,22,38,36,38,75,29,-18,47,68,321,50,65,60,51,46,517359
-5,-12,7,-42,-23,-11,-253,-189,33,37,-104,55,157,45,15,73,31,52,48,38,93,40,3,55,89,323,59,84,76,61,42,517360
-23,-13,16,-27,-19,-3,-94,-114,-30,-23,-82,-43,66,202,-4,45,66,93,89,7,-15,22,53,97,8,149,100,98,107,95,72,517361
-20,22,20,33,4,3,48,-210,16,-80,47,-54,-62,134,-9,58,97,107,111,18,-8,44,83,114,0,107,120,104,121,109,116,517362
-42,14,5,14,-13,-21,2,-236,1,42,-117,20,-50,82,-38,26,63,74,75,4,-32,32,67,72,6,71,75,76,92,69,89,517363
-12,20,11,14,-10,-9,29,-99,-134,30,9,33,-137,161,-22,23,31,46,30,6,3,28,50,21,21,112,35,38,43,18,25,517364
-5,13,7,11,-8,16,83,-73,-132,-160,59,-76,51,39,-16,-16,16,13,0,-19,-15,-11,25,-8,-28,93,11,-9,5,-29,89,517365
12,0,12,8,14,32,59,-202,23,-270,-82,18,-15,-70,-1,-74,-45,-52,-89,-91,-68,-89,-43,-85,-99,34,-58,-90,-70,-86,-8,517366
96,13,4,23,36,47,135,-65,26,29,-148,20,34,-162,15,-4,-67,-75,-167,-17,133,-40,-50,-160,33,318,-133,-129,-131,-128,-150,517367
141,19,6,15,36,42,182,46,93,126,54,31,-30,-194,50,90,-30,-48,-144,73,314,46,-11,-159,161,588,-121,-106,-122,-104,-207,517368
127,17,3,0,17,15,156,278,-57,44,43,25,-134,65,66,128,-26,-36,-118,95,364,64,-17,-146,194,703,-112,-99,-118,-90,-208,517369
76,16,3,-7,14,-4,107,159,9,-5,146,-58,5,36,57,102,1,-7,-77,70,295,53,2,-85,148,611,-65,-59,-74,-52,-93,517370
-25,3,20,-2,-6,-22,-2,83,113,-218,104,-47,51,-56,-19,-5,22,30,3,-12,43,11,26,8,-16,266,20,4,-3,2,113,517371
-56,13,26,-4,-11,-28,-16,-25,159,-195,30,-100,81,-26,5,-34,34,48,13,-51,-69,-19,19,32,-90,126,52,23,29,27,156,517372
-57,6,10,-8,-7,-21,12,-13,37,-4,4,-17,158,-29,-65,-28,35,41,39,-39,-57,-36,19,35,-67,146,42,32,33,37,141,517373
-19,4,1,-24,-1,-7,58,43,-15,17,12,16,136,58,-37,19,38,27,39,30,69,18,32,12,43,352,4,40,35,27,61,517374
-21,10,3,-32,7,-7,-18,63,-78,-1,-40,-28,-68,82,-77,33,40,39,39,36,57,34,41,19,37,352,18,50,52,51,107,517375
-3,6,-11,-22,3,-11,-61,92,-77,-98,-126,-5,-77,52,-37,58,24,25,21,45,100,38,20,1,66,407,3,26,41,38,9,517376
207,37,-43,5,33,23,119,192,-110,-60,116,61,74,101,16,236,-28,-45,-134,228,568,165,-41,-151,425,1096,-142,-88,-62,-67,-369,517377
434,47,-112,-43,47,34,473,163,-180,-196,355,212,-103,269,69,516,-84,-99,-347,479,1294,356,-103,-347,926,2176,-318,-204,-225,-190,-816,517378
437,66,-106,-61,32,17,550,193,-41,-58,356,238,28,216,53,563,-95,-103,-396,494,1470,380,-128,-387,990,2478,-348,-242,-293,-233,-798,517379
225,65,-42,-58,0,-15,190,128,-134,-226,-8,143,-12,-13,16,341,-113,-86,-335,248,985,190,-153,-295,578,1838,-267,-231,-255,-209,-373,517380
-116,18,64,-56,-35,-35,-447,8,87,-12,-387,-60,111,-69,-36,2,33,87,25,-96,3,-37,-29,80,-116,357,81,11,33,51,266,517381
-90,-14,75,-41,-23,-15,-398,-133,70,79,21,-11,112,-148,54,13,82,114,118,-66,-63,-5,40,136,-86,185,133,82,112,126,227,517382
-45,11,73,22,12,18,-86,-114,27,63,-9,19,223,-55,12,-31,23,44,49,-86,-83,-51,-11,67,-77,152,80,28,72,60,162,517383
-49,22,39,68,22,25,47,-117,145,60,49,-88,135,-184,-94,-95,-43,-24,-20,-126,-147,-104,-86,11,-113,55,21,-25,28,8,35,517384
-37,21,32,69,7,8,118,-125,34,76,208,-89,24,-154,-104,-53,-11,-6,0,-93,-94,-69,-62,18,-85,103,33,-3,32,13,21,517385
-25,34,31,71,21,-5,139,69,-17,143,166,-10,84,-237,-10,-17,7,14,7,-61,-56,-38,-30,1,-63,141,1,-1,19,3,26,517386
217,54,-49,41,39,11,407,360,-143,25,205,2,2,-47,35,219,-83,-100,-223,178,596,113,-78,-258,392,1119,-238,-180,-184,-168,-530,517387
482,86,-112,-12,62,45,682,430,-200,-157,305,143,58,1,56,491,-169,-195,-491,436,1422,297,-143,-523,912,2366,-474,-364,-416,-356,-1027,517388
462,84,-87,-38,47,33,635,319,-237,-60,-22,77,-79,-32,56,524,-172,-178,-519,445,1548,320,-173,-522,945,2644,-474,-385,-458,-362,-874,517389
240,63,-21,-29,23,-3,334,204,7,-89,-34,-4,-22,-26,-35,303,-118,-79,-334,195,1004,139,-157,-325,506,1918,-291,-262,-335,-241,-315,517390
-59,24,48,-7,-19,-24,-52,-41,159,-98,-45,-103,59,-107,-44,-1,19,71,6,-92,131,-72,-23,11,-103,659,32,-22,-54,-6,320,517391
-147,1,49,-24,-30,-39,-149,-198,52,-71,-242,-166,-19,-57,-90,-79,60,104,111,-145,-143,-99,29,111,-232,253,115,65,51,70,352,517392
-128,13,52,-1,-22,-35,-115,-80,33,-7,-104,-55,42,33,-71,-75,73,82,123,-109,-150,-66,34,121,-199,219,118,85,90,90,312,517393
-89,13,46,27,-7,-22,-82,9,61,-27,-68,-11,62,-194,-58,-69,43,24,97,-99,-110,-65,10,73,-171,273,76,56,62,65,254,517394
-87,13,48,31,-3,-16,-90,41,-29,-22,-259,-188,-10,-217,-50,-70,21,10,112,-109,-166,-72,9,88,-196,212,79,64,81,77,171,517395
-36,27,54,39,15,10,9,-77,17,-16,-48,-86,60,-87,8,8,34,19,108,-31,-57,-17,28,80,-98,349,72,64,84,80,80,517396
144,26,4,13,28,30,314,-8,7,130,348,72,22,119,85,176,-31,-50,-86,147,441,104,-32,-120,256,1076,-114,-89,-77,-53,-314,517397
294,51,-20,14,56,52,518,279,3,90,448,108,97,-24,44,263,-124,-139,-271,220,822,137,-119,-303,476,1667,-292,-245,-263,-195,-571,517398
256,54,-16,16,48,31,461,216,-55,-70,-41,-33,128,-18,-48,190,-151,-160,-314,125,730,74,-157,-332,354,1592,-318,-292,-317,-255,-464,517399
99,44,18,15,24,7,283,182,58,71,-188,-137,27,36,-75,56,-76,-60,-178,-8,355,-14,-83,-185,84,1050,-174,-176,-204,-150,-142,517400
-81,30,62,27,-3,-10,-30,66,44,101,-70,-166,-93,-191,-117,-75,4,31,11,-148,-102,-86,-17,11,-215,337,18,-28,-35,2,124,517401
-72,21,69,8,5,2,-172,12,70,117,7,-46,156,-77,-55,-58,34,48,84,-113,-117,-57,6,66,-179,254,52,42,40,63,182,517402
-80,-17,68,-31,0,-12,-265,-112,99,-64,-134,-28,214,-149,2,-55,45,57,124,-120,-152,-75,13,97,-175,166,70,83,81,88,208,517403
-71,-8,41,-24,-13,-23,-166,-111,114,-58,-244,-34,131,-131,6,-44,17,35,104,-101,-118,-61,13,68,-148,189,45,63,63,59,24,517404
-73,1,25,2,-21,-34,-73,-87,76,-98,-154,25,57,34,2,-28,14,11,84,-81,-101,-49,11,52,-147,224,29,58,50,48,13,517405
-58,18,27,26,-5,-17,-40,33,70,-4,0,-52,-24,48,-14,2,45,43,96,-54,-71,-8,31,86,-99,258,57,78,76,71,81,517406
-25,37,38,32,13,-4,-19,-197,-11,39,103,-20,-110,36,-74,37,54,56,86,-1,-11,35,40,78,-27,330,75,70,96,67,66,517407
-46,23,21,-1,-9,-29,-35,-96,-99,-47,-67,1,-90,157,-18,26,33,35,55,-2,3,6,15,53,-10,349,79,54,82,40,58,517408
-73,17,44,11,-2,-20,-85,36,-12,-12,-68,-56,20,72,-53,-39,18,18,62,-60,-111,-50,-4,56,-94,183,91,49,79,45,17,517409
-67,-4,24,3,-3,-21,-99,27,26,-21,49,-20,20,-39,-96,-86,-47,-37,-20,-105,-147,-85,-72,-12,-133,166,-11,-24,9,-24,48,517410
-85,11,26,1,-4,-20,-100,-89,16,1,-105,-46,-16,36,-6,-82,-9,23,42,-94,-181,-56,-35,57,-129,97,42,36,81,22,194,517411
-66,23,22,12,8,-16,-76,-55,-68,109,52,1,-102,-30,-4,-61,9,41,65,-71,-161,-35,-34,77,-85,118,65,61,109,52,157,517412
-23,26,22,24,7,7,-57,-13,10,-20,133,0,117,-57,-18,-44,11,39,53,-50,-126,-18,-47,55,-55,183,57,38,86,48,93,517413
5,29,48,45,32,35,-46,113,-19,23,-175,49,52,-35,71,-60,-19,11,18,-67,-113,-47,-68,18,-65,210,16,-10,32,7,15,517414
-27,8,39,33,21,11,-98,155,51,5,-174,16,156,48,27,-118,-50,-32,-11,-130,-215,-93,-82,-1,-147,80,-4,-54,2,-16,61,517415
-38,0,33,31,8,-14,-60,94,46,89,-82,45,72,-46,-29,-90,-16,-16,33,-109,-216,-83,-27,18,-157,51,21,-29,22,7,153,517416
-164,1,63,58,-17,-24,-110,-30,77,136,-58,55,49,-112,-6,-157,67,84,213,-189,-505,-151,78,183,-351,-401,180,112,159,126,470,517417
-349,-17,117,81,-23,-27,-282,-350,215,213,-271,-131,77,-266,-62,-385,129,151,398,-386,-1087,-292,165,366,-747,-1293,344,240,305,260,750,517418
-368,-37,122,95,2,-9,-298,-54,115,204,-347,-269,279,-216,-114,-464,102,113,411,-436,-1283,-326,159,362,-874,-1628,324,224,321,242,647,517419
-226,-16,96,107,44,31,-119,-26,63,111,-395,-146,58,-116,-6,-349,72,59,340,-307,-1023,-239,121,264,-678,-1309,230,178,259,188,302,517420
16,6,-8,72,41,30,137,23,13,52,-132,-31,-149,-97,-1,-116,-31,-77,75,-60,-275,-90,12,-28,-139,-248,-38,15,40,-16,-143,517421
49,7,-21,35,23,18,55,300,-6,67,71,-85,-97,26,-3,-46,-32,-60,1,-3,-96,-32,0,-58,-1,28,-53,13,5,-52,-79,517422
6,-13,-8,-8,0,-12,-84,220,-1,-41,247,-43,-100,227,42,-12,23,-1,34,8,-91,6,43,11,12,24,13,48,51,11,-61,517423
-23,-7,8,-17,-9,-12,-93,76,116,-45,-11,89,-43,192,35,10,53,31,70,25,-81,28,75,57,16,24,58,74,96,52,60,517424
-27,-10,-4,-19,-12,-12,-49,-42,2,-3,-53,65,-2,84,-13,9,20,18,27,22,-58,25,33,31,49,69,37,43,66,37,-22,517425
-29,-5,-5,-18,-8,-6,-68,154,-44,-83,-41,-83,145,21,9,14,18,20,21,21,-67,10,28,44,12,70,57,44,65,54,11,517426
-310,-47,68,-6,-42,-27,-461,-198,19,9,-235,-154,110,-179,-23,-305,92,122,281,-296,-897,-204,88,314,-613,-1135,301,221,250,229,647,517427
-590,-82,139,43,-53,-39,-790,-316,156,93,-284,-200,301,-26,-155,-642,166,213,582,-597,-1817,-416,162,596,-1219,-2535,556,401,483,417,1095,517428
-552,-73,138,77,-27,-14,-710,-654,116,90,-122,-105,280,36,-49,-629,191,205,640,-546,-1873,-393,212,595,-1194,-2723,546,417,537,451,1079,517429
-310,-44,58,73,7,0,-380,-230,80,15,162,50,212,48,-5,-369,165,142,496,-262,-1259,-189,218,409,-696,-1918,363,330,432,339,559,517430
68,-9,-59,34,32,22,109,45,-91,31,243,229,38,240,135,24,27,-25,94,119,-141,66,95,-2,107,-297,-11,59,113,48,-221,517431
128,4,-62,19,27,21,194,81,-154,-4,294,145,-1,186,134,90,-12,-60,-17,161,140,93,48,-90,259,144,-75,-14,6,-39,-307,517432
71,1,-34,7,29,31,103,-1,-146,83,233,64,-22,29,55,16,-21,-64,-49,82,35,49,30,-81,144,36,-60,-32,-21,-43,-218,517433
82,21,-15,19,45,59,66,-27,-57,44,-32,107,-62,-13,36,14,-9,-36,-75,67,30,59,31,-73,124,39,-54,-45,-22,-50,-158,517434
87,8,-5,17,38,65,51,236,8,70,7,117,71,35,-49,-1,-24,-33,-72,50,28,39,21,-74,114,38,-67,-46,-30,-62,-178,517435
18,-8,-2,16,18,31,32,154,-21,87,-20,56,-10,152,-79,-46,-22,-19,-24,-12,-79,-32,16,-36,19,-115,-24,-8,-4,-39,-14,517436
-274,-23,51,30,-20,-16,-241,-22,149,-22,-171,-32,-28,-78,-64,-278,114,139,301,-253,-819,-194,140,287,-494,-1223,282,224,241,194,666,517437
-523,-56,103,71,-48,-45,-471,-283,308,89,-227,-177,32,-266,-96,-535,207,236,582,-479,-1583,-344,240,547,-997,-2394,514,401,454,380,1106,517438
-500,-63,103,93,-16,-11,-404,-255,175,89,-106,-198,148,-191,-73,-566,173,184,552,-478,-1681,-364,219,506,-1007,-2604,446,365,446,358,966,517439
-253,-48,35,90,24,20,-103,-159,120,-9,181,-86,36,-152,20,-350,104,85,352,-239,-1117,-204,160,280,-565,-1816,218,231,299,215,426,517440
100,2,-52,80,61,33,264,46,-72,31,228,137,-56,-6,70,2,-19,-70,4,115,-117,33,57,-73,141,-352,-93,5,36,-26,-284,517441
71,-8,-69,29,32,6,146,146,-131,66,31,102,5,158,57,-12,-69,-112,-94,85,-38,3,3,-137,142,-165,-142,-64,-53,-93,-249,517442
51,-16,-52,-8,18,11,15,292,-43,111,201,69,-30,104,90,11,-33,-69,-53,94,-31,38,25,-66,136,-132,-63,-10,-11,-39,-155,517443
34,-7,-14,0,24,21,-31,124,-99,27,68,102,-102,207,138,56,48,16,39,122,-40,70,80,39,144,-148,29,85,77,49,-12,517444
35,5,-18,-1,35,18,-41,-31,-98,87,-81,147,-105,152,86,53,44,33,45,118,-48,69,75,55,145,-155,33,81,86,67,-3,517445
19,-7,-24,-15,17,10,-27,-65,-63,140,210,148,-79,129,28,33,9,10,11,90,-63,43,34,24,115,-149,33,47,52,46,-31,517446
-195,-34,36,-3,-16,-4,-286,-209,139,25,37,-5,42,-53,0,-198,73,91,200,-138,-648,-114,91,208,-333,-1008,232,169,177,164,462,517447
-385,-71,58,6,-49,-36,-521,-340,162,60,-227,-58,-53,128,-44,-404,135,149,380,-335,-1214,-267,159,382,-727,-1883,361,283,315,281,807,517448
-361,-62,49,26,-36,-16,-468,-338,173,59,-72,30,-56,21,-36,-368,180,179,445,-284,-1252,-213,227,424,-699,-2023,386,341,379,322,714,517449
-207,-38,10,28,-6,13,-240,-184,-10,10,-78,126,50,214,30,-197,154,135,343,-88,-849,-72,208,319,-378,-1513,286,269,324,258,326,517450
75,-16,-59,-8,26,26,91,80,-149,36,-35,217,-157,331,18,56,22,-16,2,172,-31,102,76,-25,189,-316,-23,31,60,24,-263,517451
123,-16,-69,-4,29,26,78,71,-168,-14,-40,208,-67,148,-50,51,-55,-98,-119,159,162,76,3,-147,247,-8,-144,-61,-79,-92,-335,517452
109,-15,-49,-1,22,31,28,16,-62,-159,2,61,-104,126,43,28,-70,-100,-132,105,145,50,1,-152,206,-25,-150,-73,-92,-120,-312,517453
55,-17,-36,0,3,11,-26,109,-92,-33,-62,70,-60,125,41,13,-28,-40,-80,76,62,45,18,-81,146,-169,-76,-34,-39,-77,-192,517454
56,-16,-28,9,7,19,14,-53,-64,27,-8,56,-11,137,87,31,12,-11,-43,96,80,64,44,-46,160,-159,-36,-2,-12,-54,-137,517455
28,-20,-22,16,3,9,58,-43,77,29,84,72,-77,154,60,-7,19,5,-15,54,4,45,40,-7,99,-260,-9,22,6,-24,-35,517456
-174,-34,22,26,-24,-20,-132,10,170,-28,-78,-12,-12,-14,-48,-220,52,44,125,-165,-534,-99,69,128,-315,-1029,130,102,93,67,372,517457
-406,-62,65,48,-49,-34,-451,-175,197,95,-234,-133,-82,-98,-81,-473,94,104,323,-402,-1235,-278,112,324,-786,-2072,309,225,256,187,763,517458
-361,-52,83,65,-12,12,-459,-306,136,108,-17,-14,-18,-173,2,-455,117,122,364,-361,-1287,-272,142,360,-742,-2203,331,263,320,232,674,517459
-148,-43,38,68,17,48,-183,-248,11,380,328,83,-17,-47,27,-270,73,48,237,-150,-837,-131,110,207,-359,-1557,191,172,230,161,210,517460
118,-19,-46,40,44,56,255,-88,-29,84,321,159,-94,156,61,-5,-47,-91,-65,108,-70,23,9,-97,160,-388,-91,-33,-23,-52,-320,517461
83,-10,-58,18,37,36,224,21,41,-157,-136,41,-171,-18,-58,-30,-85,-107,-135,56,-38,-28,-51,-147,99,-281,-122,-104,-105,-116,-242,517462
64,-14,-65,-16,15,20,98,125,-28,-192,124,12,-194,62,-60,16,-37,-49,-91,79,13,18,-2,-96,115,-192,-79,-65,-74,-65,-199,517463
55,-17,-63,-34,-4,-7,32,157,-250,9,40,84,21,51,50,86,49,23,-1,130,70,82,74,-19,166,-125,0,14,-7,12,-80,517464
55,-1,-45,-14,7,-6,21,145,-105,3,-9,96,189,216,121,77,56,32,15,128,72,84,91,-9,178,-106,25,32,10,32,64,517465
40,-6,-34,-6,2,-11,-7,-82,53,9,-147,132,-29,363,98,35,38,7,21,93,9,37,63,6,116,-167,30,21,4,32,74,517466
-103,-23,-1,-5,-26,-36,-174,11,175,15,-179,101,-45,284,108,-112,45,43,118,-62,-331,-65,75,122,-147,-664,110,83,82,98,329,517467
-228,-42,37,10,-38,-25,-339,-210,129,-46,-162,-40,71,40,-7,-251,90,105,268,-196,-756,-150,122,268,-409,-1304,232,185,205,199,520,517468
-213,-52,42,42,-14,1,-317,-86,160,-13,-64,-35,192,-225,-16,-291,103,104,293,-220,-872,-159,113,277,-474,-1519,244,216,237,198,501,517469
-86,-39,9,50,1,27,-112,9,61,110,-102,6,1,-214,19,-184,66,35,183,-89,-568,-68,85,162,-223,-1140,139,153,177,135,165,517470
136,-3,-29,42,46,50,184,202,-21,123,149,134,54,-60,55,74,-18,-67,-70,150,85,126,-10,-65,240,-206,-78,-17,-8,-19,-337,517471
132,-6,-49,12,20,37,210,130,-56,116,171,132,191,57,66,100,-62,-87,-156,164,221,138,-66,-127,302,10,-127,-96,-82,-88,-313,517472
112,6,-41,4,17,43,180,67,-84,64,147,128,28,32,120,89,-47,-57,-108,127,208,113,-41,-92,289,-28,-94,-55,-64,-75,-253,517473
52,-13,-45,-27,-11,15,100,-5,8,-104,81,54,49,95,75,38,-26,-41,-48,89,105,92,-5,-54,208,-188,-55,6,-27,-51,-127,517474
14,-26,-45,-26,-20,-4,30,-30,19,21,130,52,-116,-2,19,2,-5,-19,-9,58,34,64,26,-38,127,-306,-40,19,-17,-40,-66,517475
0,-5,-23,-6,0,18,-17,-36,-22,-31,-73,-23,-85,-37,-15,-10,19,8,15,34,-18,42,61,-13,60,-395,-13,9,-13,-23,1,517476
-111,-28,-13,-16,-28,-21,-203,28,-28,-120,-98,-116,105,-134,-86,-141,44,35,94,-91,-339,-54,82,77,-178,-840,83,66,43,30,227,517477
-187,-34,15,18,-33,-29,-322,9,-23,-154,-106,-1,235,38,-14,-195,97,103,220,-142,-592,-100,119,207,-323,-1231,199,181,174,131,377,517478
-134,-27,-11,11,-32,-25,-235,-138,25,-148,-33,78,-40,9,93,-122,75,80,156,-68,-441,-63,84,145,-193,-1006,154,146,135,116,213,517479
-36,-14,-34,6,-14,1,-107,10,25,-51,265,56,-13,114,57,-26,29,19,47,24,-185,8,34,52,-13,-609,74,64,64,51,16,517480
21,-11,-40,-1,-3,5,9,146,31,-94,79,123,-21,154,152,14,5,-8,-14,76,-17,47,21,-6,96,-317,8,13,4,6,-37,517481
6,-18,-34,3,-8,-16,32,-129,-56,-28,-44,59,-113,115,66,-21,-4,-21,-9,37,-70,7,22,-13,41,-346,16,-13,-16,-3,-96,517482
22,1,-31,15,-10,-17,69,67,-14,57,-65,48,-183,220,3,29,23,4,-11,77,13,56,52,-9,99,-221,33,-13,-14,19,-112,517483
29,-6,-27,13,-3,-3,-21,58,54,-10,100,11,-128,151,-43,30,0,-1,-43,64,19,44,26,-27,83,-195,1,-32,-35,13,-107,517484
59,-9,-4,1,18,29,-121,120,22,-29,15,-58,-33,-79,21,-21,-48,-44,-88,12,-5,-20,-18,-88,34,-179,-68,-71,-89,-44,-140,517485
84,-22,14,-13,24,56,-107,166,-108,148,-155,65,41,-172,-30,-18,-51,-54,-86,14,6,-23,-16,-95,37,-154,-99,-60,-79,-48,-170,517486
97,-29,-20,-16,15,48,93,220,23,-18,-41,88,133,-65,5,14,-53,-74,-94,48,94,13,-8,-100,122,-26,-126,-57,-84,-57,-200,517487
146,-3,-47,10,17,27,305,189,60,25,107,88,80,-65,10,65,-63,-91,-150,102,264,52,-41,-150,258,223,-171,-102,-114,-101,-289,517488
131,13,-68,-2,-5,-8,285,167,-5,-19,159,92,123,28,60,97,-62,-74,-171,119,343,87,-66,-151,310,342,-167,-90,-120,-111,-252,517489
117,37,-41,5,12,6,211,170,-42,2,112,-6,4,186,85,112,-20,-24,-115,139,341,103,-24,-90,299,293,-88,-36,-80,-67,-162,517490
68,12,-28,0,-6,12,118,90,-43,-91,-16,-130,-46,61,-26,71,2,-21,-63,79,212,63,11,-44,183,85,-46,-15,-71,-47,-97,517491
68,8,-21,-35,-12,-3,149,-33,85,-74,79,-6,-46,174,14,124,34,15,-31,130,275,121,56,-23,229,139,-19,0,-49,-31,-120,517492
8,-2,-26,-50,-28,-33,83,-114,35,-20,-131,86,-80,258,-23,96,49,42,-6,111,216,91,57,13,168,-8,12,23,-8,-12,6,517493
32,5,-20,-35,-7,-11,27,-58,42,-96,-5,16,-66,189,-44,58,-8,-22,-46,73,187,46,-3,-36,148,-52,-32,-9,-46,-44,-8,517494
70,15,-15,-23,15,17,-4,-135,4,-43,-56,14,-121,-11,-58,44,-62,-66,-102,55,207,21,-79,-95,160,-13,-93,-57,-103,-98,-59,517495
75,16,-3,-19,13,25,54,-92,-4,-22,-40,-1,-12,-161,-19,75,-36,-32,-89,86,230,82,-79,-62,186,32,-70,-38,-64,-73,-94,517496
119,11,-24,-16,-8,16,170,55,-67,19,-153,-65,-53,184,10,131,-61,-56,-160,150,391,134,-110,-120,299,308,-131,-96,-107,-111,-257,517497
289,42,-69,-33,12,22,356,64,-258,-75,42,94,-125,363,59,325,-98,-112,-324,334,902,264,-148,-286,651,1132,-277,-202,-235,-212,-533,517498
248,35,-88,-61,-14,-17,249,-195,-199,-218,15,90,-95,243,52,339,-74,-92,-301,314,946,244,-95,-261,636,1242,-225,-173,-234,-182,-495,517499
128,29,-52,-75,-29,-48,2,94,-154,-114,101,48,54,71,-25,246,-10,-18,-200,196,697,161,-31,-143,449,939,-97,-94,-157,-100,-346,517500
-29,-6,13,-82,-37,-36,-303,53,-70,-96,-63,47,71,42,-52,102,76,91,-1,43,197,81,35,80,103,254,92,45,19,69,101,517501
-7,-19,56,-73,-6,19,-284,-180,10,36,128,99,142,-33,32,86,98,116,93,42,91,85,69,143,24,99,147,98,76,125,198,517502
41,3,57,-7,18,51,6,-108,81,134,16,53,79,-188,-26,24,6,18,18,-5,66,8,-23,25,-13,94,20,9,-25,21,40,517503
52,28,17,56,21,37,265,68,73,25,-17,-27,107,-298,-47,-42,-81,-77,-85,-64,39,-67,-101,-88,-37,122,-101,-98,-133,-77,-103,517504
14,34,5,63,-6,8,286,29,167,-40,90,-144,-43,-333,-53,-70,-75,-80,-94,-102,-36,-90,-84,-82,-79,39,-95,-90,-115,-75,-54,517505
26,17,-7,39,-6,1,234,31,162,58,9,-177,37,-366,-143,-78,-102,-102,-141,-102,-17,-92,-101,-125,-38,81,-134,-123,-146,-106,-154,517506
252,30,-61,19,32,21,411,33,-55,91,223,21,16,-127,-92,180,-150,-156,-310,153,638,80,-151,-303,441,1037,-295,-235,-271,-212,-598,517507
424,62,-102,-12,38,26,580,346,-140,47,154,98,-49,-151,93,431,-152,-173,-445,389,1263,270,-164,-434,869,1953,-415,-296,-363,-293,-777,517508
433,82,-104,-35,21,8,574,499,-165,-110,136,66,-214,58,56,456,-153,-157,-524,398,1409,289,-173,-466,925,2217,-441,-334,-421,-336,-750,517509
243,57,-61,-41,-19,-24,305,149,-109,-47,-50,-27,-323,-143,-1,263,-134,-108,-400,178,949,142,-151,-320,538,1589,-304,-257,-334,-250,-371,517510
-76,3,40,-14,-35,-29,-116,-61,139,21,-213,-201,-96,-291,-80,-83,-50,-20,-76,-159,10,-96,-75,-10,-160,167,-18,-64,-96,-47,250,517511
-94,-14,46,-13,-25,-13,-139,41,110,124,-288,-172,-62,-242,-98,-91,-12,17,38,-138,-152,-90,-15,66,-230,-173,57,7,-5,32,233,517512
-24,-6,26,-18,-17,-22,-62,-34,68,32,-144,-47,0,-141,-42,5,3,18,41,-27,30,-16,-1,39,-62,11,34,8,-8,17,93,517513
-13,11,14,-12,-13,-33,-15,-123,39,25,4,-101,-45,-64,11,29,-6,7,23,2,101,-9,-20,19,-17,56,7,-15,-14,-7,47,517514
-54,10,-7,-34,-37,-60,-43,-118,20,-51,-89,-38,-125,49,7,5,-13,5,8,-18,73,-24,-36,7,-41,-2,5,-19,-23,-20,88,517515
-7,23,10,-23,-11,-27,-43,-196,-42,24,-178,-13,58,-36,22,-19,-33,-22,-25,-14,89,-18,-48,-31,-15,41,-39,-37,-51,-45,-32,517516
370,66,-50,13,63,40,422,80,-120,172,302,124,-15,-105,108,294,-162,-174,-351,297,967,193,-164,-364,622,1380,-360,-265,-294,-262,-794,517517
645,84,-134,-43,72,54,759,184,-322,66,233,132,75,70,103,583,-283,-301,-692,547,1837,363,-296,-684,1192,2779,-653,-500,-572,-497,-1286,517518
577,84,-121,-65,38,14,680,376,-284,2,-12,46,-101,50,13,586,-263,-249,-675,497,1853,361,-298,-632,1152,2941,-590,-469,-554,-468,-1073,517519
316,68,-59,-69,-5,-24,401,36,-105,-151,-197,-44,-10,149,-18,379,-176,-138,-471,267,1276,218,-230,-377,699,2190,-350,-308,-389,-298,-438,517520
-99,37,40,-26,-49,-55,-24,-240,81,-165,-26,-134,105,-28,-74,-14,-11,49,-51,-134,130,-39,-80,38,-112,557,41,-32,-66,-3,297,517521
-113,56,48,23,-54,-56,20,-70,-36,-51,-11,-95,19,-25,-44,-13,50,106,68,-121,9,-20,-1,102,-144,335,102,29,32,77,324,517522
-106,49,45,37,-37,-43,9,-145,-99,-33,-59,-115,-2,16,18,-32,52,93,84,-122,-39,-45,20,96,-161,245,95,36,36,84,304,517523
-87,29,51,16,-16,-21,-45,-184,68,-25,88,-205,168,-53,-43,-74,-2,36,35,-148,-72,-74,-18,41,-183,214,59,8,-6,28,187,517524
-55,5,56,-1,-12,-6,-12,12,61,-24,56,-77,76,-90,-44,-56,-13,13,11,-129,-47,-52,-36,19,-146,242,40,-15,-26,9,141,517525
-42,12,39,-1,-21,-4,13,78,-13,-130,121,-81,64,33,15,-27,16,28,26,-74,2,-15,-11,23,-98,283,36,-6,-8,23,100,517526
210,48,-24,-3,27,24,243,227,-210,22,220,43,200,192,-38,230,-57,-60,-192,179,647,139,-94,-201,364,1212,-184,-150,-164,-118,-445,517527
442,74,-91,-39,53,41,496,530,-156,12,371,64,31,50,27,460,-195,-193,-498,382,1371,274,-234,-485,814,2337,-434,-357,-421,-331,-928,517528
418,63,-98,-79,22,8,456,322,-170,-46,350,103,-118,42,1,458,-213,-212,-532,370,1457,252,-254,-507,805,2524,-436,-399,-477,-357,-866,517529
222,42,-33,-87,-16,-15,188,44,-62,-30,130,-44,43,-80,-58,280,-142,-119,-353,160,983,112,-173,-329,439,1885,-276,-283,-346,-244,-400,517530
-100,19,57,-29,-43,-45,-182,-101,44,18,37,-201,301,-150,-35,-22,5,65,47,-146,49,-108,-27,61,-199,479,67,-8,-32,23,308,517531
-136,21,63,8,-46,-49,-156,142,55,76,197,-180,169,-208,7,-72,42,90,159,-160,-151,-125,28,138,-278,118,136,61,64,98,320,517532
-90,23,67,26,-23,-15,-69,61,137,0,229,-193,235,-270,-4,-65,22,51,125,-127,-130,-109,23,91,-243,99,81,35,44,67,223,517533
-63,-1,58,14,-5,-1,-15,-79,190,54,305,-94,-34,-207,-78,-56,5,20,86,-113,-113,-106,9,56,-225,111,35,9,8,30,169,517534
-57,7,43,7,-10,-6,7,-13,125,12,156,51,166,-187,-96,-47,6,15,78,-97,-106,-97,4,60,-198,105,46,12,11,37,199,517535
-21,9,7,-25,-9,-18,-50,124,30,47,25,-69,299,-27,-17,-22,-41,-25,6,-63,1,-79,-47,-9,-114,261,-26,-27,-34,-17,-12,517536
116,20,-21,-58,14,11,17,26,-107,43,-139,-18,-3,17,89,152,-78,-60,-111,84,421,47,-84,-123,202,865,-124,-77,-103,-84,-271,517537
212,39,-15,-60,28,11,142,193,-43,98,133,38,-60,-23,113,283,-49,-45,-155,214,728,164,-68,-157,414,1333,-151,-84,-132,-90,-369,517538
179,42,-7,-39,11,-9,149,171,-55,169,-115,-6,-24,2,32,240,-43,-18,-142,174,672,151,-65,-129,349,1297,-135,-81,-130,-87,-207,517539
61,30,21,-27,2,-7,49,-23,-3,71,-659,7,42,-24,13,116,-23,18,-52,45,372,60,-38,-49,129,901,-57,-26,-61,-39,38,517540
-66,17,50,-13,-16,-16,-57,-228,-86,120,-153,-140,174,-116,-105,-21,8,52,47,-94,-2,-29,-17,60,-116,358,49,35,28,31,276,517541
-74,32,28,13,-25,-28,4,33,-23,56,158,-130,156,-142,-40,0,12,49,46,-58,3,1,-10,75,-74,336,43,41,54,42,165,517542
-89,31,27,20,-18,-29,-53,-314,-60,25,97,-61,272,-135,-36,-39,-1,17,30,-83,-66,-44,-29,62,-119,240,35,12,44,28,159,517543
-59,15,44,6,0,-6,-125,-353,-23,-67,-89,-6,-98,-91,-67,-53,-5,22,27,-87,-89,-44,-31,47,-134,219,52,6,36,25,181,517544
-34,-1,43,-12,-2,8,-96,-350,-4,128,-115,-30,-159,11,-99,-6,24,50,69,-50,-49,2,-9,90,-99,231,90,35,70,52,144,517545
-46,5,36,2,-16,-8,-25,-225,-3,41,90,-75,15,-42,12,18,62,89,132,-22,-33,41,35,140,-65,222,142,81,110,85,189,517546
64,41,11,13,8,5,91,-65,-112,1,67,-43,-125,172,39,156,77,68,85,114,284,132,56,51,163,661,59,55,52,49,-96,517547
182,52,-16,-13,36,24,175,-101,-140,-55,-36,-25,-173,321,54,269,22,4,-52,212,641,167,29,-94,374,1185,-73,-36,-76,-54,-312,517548
200,46,-34,-33,25,8,197,-31,-30,-95,-121,-50,-114,213,25,297,-36,-50,-146,236,782,179,-10,-172,453,1442,-136,-109,-144,-110,-433,517549
118,26,-18,-42,2,-17,85,-23,-46,-129,-65,-2,-39,183,-9,215,-26,-45,-138,140,589,122,-15,-133,282,1205,-119,-98,-135,-101,-194,517550
-88,7,47,-30,-23,-25,-180,-126,-11,46,-205,-19,-82,25,-14,-27,41,53,65,-87,-42,-45,32,66,-167,308,65,37,17,36,256,517551
-100,14,74,16,9,8,-192,-99,21,-27,-163,-96,65,11,-27,-98,41,55,124,-153,-216,-106,42,102,-277,50,86,75,56,79,310,517552
-53,1,49,24,18,10,-108,86,31,42,59,-102,-19,6,-111,-66,16,17,61,-115,-146,-86,14,51,-252,161,47,14,9,51,202,517553
-59,5,58,30,8,18,-81,70,-5,148,2,20,33,-186,-47,-34,56,68,89,-94,-166,-50,33,98,-273,108,106,31,43,100,202,517554
-7,22,45,42,22,16,20,57,-53,34,-62,-55,145,-90,99,18,61,65,79,-35,-53,-5,48,82,-156,278,91,33,43,100,31,517555
-27,6,11,14,-16,-24,-8,30,-30,-18,172,33,125,-11,68,16,17,18,13,-36,-6,-35,-6,34,-99,361,39,2,-2,49,-53,517556
370,49,-92,-33,48,12,420,200,-115,-16,518,339,-118,177,84,456,-73,-117,-323,414,1123,285,-80,-317,744,1992,-298,-204,-227,-169,-874,517557
874,112,-216,-106,94,59,989,588,-222,-33,614,404,-296,306,136,983,-240,-324,-837,903,2666,627,-226,-831,1760,4335,-780,-549,-647,-541,-1759,517558
898,139,-164,-118,101,81,939,612,-186,-79,607,322,-150,177,145,982,-285,-331,-911,852,2849,610,-304,-881,1784,4743,-822,-606,-741,-619,-1620,517559
511,89,-67,-127,20,30,426,270,-135,-170,420,120,-88,-109,8,590,-229,-211,-654,430,1911,324,-295,-576,1051,3484,-529,-447,-572,-456,-739,517560
-137,8,89,-91,-61,-40,-326,-223,108,-26,-263,-231,-12,-316,-99,-51,-36,41,-56,-190,140,-111,-135,41,-197,886,48,-73,-99,-42,374,517561
-183,8,109,-32,-35,-38,-281,-139,152,-26,-174,-100,105,-217,-167,-87,40,97,111,-185,-139,-107,-33,161,-292,390,153,47,73,89,407,517562
-136,6,86,-2,-13,-26,-195,-140,7,-60,-117,-82,111,-161,-60,-52,32,75,94,-132,-107,-85,-29,134,-219,400,113,48,81,78,364,517563
-135,-13,68,-26,-31,-30,-189,-152,-32,-21,-95,-50,120,-52,-32,-31,37,74,120,-90,-97,-60,-20,153,-193,361,128,72,107,93,305,517564
-149,-5,51,-35,-31,-35,-183,-54,-100,-60,-91,-69,159,38,26,-9,70,88,170,-59,-113,-17,27,173,-174,302,159,106,141,113,215,517565
-88,29,43,-4,-2,-22,-94,24,24,7,-4,-112,32,11,51,50,71,89,155,0,8,22,57,134,-81,428,122,94,124,96,154,517566
149,45,-27,-23,16,-6,158,80,-90,-73,-69,65,-34,0,134,259,-19,-20,-104,216,636,150,-35,-130,372,1366,-113,-83,-72,-73,-312,517567
329,61,-40,-45,42,32,315,218,-124,-77,95,206,11,142,105,423,-81,-77,-290,354,1154,260,-94,-297,715,2171,-276,-189,-222,-188,-593,517568
520,85,-57,-62,67,65,531,371,-153,38,187,87,-119,167,103,596,-150,-168,-470,509,1689,357,-159,-477,1060,3035,-445,-317,-370,-319,-945,517569
350,65,-17,-74,29,36,329,168,-52,-52,116,78,-23,32,-41,427,-168,-142,-429,285,1343,195,-207,-397,720,2648,-371,-307,-378,-310,-618,517570
-170,14,102,-47,-36,-31,-302,-230,39,-83,-317,-34,94,-108,-128,-80,4,82,66,-227,-79,-137,-68,115,-301,604,90,27,10,35,387,517571
-217,-2,91,-20,-34,-28,-333,-367,-13,-49,-378,-76,110,-180,-123,-130,33,93,149,-264,-305,-155,-37,172,-392,274,140,84,106,113,401,517572
-177,7,95,16,-14,-16,-270,-217,17,136,-171,-79,96,-307,-60,-126,31,77,164,-257,-344,-143,-20,165,-366,218,147,97,114,133,327,517573
-148,5,60,8,-26,-42,-174,-172,-45,111,-103,-133,131,-332,23,-93,32,71,133,-209,-257,-116,3,129,-268,355,131,81,96,114,202,517574
-125,3,56,7,-27,-27,-122,-173,39,13,-21,-157,202,-361,-53,-42,56,82,143,-160,-203,-73,42,135,-196,426,136,102,130,147,157,517575
-79,4,51,12,-8,-1,-117,-212,21,-122,46,-38,-113,-165,-12,20,80,95,150,-83,-99,-18,65,143,-111,519,144,111,150,164,173,517576
300,57,-52,-33,49,35,303,69,-134,-235,320,187,-76,100,36,440,16,-11,-144,349,968,273,3,-167,688,2043,-138,-67,-63,-27,-593,517577
433,70,-90,-65,39,34,454,397,-122,-197,349,305,-66,93,74,587,-72,-92,-373,468,1486,354,-97,-367,983,2841,-300,-226,-258,-208,-817,517578
420,67,-79,-86,25,18,464,279,-109,150,682,261,-136,171,93,562,-100,-117,-424,443,1512,330,-134,-403,950,2954,-338,-270,-329,-270,-733,517579
216,45,-28,-85,-15,-9,250,131,-98,70,294,30,-168,-14,62,344,-83,-68,-269,219,1012,169,-113,-252,517,2252,-204,-200,-250,-199,-243,517580
-168,13,75,-14,-51,-42,-194,110,54,36,-316,-183,87,-247,-73,-91,1,56,95,-190,-127,-144,-28,99,-297,570,114,22,13,33,443,517581
-181,5,60,16,-40,-40,-225,-134,130,-61,-185,-259,128,-203,-131,-167,-40,2,82,-218,-295,-189,-57,75,-362,280,85,7,38,29,251,517582
-129,-1,43,-13,-36,-39,-259,-144,166,-128,-280,-187,47,-268,-98,-115,-41,-6,53,-150,-195,-130,-50,48,-250,375,65,-2,44,9,196,517583
-103,-10,61,-36,-22,-13,-291,-45,55,89,-193,-113,-2,9,-76,-54,16,38,106,-96,-143,-76,-3,91,-191,388,100,36,83,56,180,517584
-108,-19,53,-34,-6,-16,-286,52,-56,55,-192,-38,131,185,-19,-30,52,63,156,-66,-135,-63,33,115,-188,356,138,81,109,78,225,517585
-93,-12,37,-18,-13,-22,-221,-332,-50,-157,9,67,-20,184,4,-12,64,63,165,-42,-83,-40,35,119,-153,392,135,102,117,78,194,517586
-74,4,31,-12,-21,-27,-111,-176,-23,-219,77,-10,-22,104,-26,-7,33,31,94,-28,-27,-9,21,64,-101,473,80,52,71,27,101,517587
-45,13,47,-2,-4,-16,-61,-189,32,-228,68,29,17,88,-17,25,25,18,71,-7,21,10,38,43,-70,545,62,29,69,14,67,517588
-35,5,32,-15,-7,-21,-42,-122,23,18,58,29,90,130,-32,69,32,30,83,22,87,37,37,48,-10,639,59,31,72,30,49,517589
-68,5,27,-19,-2,-9,-87,-70,-18,-83,154,-45,159,110,-49,32,18,44,82,-31,8,-4,-5,53,-80,548,82,23,55,30,121,517590
-39,10,34,-22,5,0,-108,-140,-25,-147,105,8,81,109,-45,4,11,35,44,-60,-23,-36,-17,31,-108,550,62,10,22,16,76,517591
-53,10,51,-15,7,-10,-154,-202,56,-57,54,11,62,134,41,-16,14,34,36,-88,-84,-48,-23,38,-147,508,61,12,29,20,102,517592
-118,4,38,-1,-18,-30,-175,-134,47,-23,-157,60,-31,167,-6,-40,48,79,115,-125,-240,-67,20,127,-221,310,134,71,101,100,235,517593
-84,20,40,39,-13,-12,-65,14,3,-7,-6,-18,-19,156,-69,-16,50,76,128,-93,-202,-48,43,129,-158,391,133,92,119,123,179,517594
-86,7,43,37,-9,-5,-70,96,-14,-36,-42,9,-86,16,41,-44,42,48,104,-122,-235,-74,32,108,-190,351,115,71,101,87,123,517595
-83,-11,40,36,2,4,-73,175,-14,-227,109,7,41,-76,27,-41,37,34,89,-110,-229,-57,27,91,-168,345,115,59,102,81,121,517596
-141,-12,68,33,5,1,-171,53,74,-28,87,-150,238,-2,-19,-123,52,52,149,-160,-388,-105,50,143,-288,64,159,100,141,114,269,517597
-178,-7,83,26,3,14,-217,-32,150,-89,-39,-120,86,-29,-20,-171,76,71,204,-189,-515,-128,81,201,-367,-194,199,134,185,155,373,517598
-229,-37,83,16,-10,12,-244,-264,195,-223,106,-38,162,-16,-34,-207,108,100,245,-222,-657,-146,106,241,-460,-447,240,164,219,185,457,517599
-184,-41,52,13,-10,-3,-192,-153,67,-131,116,-20,12,31,-49,-167,89,79,210,-168,-554,-118,101,191,-377,-358,192,120,194,144,294,517600
-58,-20,15,23,12,8,-126,70,70,-54,-191,3,-12,-57,-22,-47,47,27,114,-44,-213,-45,84,75,-150,82,81,57,109,54,63,517601
-38,-22,10,19,32,16,-193,85,40,-113,-296,-93,83,-193,38,-51,29,5,82,-45,-193,-48,52,53,-145,109,63,48,80,37,17,517602
-20,-14,9,2,8,10,-119,136,170,80,-81,-9,138,-43,-6,37,59,46,110,37,-57,35,79,81,-32,295,78,85,100,61,-5,517603
-40,6,12,-4,-15,-6,-165,37,111,92,21,104,-33,133,38,37,70,59,132,42,-50,42,89,90,-35,277,89,81,108,72,79,517604
-50,-5,14,-19,-9,-5,-302,1,47,105,180,-6,-114,-57,29,-17,23,3,76,-13,-98,-3,48,33,-89,245,49,26,61,29,20,517605
-32,-21,45,-31,24,29,-286,198,44,21,15,21,-272,-93,26,-29,-1,-16,38,-41,-109,-22,12,15,-103,240,29,6,48,9,34,517606
-180,-60,75,-14,-3,23,-267,-26,211,9,-31,-100,-184,-348,15,-219,11,11,114,-225,-543,-141,3,126,-406,-386,130,63,112,51,311,517607
-318,-66,116,43,-16,7,-342,-175,165,98,-82,-146,-23,-473,-112,-403,47,66,250,-384,-1040,-255,33,272,-720,-1130,257,158,241,152,595,517608
-514,-77,161,94,-24,-4,-556,-364,98,112,-495,-252,-21,-393,-83,-636,88,145,449,-608,-1718,-419,68,461,-1162,-2155,423,289,398,283,1054,517609
-376,-54,115,131,5,1,-340,-226,104,185,-146,-181,76,-274,71,-486,92,129,433,-428,-1464,-299,79,420,-886,-1860,382,277,401,285,663,517610
45,-3,-8,99,49,35,210,-163,19,146,302,155,-20,-135,128,-16,8,-14,76,63,-220,33,36,37,33,-83,37,56,125,59,-192,517611
75,6,-23,66,44,30,214,-289,53,18,270,208,-111,-101,46,62,24,-10,21,99,-17,80,47,-2,132,222,23,42,68,17,-157,517612
32,-2,-5,46,39,32,96,-122,-24,16,-182,79,-115,-86,67,14,42,12,70,48,-99,50,70,63,57,113,71,86,101,40,-37,517613
1,-8,2,23,24,32,0,-13,-38,4,-184,-17,40,11,29,-31,45,19,80,18,-150,22,77,72,20,43,72,105,111,33,97,517614
-28,-20,0,18,13,15,-55,-8,-39,21,18,-92,-60,249,4,-79,18,9,61,-31,-218,-19,43,57,-57,-51,34,85,87,12,98,517615
-75,-11,16,48,10,15,-41,95,84,88,-70,-47,-146,165,-38,-107,53,48,140,-63,-334,-17,77,117,-153,-232,92,129,135,62,175,517616
-408,-59,86,70,-46,-32,-393,-85,118,-17,-250,-186,45,-46,-145,-479,110,131,391,-435,-1287,-289,129,373,-860,-1623,348,262,297,229,791,517617
-626,-86,134,102,-62,-47,-650,-374,155,50,-263,-293,162,-169,-107,-743,144,181,597,-666,-2017,-483,174,559,-1336,-2758,524,363,450,360,1131,517618
-639,-111,121,115,-58,-32,-646,-252,204,-1,-332,-211,257,-155,-68,-754,169,185,654,-648,-2144,-492,201,593,-1363,-3039,549,397,515,409,1110,517619
-437,-96,91,118,-14,5,-404,-80,254,-22,30,-81,110,-77,-116,-566,149,132,541,-439,-1707,-344,193,452,-1009,-2489,415,333,434,333,688,517620
76,-25,-21,69,53,60,207,210,48,60,267,146,3,97,114,-49,19,-61,99,60,-298,3,83,-16,6,-462,-15,54,90,26,-265,517621
139,-23,-36,24,54,63,241,211,-42,56,113,215,-67,185,162,38,-5,-72,-6,106,-5,47,57,-89,168,26,-80,4,-9,-53,-308,517622
81,-38,-49,2,31,36,189,103,-28,47,236,179,-124,124,95,3,-5,-46,7,59,-33,42,54,-60,130,-5,-59,26,13,-37,-243,517623
81,-25,-59,7,23,25,256,262,46,-118,96,93,143,31,35,15,5,-41,-21,59,20,38,53,-53,170,106,-72,27,9,-38,-228,517624
77,-2,-51,40,26,34,302,160,55,-70,-124,135,113,-55,7,-6,-15,-52,-75,37,23,-4,26,-81,144,140,-100,-29,-41,-59,-193,517625
40,-2,-48,36,21,14,198,116,-35,-51,-219,9,147,-65,-10,-53,-49,-52,-95,-4,-54,-47,-26,-76,68,54,-85,-43,-48,-58,-167,517626
-313,-41,47,51,-22,-45,-331,-204,170,261,-291,-162,68,-249,-29,-400,58,94,240,-360,-1035,-279,50,279,-654,-1388,259,184,212,167,635,517627
-565,-94,95,61,-66,-88,-645,-248,200,318,-168,-183,67,-230,-78,-622,169,211,535,-543,-1778,-387,143,553,-1124,-2554,518,360,450,371,1061,517628
-635,-110,132,89,-52,-56,-725,-505,166,278,-175,-15,223,-43,-78,-692,255,302,699,-586,-2112,-417,237,686,-1285,-3146,636,485,600,490,1260,517629
-431,-78,95,108,1,7,-441,-237,123,104,-231,105,160,-37,78,-500,228,234,600,-348,-1675,-242,260,550,-885,-2622,504,431,548,429,766,517630
61,-25,-41,64,55,53,165,104,14,60,221,119,75,168,142,-28,41,-19,87,137,-294,86,105,26,96,-641,36,64,142,68,-273,517631
131,-19,-67,28,40,32,220,359,0,-7,112,136,-82,149,65,63,-8,-68,-44,210,53,140,52,-75,278,-146,-57,-19,12,-48,-286,517632
96,-25,-63,1,20,18,152,203,-22,-160,141,178,-128,229,25,29,-14,-54,-41,174,65,103,32,-64,237,-121,-69,-8,5,-71,-239,517633
105,-10,-60,15,36,38,155,122,-45,-74,105,84,14,259,5,27,-28,-67,-52,156,110,84,22,-94,230,-57,-100,-40,-41,-102,-276,517634
88,8,-29,26,51,50,108,-38,26,34,114,90,-66,297,21,27,-2,-38,-16,139,71,84,37,-45,174,-137,-57,0,-8,-79,-139,517635
-7,-10,-5,16,28,37,6,-183,68,231,15,45,-70,160,58,-60,35,12,80,31,-182,12,77,51,-23,-492,35,77,46,-24,157,517636
-830,-123,186,62,-98,-44,-970,-733,319,197,-636,-280,66,-319,-107,-926,224,284,759,-852,-2439,-595,249,759,-1685,-3781,703,509,547,423,1824,517637
-1556,-216,361,178,-140,-94,-1818,-1123,550,220,-975,-634,279,-540,-258,-1732,468,567,1537,-1577,-4770,-1117,494,1515,-3221,-7347,1385,1008,1186,983,3011,517638
-1476,-209,323,238,-88,-56,-1679,-731,491,259,-777,-472,130,-295,-235,-1717,510,554,1644,-1458,-4941,-1064,603,1542,-3137,-7829,1403,1081,1311,1068,2664,517639
-814,-146,132,250,15,20,-825,-185,374,327,-224,-180,222,43,-2,-1066,387,312,1159,-749,-3351,-580,526,1001,-1830,-5675,888,786,993,760,1202,517640
303,-31,-173,146,137,114,563,359,-112,239,376,341,-188,423,166,83,32,-130,44,362,-194,205,200,-96,423,-1047,-139,73,148,14,-817,517641
385,-9,-179,63,103,98,611,244,-238,201,285,326,-309,362,210,214,-37,-155,-192,395,350,244,96,-252,649,-127,-270,-63,-84,-148,-698,517642
286,-5,-133,38,84,80,431,330,-193,70,178,238,-223,356,203,136,-31,-124,-173,282,244,167,71,-208,475,-185,-206,-62,-107,-130,-562,517643
192,-7,-120,41,59,48,328,265,-119,83,94,203,-163,200,160,58,-37,-99,-153,176,91,91,48,-147,335,-321,-154,-46,-87,-109,-398,517644
165,-10,-101,44,46,38,325,97,5,-106,93,148,-100,226,96,55,-27,-66,-135,168,88,87,27,-93,334,-284,-110,-18,-49,-65,-305,517645
72,-32,-83,21,30,22,200,73,-48,-12,-58,161,41,292,36,-15,-4,-30,-59,84,-106,53,46,-16,185,-526,-30,27,6,-4,-52,517646
-383,-55,60,53,-18,4,-379,-195,11,61,-93,-77,28,-32,-57,-489,126,136,358,-385,-1364,-267,163,412,-749,-2377,355,292,308,266,877,517647
-740,-106,110,66,-69,-32,-821,-512,125,71,-529,-325,-23,-110,-143,-876,216,231,717,-729,-2468,-522,246,737,-1506,-4078,659,496,581,493,1374,517648
-820,-135,154,114,-43,1,-990,-363,226,-15,-629,-247,-50,-189,-155,-1014,284,280,889,-825,-2938,-621,341,863,-1778,-4896,796,598,711,595,1561,517649
-482,-106,68,134,13,34,-532,-126,108,113,-480,43,-66,-104,-26,-674,270,196,712,-416,-2140,-346,386,625,-1111,-3912,558,496,595,475,845,517650
217,-34,-153,84,65,62,396,407,-93,212,-17,310,-118,338,136,76,44,-89,21,334,-67,181,181,-84,376,-941,-103,52,70,1,-566,517651
244,-9,-162,56,56,51,397,405,-94,-68,199,197,-82,290,110,108,-29,-124,-150,321,205,172,75,-191,467,-507,-198,-61,-87,-140,-561,517652
203,-6,-143,18,40,34,280,251,-52,-45,151,109,4,338,96,77,-56,-122,-198,279,226,143,33,-210,413,-448,-211,-99,-131,-178,-488,517653
155,-24,-104,-13,34,39,166,107,19,15,94,284,-24,250,109,64,-26,-60,-128,249,122,145,33,-113,320,-585,-130,-44,-78,-115,-277,517654
151,-16,-77,7,39,51,234,41,-41,157,202,245,-69,125,86,50,-28,-56,-127,227,115,129,23,-92,282,-613,-107,-52,-74,-109,-251,517655
109,-3,-73,22,26,21,241,90,-4,139,96,74,-5,56,33,0,-53,-68,-145,153,22,67,1,-101,177,-716,-120,-79,-109,-125,-136,517656
-523,-73,96,62,-56,-32,-532,-337,249,90,-476,-237,24,-196,-69,-643,146,180,413,-508,-1702,-382,170,480,-1121,-3196,436,287,297,242,1280,517657
-1123,-153,240,133,-107,-74,-1260,-690,361,71,-885,-412,56,-364,-213,-1276,380,443,1127,-1088,-3571,-787,421,1136,-2350,-6042,1032,755,853,733,2272,517658
-1016,-149,206,186,-45,-34,-1124,-443,309,11,-596,-400,9,-316,-166,-1203,390,405,1176,-960,-3548,-696,466,1124,-2175,-6198,1017,790,950,789,1831,517659
-467,-85,69,187,42,35,-438,-298,102,86,-75,-30,15,112,60,-657,268,199,749,-375,-2193,-285,364,681,-1080,-4330,590,550,673,534,653,517660
260,-20,-136,97,114,86,476,9,-118,48,547,336,-121,479,176,84,19,-110,-11,347,-78,217,134,-91,406,-1193,-126,54,71,-5,-704,517661
273,-28,-148,26,67,62,492,187,-119,138,245,339,-299,453,64,107,-57,-166,-203,304,220,188,28,-230,493,-642,-262,-90,-131,-168,-688,517662
196,-30,-108,22,56,52,394,247,-136,-56,195,296,-192,289,88,28,-53,-136,-191,191,93,117,11,-188,338,-739,-207,-84,-139,-152,-486,517663
185,-6,-103,35,54,41,389,244,-146,-29,374,217,-140,157,106,52,-41,-100,-208,192,135,143,12,-179,342,-630,-193,-77,-132,-121,-432,517664
171,11,-109,23,33,22,339,15,-98,-138,332,155,-108,81,45,76,-33,-78,-200,201,185,165,19,-154,359,-540,-190,-66,-124,-107,-365,517665
121,0,-89,4,25,11,182,125,-30,-61,122,127,-93,88,13,38,-25,-56,-148,161,103,124,37,-112,268,-626,-143,-53,-101,-76,-203,517666
-63,-38,-28,-5,5,4,-119,-21,51,-99,-95,35,-148,42,-2,-146,33,18,31,-41,-399,-27,82,74,-103,-1323,32,51,30,49,177,517667
-230,-47,36,66,1,24,-230,-171,86,67,-152,-26,4,-11,138,-354,113,106,250,-236,-1000,-155,152,278,-517,-2248,223,183,178,186,529,517668
-268,-43,31,97,-1,29,-200,-51,166,-89,-39,-34,76,-237,81,-423,115,82,292,-277,-1176,-199,159,299,-607,-2554,260,200,205,202,463,517669
-137,-41,-17,72,19,18,-51,27,146,69,119,14,-128,-67,47,-284,72,16,199,-113,-820,-117,128,189,-306,-2112,153,154,157,121,78,517670
166,-20,-105,36,49,39,333,273,-42,61,325,151,-304,118,56,48,-36,-100,-117,218,77,107,17,-105,322,-820,-131,-48,-61,-88,-449,517671
182,-13,-111,14,32,48,372,176,-102,91,180,107,-292,136,67,70,-65,-112,-197,228,220,119,-17,-169,354,-597,-205,-93,-136,-143,-415,517672
182,-9,-104,11,31,32,357,148,-180,110,346,114,-16,91,31,52,-85,-135,-243,210,250,88,-61,-215,331,-533,-235,-122,-184,-176,-401,517673
140,-19,-110,-15,18,-4,246,195,-159,7,174,95,-89,186,68,44,-111,-148,-246,180,214,64,-103,-203,296,-559,-217,-134,-185,-183,-439,517674
165,-11,-94,-31,23,20,201,300,-51,-3,-60,128,-55,16,32,96,-113,-134,-247,218,300,93,-110,-196,342,-421,-207,-147,-188,-174,-388,517675
173,2,-64,-38,32,41,141,82,-92,-24,10,69,-159,61,-35,110,-73,-93,-225,222,319,99,-66,-168,343,-381,-180,-133,-176,-155,-337,517676
-42,-22,-6,-28,-4,31,-145,-85,20,-2,-145,27,-89,68,-32,-80,17,21,-2,18,-242,-17,16,66,-44,-1172,32,25,10,9,139,517677
-226,-43,22,-9,-27,-3,-362,-135,104,87,-200,-116,97,32,-46,-239,85,98,183,-151,-750,-103,63,256,-362,-1937,208,162,183,146,417,517678
-162,-41,-5,2,-12,-21,-257,-103,36,33,-194,-36,-29,-3,-43,-221,59,63,155,-105,-649,-79,61,189,-259,-1811,156,134,162,105,235,517679
13,-22,-53,26,16,3,29,121,-195,-22,-270,142,17,49,33,-86,2,-2,14,38,-223,14,19,17,30,-1168,4,37,18,-14,-80,517680
131,-2,-87,25,19,10,251,211,-162,-134,206,121,-28,191,20,57,-32,-48,-110,159,169,106,-22,-109,279,-561,-105,-41,-91,-73,-352,517681
118,-1,-74,20,9,0,240,215,-61,-60,229,137,-130,206,-22,63,-28,-54,-127,148,195,108,-28,-96,267,-485,-104,-39,-98,-69,-214,517682
129,14,-50,32,44,45,199,202,-79,52,34,40,-178,-29,-37,27,-50,-70,-157,99,153,71,-67,-102,209,-524,-114,-67,-115,-91,-217,517683
138,5,-41,30,45,58,249,188,13,-32,191,-8,21,-35,12,21,-58,-69,-156,94,169,74,-87,-107,207,-495,-115,-78,-118,-95,-112,517684
122,9,-46,32,32,43,326,150,-65,20,208,99,-32,42,9,19,-59,-62,-128,92,163,81,-85,-84,212,-492,-97,-49,-96,-82,-142,517685
122,22,-60,51,23,34,320,61,-2,157,159,54,111,-32,0,5,-71,-96,-131,74,153,63,-81,-100,213,-454,-119,-67,-125,-109,-234,517686
180,33,-70,25,30,43,280,334,12,-78,-131,117,164,219,0,107,-74,-98,-193,170,371,114,-52,-163,354,-125,-170,-125,-174,-141,-277,517687
196,31,-75,-13,28,45,212,257,77,-303,-9,153,-3,278,51,181,-30,-56,-189,227,521,162,-19,-151,464,87,-154,-98,-153,-115,-303,517688
297,42,-102,-39,29,25,328,229,-44,-236,365,168,2,125,50,309,-37,-86,-278,347,858,232,-4,-235,701,610,-230,-155,-214,-164,-536,517689
263,24,-108,-63,2,3,271,231,-77,-141,190,97,-149,123,-19,267,-65,-104,-297,304,835,185,-35,-273,607,626,-258,-196,-267,-191,-485,517690
74,-7,-55,-61,-14,-8,18,286,-89,-261,19,-88,-166,-89,-31,53,-32,-38,-137,79,286,19,-20,-124,164,-142,-122,-109,-187,-106,-74,517691
56,-5,-22,-42,-4,2,21,130,-111,78,74,-80,5,-47,-18,24,-33,-13,-110,60,152,-15,-29,-90,73,-318,-87,-87,-134,-75,-79,517692
67,11,-32,-24,-10,1,79,-42,29,59,97,-88,107,-37,24,69,-25,-19,-125,105,182,15,-39,-91,112,-277,-87,-87,-120,-63,-128,517693
46,13,-42,-24,-16,-17,79,-113,10,31,-109,18,-55,-27,66,86,-4,4,-96,119,181,43,-22,-53,127,-294,-54,-66,-85,-27,-80,517694
22,-3,-44,-51,-38,-42,42,-79,-1,-59,-150,94,-133,-38,44,94,18,16,-64,134,165,58,-7,-31,139,-296,-23,-31,-52,3,-26,517695
63,-11,-52,-70,-32,-31,75,24,-91,-121,-275,191,-73,36,14,126,-8,-12,-105,176,276,93,-48,-62,235,-120,-50,-56,-75,-14,-177,517696
539,59,-158,-74,44,26,673,445,-243,-13,282,322,-205,322,133,598,-140,-185,-510,641,1570,422,-169,-485,1182,1783,-449,-326,-386,-299,-1193,517697
999,132,-236,-98,115,94,1188,656,-316,-76,594,487,-191,424,153,1033,-301,-371,-998,1024,2905,690,-333,-954,2045,3860,-872,-646,-788,-646,-1901,517698
993,130,-236,-158,84,77,1130,639,-350,-54,374,303,-236,253,111,1061,-359,-408,-1128,970,3140,664,-406,-1049,2038,4364,-959,-765,-935,-744,-1758,517699
612,101,-151,-184,-10,-7,652,256,-187,-133,28,144,-217,119,67,775,-243,-233,-838,627,2369,460,-289,-723,1386,3347,-651,-569,-715,-534,-914,517700
-140,22,24,-128,-112,-108,-248,-283,72,-172,-290,-95,-65,-15,-53,75,31,117,-76,-52,369,15,-22,45,-35,450,44,-47,-123,-12,427,517701
-223,8,44,-77,-96,-88,-327,-109,124,-62,-252,-93,16,100,-89,-31,105,163,114,-102,-40,-23,53,184,-241,-230,198,65,55,132,482,517702
-168,18,43,-40,-66,-52,-257,-125,38,-108,-433,-149,-6,-50,-114,-11,121,163,143,-73,-60,2,61,184,-208,-331,186,80,86,143,475,517703
-97,11,37,-21,-34,-31,-193,-253,-114,-95,-121,-182,-180,-199,-100,-22,59,86,80,-62,-25,-17,17,90,-171,-318,95,14,16,64,312,517704
-54,17,65,-3,4,11,-167,-201,-25,118,-153,-168,-98,-292,-27,-60,4,27,27,-97,-50,-69,-36,17,-180,-344,27,-34,-42,2,172,517705
6,13,45,-1,0,30,-87,-146,94,68,-202,-138,-89,-228,-2,-21,-32,-20,-42,-54,71,-45,-52,-62,-78,-177,-58,-67,-93,-62,23,517706
387,44,-93,-54,31,48,456,35,-108,-68,232,145,-126,75,88,443,-119,-156,-369,418,1262,294,-126,-410,822,1555,-382,-264,-323,-277,-910,517707
738,97,-169,-113,62,65,858,606,-305,-126,630,358,-140,260,124,833,-237,-312,-761,769,2395,537,-251,-774,1572,3315,-726,-510,-627,-530,-1527,517708
775,104,-184,-159,40,35,917,510,-211,-23,576,278,-147,273,107,912,-298,-340,-891,805,2708,571,-338,-849,1701,3911,-792,-591,-740,-593,-1643,517709
500,77,-109,-158,-1,2,484,208,-136,-7,305,32,-80,138,-18,608,-283,-261,-752,453,1999,323,-379,-652,1109,3025,-601,-510,-635,-496,-877,517710
-87,16,87,-80,-32,-6,-384,-148,129,-48,-415,-217,60,-317,-207,-77,-126,-42,-202,-232,148,-160,-253,-75,-221,391,-82,-162,-207,-128,317,517711
-119,-4,83,-51,-42,-11,-342,16,98,-84,-329,-134,121,-261,-61,-88,-41,28,-36,-214,-104,-150,-146,49,-297,-22,38,-49,-44,17,325,517712
-69,19,70,-9,-22,-10,-161,103,94,44,-237,-129,53,-232,26,1,14,68,30,-115,-14,-70,-79,77,-175,54,78,3,12,64,274,517713
-102,2,51,-29,-46,-45,-220,-117,94,27,-159,-151,69,-84,-44,-34,9,45,21,-139,-79,-104,-73,51,-219,-57,51,-6,0,43,242,517714
-129,-13,44,-44,-57,-49,-309,19,33,-75,101,-189,43,-57,-71,-101,9,41,38,-166,-173,-130,-53,51,-262,-204,62,-4,5,47,236,517715
-41,-14,17,-45,-38,-31,-203,179,-10,78,170,-114,-4,-185,-18,-12,-3,7,-1,-53,66,-44,-51,-20,-75,111,-1,-34,-27,10,70,517716
778,85,-165,-83,87,62,800,537,-305,18,741,271,-77,240,179,823,-201,-271,-663,789,2253,535,-213,-712,1539,3294,-657,-461,-518,-429,-1657,517717
1481,182,-341,-170,150,101,1706,873,-486,-163,947,560,-157,577,306,1597,-466,-572,-1465,1468,4500,1024,-484,-1477,3006,6764,-1361,-979,-1169,-993,-2897,517718
1333,197,-300,-200,84,51,1552,601,-330,-148,501,466,-148,373,273,1528,-502,-532,-1531,1292,4485,934,-585,-1451,2793,6986,-1338,-1018,-1261,-1025,-2436,517719
666,137,-111,-208,-22,-20,632,97,-248,-80,199,133,-86,-108,54,859,-361,-279,-1075,561,2830,437,-509,-909,1483,4728,-824,-729,-925,-704,-1040,517720
-236,29,167,-136,-105,-60,-576,-285,80,85,-274,-299,148,-392,-115,-82,-38,108,-116,-339,178,-180,-226,44,-370,836,71,-112,-169,-45,801,517721
-248,32,187,-41,-70,-39,-532,-381,259,-57,-167,-372,192,-505,-120,-136,44,161,134,-306,-192,-158,-114,203,-488,184,217,35,54,118,687,517722
-185,19,129,-11,-53,-40,-346,-313,244,91,-22,-291,91,-349,-98,-103,9,91,109,-235,-154,-140,-96,141,-399,191,138,9,45,78,465,517723
-162,1,89,-24,-55,-49,-267,-137,114,72,-226,-221,232,-56,-121,-65,13,59,108,-182,-103,-106,-56,110,-338,217,116,21,46,70,334,517724
-159,12,75,-21,-52,-47,-224,55,123,200,-146,-62,64,-202,-54,-39,41,62,124,-156,-101,-82,-12,113,-316,168,123,38,67,83,255,517725
-98,30,66,-6,-41,-33,-123,-24,41,-8,57,13,35,-63,13,-5,42,49,92,-109,-1,-71,-17,72,-212,289,81,26,52,51,114,517726
303,65,-37,-16,18,1,329,159,-44,13,-53,160,8,112,59,384,-51,-70,-228,292,1027,208,-97,-263,565,1776,-237,-169,-181,-156,-607,517727
561,86,-101,-62,37,21,570,288,-125,95,243,153,87,-77,55,665,-163,-177,-543,540,1876,378,-201,-553,1119,3086,-507,-363,-440,-370,-1040,517728
678,108,-137,-103,31,1,706,250,-266,63,564,254,76,87,114,815,-223,-223,-717,653,2357,485,-279,-708,1390,3888,-646,-484,-583,-498,-1252,517729
406,86,-80,-132,-25,-43,399,180,-274,-19,341,59,118,79,56,583,-175,-115,-588,357,1768,316,-283,-524,877,3160,-460,-396,-499,-394,-648,517730
-301,17,126,-81,-100,-88,-418,-369,40,59,-154,-249,253,-141,-77,-114,79,181,110,-338,-195,-156,-63,200,-509,303,224,81,62,101,800,517731
-328,-4,136,-47,-75,-77,-454,-306,39,-102,-340,-246,163,-210,-112,-196,97,167,240,-372,-491,-182,0,273,-606,-168,288,138,179,183,719,517732
-287,-5,136,-14,-43,-45,-405,-261,40,-217,-294,-159,78,-319,-107,-212,88,145,249,-367,-565,-191,16,262,-608,-324,267,143,191,178,654,517733
-222,10,112,22,-21,-31,-281,-123,51,-157,-187,-185,157,-294,-140,-204,65,81,200,-347,-496,-202,23,177,-548,-270,189,104,132,124,456,517734
-213,3,91,30,-24,-37,-257,-42,77,-161,-208,-214,222,-150,-125,-202,59,68,177,-346,-516,-209,23,153,-552,-310,166,95,120,110,336,517735
-148,15,79,44,-3,-17,-171,-147,74,-52,-74,-167,186,-18,-51,-128,54,69,166,-273,-393,-152,36,114,-442,-148,123,90,122,94,209,517736
362,66,-94,1,38,-5,456,280,-193,-19,283,131,1,25,59,414,-117,-144,-303,297,1064,239,-109,-380,654,1952,-352,-214,-223,-223,-930,517737
809,119,-202,-78,60,14,909,432,-335,-101,513,341,-257,244,142,915,-282,-334,-832,754,2507,553,-283,-860,1610,4153,-795,-545,-634,-582,-1657,517738
620,97,-118,-113,28,11,514,216,-234,-97,273,198,-97,173,137,733,-239,-249,-744,527,2137,401,-288,-710,1248,3739,-654,-470,-595,-531,-1131,517739
211,59,37,-100,0,9,-63,36,83,85,55,-224,-49,-218,7,305,-123,-78,-363,85,1015,101,-210,-317,398,2150,-283,-242,-333,-280,-222,517740
-213,8,167,-51,-38,-16,-460,-180,253,113,-329,-355,114,-406,-86,-154,0,91,74,-343,-270,-217,-94,128,-496,229,135,21,17,27,573,517741
-254,-3,139,-16,-35,-35,-344,-274,140,-72,-54,-226,104,-291,1,-219,-8,74,138,-364,-485,-244,-73,142,-584,-146,164,43,73,66,518,517742
-220,-7,89,-12,-48,-51,-257,-283,65,-95,-37,-183,9,40,-10,-192,-26,32,96,-296,-406,-200,-68,85,-476,-87,101,17,54,35,338,517743
-230,3,105,-3,-41,-40,-268,-349,149,-10,-250,-104,21,-128,-47,-179,35,77,189,-269,-466,-176,10,156,-481,-231,162,83,128,80,412,517744
-260,-19,102,-13,-37,-59,-295,-104,96,62,-145,-135,78,-61,-109,-209,56,89,246,-297,-598,-205,25,197,-555,-461,211,132,167,111,552,517745
-267,-25,75,-4,-45,-63,-263,-474,-31,84,28,-163,117,-184,-66,-213,57,98,251,-293,-651,-197,19,213,-567,-583,228,159,191,136,471,517746
-143,-7,39,20,-11,-36,-140,-292,-92,141,66,-193,-8,-82,-121,-127,13,35,159,-194,-407,-132,-22,112,-373,-262,123,112,133,63,111,517747
1,1,12,22,13,-24,-41,-31,-32,-19,-133,-129,-26,-52,-125,-15,-39,-41,5,-80,-53,-69,-88,-30,-118,256,-23,15,27,-37,-99,517748
6,9,36,25,13,-9,-28,37,-27,51,-85,-68,44,99,-65,7,-10,-1,23,-68,-11,-33,-53,0,-108,281,-21,44,46,-9,113,517749
-75,14,71,40,7,8,-69,-197,79,-29,-32,-144,-4,-37,-98,-60,53,67,135,-132,-213,-46,12,107,-244,-6,81,124,141,91,340,517750
-123,14,78,32,-5,-6,-84,-150,72,40,-37,-102,20,-195,16,-67,80,100,178,-143,-291,-47,47,156,-275,-136,145,157,199,135,278,517751
-129,-1,61,19,-11,-18,-161,-118,-17,41,-67,-69,53,-114,-8,-80,46,69,168,-158,-309,-76,26,126,-276,-140,134,120,155,114,188,517752
-164,-26,65,-8,-12,-7,-267,-155,57,15,-286,-51,-216,-30,-25,-116,59,90,203,-199,-412,-93,61,171,-357,-298,176,137,172,132,296,517753
-91,-20,53,-1,12,22,-158,-187,128,-68,-326,-97,-63,-287,1,-59,74,86,191,-137,-295,-44,99,145,-276,-141,149,130,161,110,231,517754
-88,-5,62,37,24,25,-89,-177,31,6,-167,-106,18,-191,-34,-67,85,98,187,-151,-316,-66,112,133,-297,-181,157,122,151,99,206,517755
-109,-1,58,58,17,10,-60,-20,197,-33,-38,-113,118,-38,-41,-119,45,48,147,-202,-401,-114,68,94,-363,-288,124,78,118,74,199,517756
-363,-30,120,89,-8,-10,-332,-185,260,-22,-169,-241,153,-162,-139,-420,66,104,337,-488,-1148,-330,84,295,-917,-1401,309,196,249,184,740,517757
-581,-56,172,118,-27,-22,-545,-409,210,89,-276,-269,130,-310,-151,-650,166,210,627,-651,-1851,-450,198,559,-1366,-2529,541,399,489,396,1181,517758
-495,-60,129,116,-16,-18,-419,-335,118,170,-95,-171,72,-260,-123,-558,181,204,616,-509,-1705,-349,214,528,-1178,-2435,494,402,501,393,957,517759
-267,-39,73,112,33,19,-157,-206,118,119,121,-27,85,-194,-33,-357,123,108,423,-286,-1147,-196,151,335,-719,-1705,312,285,374,266,434,517760
11,-10,-5,88,73,59,80,25,-29,37,4,53,131,-93,38,-126,-10,-41,80,-49,-384,-56,17,14,-192,-603,20,48,114,18,-167,517761
0,-16,-6,41,51,39,-36,-106,-25,162,-206,-7,100,116,-5,-135,-48,-56,29,-84,-347,-98,-12,-25,-209,-534,-7,3,44,-33,-146,517762
-40,-38,-15,15,13,-8,-67,-124,47,66,27,79,69,29,49,-110,-5,-16,102,-63,-342,-75,51,28,-181,-545,42,76,97,20,-14,517763
-45,-27,-10,24,14,-8,-73,89,36,154,-129,61,-20,45,15,-66,35,24,140,-25,-275,-33,79,77,-106,-478,76,111,137,56,3,517764
13,-8,-15,32,23,2,-14,114,9,-75,-130,0,23,245,23,9,66,48,101,62,-98,37,95,61,23,-243,62,100,121,59,-19,517765
20,-10,-10,15,24,3,-2,30,-63,-109,-2,49,-48,326,35,31,60,53,62,78,-53,61,71,37,35,-172,60,71,105,58,-70,517766
-108,-33,23,16,-2,-22,-129,-49,-52,88,57,11,-54,143,-39,-130,53,54,120,-93,-406,-77,41,105,-242,-643,121,92,128,84,213,517767
-189,-40,24,29,-17,-38,-177,-249,-140,236,-15,-20,-99,1,-6,-220,79,80,217,-187,-638,-139,91,169,-424,-1011,188,144,183,129,263,517768
-249,-58,36,29,-12,-32,-264,-173,-2,105,-173,-126,-84,-80,-47,-299,73,85,266,-266,-842,-192,117,207,-561,-1337,214,161,202,136,325,517769
-178,-38,42,59,16,6,-158,-81,88,-33,-110,-53,123,-57,1,-239,71,69,229,-201,-720,-143,129,180,-445,-1193,186,152,183,121,256,517770
67,-9,-43,46,33,14,194,28,-30,62,56,110,36,215,96,50,18,-14,0,90,33,77,70,-35,99,-99,-12,27,37,2,-279,517771
39,12,-34,50,35,14,133,48,-31,12,34,109,-20,328,39,19,29,-4,10,41,31,56,50,-3,42,-82,1,35,29,6,-136,517772
27,-11,-34,19,20,4,71,92,-115,56,75,123,14,243,7,-17,-9,-33,-23,-2,21,19,16,-46,24,-38,-42,2,-16,-34,-124,517773
51,-8,-20,23,29,26,86,227,-108,38,218,162,-111,207,16,-3,-20,-35,-28,15,57,36,2,-54,58,41,-45,1,-10,-16,-133,517774
70,-1,-22,32,40,47,111,39,-86,-38,82,64,-21,198,12,23,-15,-28,-24,27,111,54,9,-46,95,112,-49,-3,3,5,-100,517775
6,-16,-11,18,19,16,34,-15,-90,-191,-69,-31,-54,144,73,-19,3,0,12,-25,-34,19,24,2,-8,-87,2,26,35,29,14,517776
-389,-66,83,35,-44,-30,-468,-249,118,-119,-237,-179,127,-32,-32,-423,106,128,324,-417,-1083,-254,103,347,-774,-1619,332,234,280,250,842,517777
-766,-113,166,69,-81,-71,-934,-273,134,-19,-420,-331,29,-159,-126,-809,248,290,748,-746,-2245,-472,249,754,-1491,-3418,717,519,634,548,1394,517778
-620,-96,122,88,-44,-37,-725,-364,85,-154,-204,-115,115,5,-114,-664,250,259,710,-552,-2019,-355,267,678,-1204,-3239,653,511,641,537,1018,517779
-317,-69,43,100,15,13,-264,-85,102,-148,-67,13,52,209,37,-354,171,136,492,-220,-1261,-152,200,422,-617,-2209,405,355,465,364,383,517780
85,-13,-62,85,57,46,259,160,-21,-65,56,186,-2,220,104,37,16,-45,76,173,-119,92,78,2,185,-556,15,85,135,76,-358,517781
133,7,-73,47,51,35,267,95,-158,-148,121,168,59,-66,116,110,-17,-70,-42,213,176,107,50,-86,332,-102,-86,20,25,-2,-332,517782
108,3,-62,1,39,21,145,65,-126,64,130,48,101,161,-6,75,-31,-80,-68,166,174,53,34,-95,274,-53,-83,-12,-15,-25,-327,517783
100,-6,-55,-1,36,25,49,99,-40,37,11,67,93,226,90,59,-32,-72,-76,145,149,51,3,-80,231,-51,-64,-18,-30,-19,-329,517784
147,-15,-67,-5,30,18,58,81,-11,15,78,121,87,357,93,135,-10,-35,-67,216,283,135,32,-69,327,160,-61,-11,-14,-10,-305,517785
146,-13,-57,4,29,10,125,127,15,73,166,116,14,108,1,123,-2,-34,-84,209,282,129,39,-81,308,192,-88,-36,-33,-31,-217,517786
7,-13,-3,22,12,8,36,189,-9,32,288,-7,37,-64,-40,-51,24,-2,-6,18,-116,1,51,5,-25,-367,18,-1,7,6,128,517787
-167,-25,31,45,-5,-14,-110,-146,27,-68,-96,-26,-25,13,-81,-213,64,77,167,-141,-583,-117,102,166,-357,-1068,204,109,125,121,415,517788
-183,-21,44,72,12,1,-163,-190,95,-93,-319,-81,1,-24,-16,-243,77,91,235,-155,-723,-132,105,230,-419,-1296,253,154,187,176,400,517789
-65,-18,10,60,28,2,-18,-4,89,-118,-130,112,-86,48,9,-115,34,20,142,-26,-397,-38,83,120,-158,-853,145,84,135,122,62,517790
199,22,-71,31,40,7,349,83,-71,-30,325,212,-123,248,83,207,-15,-44,-79,284,452,201,41,-121,455,364,-85,-39,-39,-27,-469,517791
194,31,-72,22,34,5,329,-68,-8,-70,72,179,-111,227,67,217,-11,-35,-125,263,558,201,17,-134,484,548,-113,-60,-76,-48,-388,517792
190,28,-65,6,25,1,296,72,20,-91,350,46,-36,135,17,195,-51,-77,-188,226,613,176,-29,-186,486,684,-164,-116,-134,-89,-410,517793
124,23,-49,-8,10,-11,227,84,10,-15,314,76,-47,29,-23,143,-49,-63,-157,167,502,158,-43,-150,379,567,-125,-112,-114,-55,-248,517794
154,36,-40,0,23,2,269,116,15,100,-42,191,-175,98,67,190,-35,-42,-141,208,580,204,-41,-126,432,694,-103,-82,-100,-27,-240,517795
138,24,-46,-21,13,-4,231,63,-59,26,-16,121,-212,252,-3,190,-20,-8,-116,207,564,194,-26,-90,415,669,-67,-58,-75,-8,-197,517796
-142,-5,37,11,-18,-27,-84,-202,83,-45,-250,46,-56,67,-52,-79,87,125,142,-59,-183,-3,61,182,-123,-413,189,108,119,180,464,517797
-299,-31,64,29,-30,-29,-252,-164,122,-145,-189,-58,60,-104,-64,-263,146,164,336,-196,-694,-120,130,345,-431,-1197,335,212,263,299,667,517798
-216,-22,65,37,-8,1,-127,5,69,12,-270,-37,127,-114,-57,-202,138,121,320,-105,-568,-72,153,303,-292,-1074,296,201,267,282,475,517799
-59,-32,-5,23,5,-1,46,-75,24,-63,-306,13,13,7,-77,-66,56,17,158,55,-201,4,86,122,-11,-538,123,85,153,157,115,517800
248,4,-110,-2,31,13,339,243,-123,-184,-9,144,-158,19,-38,245,-75,-126,-178,346,651,199,-24,-200,582,766,-186,-125,-109,-64,-585,517801
272,3,-104,-39,35,19,277,171,-191,-29,138,159,58,25,56,311,-58,-99,-231,379,806,227,-25,-219,658,1056,-203,-129,-149,-87,-517,517802
249,30,-54,-20,39,33,224,333,-65,-79,188,155,153,-52,91,313,-13,-21,-175,351,770,200,-13,-155,615,1029,-125,-82,-108,-41,-383,517803
250,31,-39,-17,31,34,225,169,-57,-121,140,73,-114,-139,152,291,-61,-58,-245,320,793,153,-78,-208,605,1123,-167,-151,-167,-87,-429,517804
212,42,-37,-25,11,25,135,-182,-35,-171,10,64,-168,58,41,271,-55,-38,-208,301,753,156,-83,-167,562,1108,-120,-132,-149,-59,-332,517805
162,24,-37,-51,-1,-3,45,355,54,-152,-72,33,-74,126,-27,278,-18,0,-143,302,709,189,-33,-117,521,1040,-63,-92,-96,-4,-228,517806
-192,-31,60,-55,-42,-39,-335,16,129,-74,-126,-80,131,-50,-37,-60,98,150,187,-44,-225,-35,88,237,-171,-327,251,138,158,227,505,517807
-518,-55,153,21,-48,-36,-617,-439,283,45,-279,-240,216,-228,-140,-446,191,253,551,-404,-1304,-288,176,567,-874,-1952,543,357,437,454,1111,517808
-586,-70,158,48,-37,-27,-677,-311,335,94,-671,-259,145,-265,-101,-584,176,218,608,-493,-1679,-374,160,609,-1071,-2569,576,382,496,488,1172,517809
-284,-38,78,72,14,7,-322,-4,166,21,-305,-71,-9,-67,-42,-323,110,102,390,-193,-1010,-176,113,365,-525,-1689,344,234,341,343,478,517810
303,24,-84,45,79,47,371,258,-53,-163,236,217,-73,247,21,238,-96,-139,-171,343,613,201,-46,-235,604,691,-218,-149,-131,-76,-686,517811
321,36,-81,15,67,29,400,153,59,44,233,193,-31,18,45,295,-98,-139,-259,341,843,239,-60,-286,664,1060,-260,-194,-213,-145,-651,517812
302,41,-73,5,45,21,379,83,-31,141,149,258,-123,-20,107,325,-76,-104,-253,345,912,264,-45,-263,669,1206,-237,-186,-204,-119,-627,517813
251,40,-47,2,36,27,289,69,-58,100,144,158,-162,202,118,275,-73,-79,-235,288,830,244,-70,-212,602,1134,-201,-157,-170,-95,-460,517814
246,27,-43,-29,30,32,260,73,-65,147,178,132,-188,84,76,283,-98,-101,-233,290,892,235,-80,-219,641,1262,-218,-155,-196,-115,-411,517815
160,5,-41,-75,-1,12,85,186,-74,8,121,93,-25,-160,30,204,-78,-71,-185,205,737,171,-81,-165,482,1054,-170,-119,-174,-85,-214,517816
-267,-44,94,-62,-52,-14,-522,-235,149,-202,-447,-176,138,-239,-73,-265,40,94,170,-271,-473,-171,14,217,-414,-690,205,111,102,160,696,517817
-719,-109,204,-13,-90,-42,-1059,-490,263,101,-624,-315,308,-282,-87,-730,204,288,655,-697,-1877,-473,152,706,-1310,-2810,670,433,516,509,1516,517818
-693,-111,164,42,-77,-49,-854,-439,173,136,-482,-324,105,-40,-78,-697,231,288,726,-602,-1979,-419,189,743,-1232,-3070,699,488,624,576,1280,517819
-345,-63,32,83,-37,-49,-219,-193,28,-139,-86,-133,-95,201,-47,-352,152,153,457,-221,-1148,-170,149,437,-548,-1922,400,320,445,386,506,517820
187,2,-126,37,24,-6,419,33,-190,-92,359,183,-140,344,72,200,-10,-54,-80,308,341,190,-6,-103,511,278,-102,-21,21,19,-509,517821
260,11,-112,-17,31,25,389,159,-158,49,300,143,-189,154,24,275,-54,-94,-245,339,639,223,-83,-212,634,784,-215,-124,-114,-85,-534,517822
274,32,-74,-3,59,53,318,148,-150,53,227,182,7,16,-4,240,-76,-123,-302,283,669,166,-90,-258,552,885,-243,-202,-194,-141,-480,517823
263,26,-82,-2,41,33,315,239,-104,-47,191,239,-58,8,17,212,-89,-145,-312,243,672,99,-55,-309,475,954,-274,-244,-259,-165,-474,517824
251,25,-59,11,32,30,366,288,-14,78,253,87,42,-36,92,225,-77,-125,-280,239,690,103,-29,-275,468,1011,-243,-223,-253,-148,-446,517825
216,24,-55,-3,27,28,294,419,-13,43,20,85,61,-28,9,204,-81,-112,-246,214,668,86,-29,-251,438,1009,-214,-193,-242,-145,-371,517826
-104,-5,48,1,-16,-1,-173,-62,161,29,-308,45,257,-190,23,-97,41,57,61,-100,-181,-107,68,84,-181,-249,95,31,4,74,431,517827
-448,-59,132,20,-59,-32,-599,-197,277,69,-412,-153,242,-418,-18,-412,188,232,455,-393,-1171,-277,207,482,-820,-1755,443,308,339,370,1065,517828
-469,-68,105,30,-52,-38,-587,-242,213,33,-330,-213,171,-156,-79,-465,180,206,495,-406,-1340,-293,207,492,-858,-2067,470,329,404,388,909,517829
-239,-40,33,42,-16,-13,-284,-96,120,109,-186,-64,-9,106,36,-234,134,120,348,-162,-777,-120,172,320,-403,-1341,298,241,293,263,350,517830
131,-4,-68,8,24,24,161,73,-65,-43,138,74,-122,256,79,108,-15,-65,-22,186,239,117,19,-76,317,133,-58,-16,-20,-4,-278,517831
217,-2,-85,-21,24,24,265,323,-23,25,177,-30,-157,231,29,202,-73,-108,-203,247,582,178,-52,-218,501,660,-197,-125,-158,-127,-345,517832
184,23,-43,-2,28,31,219,352,-24,-2,126,-23,-29,72,-14,163,-45,-75,-174,191,504,159,-46,-176,402,566,-164,-117,-139,-99,-255,517833
161,22,-34,-2,22,22,155,311,-66,84,318,54,203,43,-3,127,-64,-91,-189,150,460,133,-76,-180,334,526,-168,-138,-156,-95,-309,517834
137,10,-48,-19,-1,-10,107,53,5,-3,409,62,216,37,52,120,-63,-93,-189,145,472,131,-86,-178,332,561,-169,-136,-167,-97,-249,517835
120,20,-42,-7,-8,-26,102,-103,6,43,433,106,71,-107,18,135,-39,-60,-151,143,479,122,-45,-133,337,577,-137,-99,-139,-74,-211,517836
55,16,-26,-11,-11,-38,45,-3,-24,219,167,48,-82,-158,33,94,-4,-11,-85,77,302,66,-3,-58,209,343,-55,-43,-71,-24,-54,517837
-34,5,28,12,-11,-9,-48,-111,155,82,38,32,22,-138,20,-42,18,40,30,-60,-58,-55,31,44,-54,-168,59,23,-4,34,128,517838
-88,-17,45,29,-4,7,-109,-200,119,-7,88,-32,60,-154,20,-168,-12,0,64,-168,-313,-156,15,60,-235,-498,80,17,-2,17,164,517839
-42,-6,20,13,-2,2,-113,324,12,97,133,-36,100,-124,11,-113,-32,-36,14,-104,-195,-116,9,-1,-147,-325,16,-9,-32,-9,-28,517840
96,14,5,-10,19,22,34,313,18,235,266,33,-44,-68,51,90,-3,-13,-53,82,215,47,35,-57,167,235,-42,-27,-55,-15,-27,517841
124,21,-7,-1,16,14,126,223,65,81,311,58,-36,-45,71,145,11,-3,-81,131,355,102,33,-81,255,465,-57,-36,-56,-34,-159,517842
97,7,-37,-5,-12,-21,180,209,-1,21,22,33,-13,36,56,162,0,5,-109,142,365,128,-10,-84,242,516,-55,-42,-73,-40,-129,517843
52,10,-28,-21,-27,-29,178,-33,19,-8,80,49,-48,40,-55,126,-11,11,-105,96,282,101,-41,-67,161,411,-42,-38,-76,-38,-38,517844
7,2,-17,-26,-23,-21,101,59,-27,40,144,-56,-145,-129,-76,38,-69,-49,-135,6,149,21,-84,-117,34,242,-88,-104,-118,-83,-152,517845
-8,1,-2,-26,-13,-4,38,68,-25,49,-25,-137,-349,-103,-9,7,-80,-51,-119,-44,69,-24,-100,-102,-28,136,-58,-104,-116,-70,-68,517846
-10,25,16,1,7,10,-5,-48,70,-60,-137,-108,-112,-89,105,6,-61,-3,-52,-32,5,-33,-67,-32,-37,23,3,-54,-52,-14,15,517847
-27,15,23,1,-2,2,-78,-17,185,-94,60,-104,76,150,76,-19,-19,5,-11,-45,-81,-32,-46,26,-66,-114,21,-8,1,16,181,517848
-45,3,24,7,-13,3,-96,21,10,-85,123,-33,-9,5,13,-21,20,17,31,-42,-103,-20,-11,59,-49,-177,54,51,53,49,159,517849
-12,-6,14,-5,-19,14,-69,-126,-22,79,115,-28,49,90,84,-10,11,11,27,-21,-52,-21,-14,38,-4,-119,20,50,49,29,-16,517850
12,-9,14,-8,-3,28,-60,4,-1,35,-140,-11,290,-205,36,-24,-3,-4,4,-27,-23,-37,3,-7,-10,-70,-7,11,0,-10,30,517851
31,-2,7,-19,1,27,-21,-52,-51,147,114,8,120,-179,38,-6,-2,-7,-6,6,47,-21,7,-28,50,36,-7,3,-24,-25,-8,517852
7,2,9,-21,-10,23,-28,78,-45,59,87,-87,48,-143,-14,-14,3,4,2,0,-9,-28,-6,-9,25,-64,14,16,-9,-12,16,517853
9,0,-2,-20,-11,20,0,97,38,-167,-142,-84,70,32,30,7,6,18,-8,25,22,-6,-3,-16,46,-15,2,1,-5,-39,-38,517854
10,14,7,-8,-2,15,14,1,56,8,-13,-72,102,-117,-56,-2,-8,-5,-13,6,-13,-32,-10,-18,14,-39,-2,-18,-24,-48,-12,517855
23,23,6,10,12,28,56,7,66,71,-26,25,136,-120,-3,-25,-24,-32,-30,-10,-32,-53,-19,-25,-1,-50,-11,-38,-48,-65,-68,517856
34,20,2,16,11,23,93,96,-36,80,45,-101,26,-131,-21,-5,-26,-34,-35,3,-6,-39,-21,-50,-9,-20,-23,-49,-68,-70,-94,517857
-24,1,19,22,-1,8,26,-111,-1,124,-30,-54,87,-132,1,-56,-5,-12,10,-64,-130,-77,5,-13,-162,-225,-7,-29,-36,-33,69,517858
-43,11,22,19,1,5,-39,77,21,126,65,-12,6,-82,4,-67,16,28,81,-76,-189,-64,61,48,-201,-329,40,25,16,13,110,517859
-12,14,22,5,-2,-8,-90,36,-66,326,207,132,-9,44,37,-24,31,32,75,-32,-95,-14,83,45,-102,-204,33,46,13,5,77,517860
-32,-12,15,-21,-13,-26,-117,-65,55,174,184,85,-110,84,38,-35,32,24,78,-59,-96,-40,75,31,-108,-229,30,39,9,-15,67,517861
-63,-14,16,-5,-22,-21,-103,54,133,84,-123,48,-94,184,-4,-89,7,8,77,-118,-191,-77,43,43,-171,-374,51,35,11,-7,151,517862
-40,-5,2,-10,-24,-18,14,-65,-41,15,-201,68,-111,46,5,-47,-2,-3,44,-55,-113,-7,11,19,-75,-273,26,36,16,-16,61,517863
-50,4,7,-18,-22,-20,43,-137,-99,-53,49,-58,104,-18,-58,-37,10,17,56,-49,-119,11,13,37,-70,-291,36,58,31,-7,47,517864
-77,8,16,-11,-5,-16,-3,-239,-39,-176,-2,-51,103,-204,-7,-80,-4,9,51,-108,-219,-43,4,42,-163,-444,33,49,38,-5,161,517865
-76,-10,6,-5,-4,-5,-96,-174,-34,-79,52,-89,18,-229,-28,-114,-16,-1,52,-133,-253,-68,-23,48,-194,-520,32,36,31,-11,125,517866
-36,-1,-15,9,-4,2,-78,-3,4,-5,13,-121,-68,-109,23,-76,-15,-5,28,-74,-154,-45,-16,22,-122,-386,9,15,4,-18,27,517867
16,3,-25,5,-7,-1,-5,31,-85,18,14,-63,-21,-49,124,8,7,6,-4,-2,8,18,23,-23,-19,-155,-37,-7,-19,-34,-72,517868
28,11,-27,-4,-15,-9,32,-27,-123,73,131,10,22,-8,18,33,16,16,-26,21,88,50,32,-42,31,-18,-52,-16,-35,-51,-62,517869
-13,0,-7,-16,-16,-19,-26,-20,-78,26,-62,-20,132,-258,-12,-27,0,9,-22,-35,-34,-6,-1,-23,-52,-163,-31,-8,-24,-50,19,517870
-85,-19,10,-21,-18,-27,-118,29,18,107,-103,-92,-65,-258,-29,-101,7,0,10,-107,-266,-84,-5,30,-193,-467,18,14,27,-4,139,517871
-70,-24,15,-24,-17,0,-111,20,-25,-9,48,-113,-103,-97,33,-113,-28,-27,-3,-95,-292,-103,-41,7,-197,-484,5,1,16,-31,57,517872
-51,-22,19,-15,-5,20,-99,16,-35,-13,-238,-71,172,133,72,-112,-27,-17,3,-85,-287,-128,-37,21,-178,-472,28,16,9,-24,86,517873
-22,-13,2,-17,0,18,-49,-47,-62,-8,-220,-76,195,-12,10,-50,9,24,32,-30,-203,-92,5,47,-87,-363,59,53,39,-2,57,517874
-37,-11,-2,-5,-2,12,-50,-93,-191,-17,-129,-89,100,-13,-25,-59,20,19,30,-33,-224,-69,18,46,-91,-394,63,39,46,3,47,517875
-31,6,16,25,13,17,-11,-56,-100,73,-86,-40,29,-13,42,-75,4,-10,20,-55,-253,-81,22,31,-114,-413,41,6,23,-14,17,517876
-19,9,-12,19,1,-2,50,2,-21,26,69,55,-142,96,-7,-42,-15,-31,-2,-25,-169,-45,21,-6,-70,-310,-3,-17,-4,-46,-41,517877
71,28,-34,11,12,0,175,159,-8,146,74,10,-82,32,-10,95,-7,-19,-69,85,130,51,28,-80,124,97,-72,-44,-45,-80,-147,517878
82,25,-44,-20,10,-1,129,107,11,104,60,60,-77,120,54,139,19,8,-75,116,247,82,46,-80,173,246,-72,-34,-57,-75,-138,517879
42,10,-10,-53,4,12,-29,168,43,54,-52,82,-43,0,-12,103,25,23,-38,55,176,45,49,-42,99,138,-30,-10,-48,-47,-73,517880
-112,-19,51,-44,-11,17,-309,-81,22,-3,-238,-32,50,22,26,-87,73,79,127,-124,-277,-53,90,117,-236,-570,115,99,66,41,268,517881
-158,-40,41,-41,-25,-7,-423,-36,-18,-47,-297,-22,-49,126,12,-140,73,76,170,-155,-398,-62,94,159,-300,-796,147,116,111,73,283,517882
-147,-44,17,-37,-37,-22,-407,-84,55,-71,-141,-37,-172,2,45,-136,28,43,129,-147,-388,-54,36,119,-277,-809,93,81,81,34,218,517883
-106,-19,19,9,-8,-12,-324,11,53,78,-7,-13,-28,117,-47,-148,4,17,93,-146,-372,-44,10,87,-251,-825,54,61,58,9,176,517884
-81,-16,22,24,6,3,-136,18,-5,19,-163,-2,145,1,-28,-135,12,20,85,-135,-330,-34,28,72,-237,-808,30,61,63,3,116,517885
-49,1,32,47,10,15,77,-246,28,-109,-1,16,233,-25,86,-118,17,14,68,-122,-286,-42,29,58,-212,-751,12,56,37,-9,146,517886
117,17,-45,31,17,17,301,-1,-200,-119,156,53,-79,-14,33,26,-85,-114,-154,24,186,38,-68,-179,103,-32,-210,-110,-145,-176,-321,517887
317,43,-98,-15,45,39,464,126,-209,-42,336,205,-202,236,25,251,-161,-192,-371,234,808,178,-152,-389,505,933,-395,-257,-318,-323,-771,517888
360,43,-101,-40,31,33,464,175,-139,34,361,232,-117,239,33,331,-151,-164,-412,293,1009,222,-147,-408,610,1297,-406,-288,-357,-346,-731,517889
174,8,-61,-55,-7,-1,230,-121,-51,109,78,31,13,2,-31,143,-129,-128,-313,105,583,63,-115,-293,280,794,-287,-232,-295,-287,-311,517890
-132,-16,34,-20,-34,-25,-145,-278,73,11,-161,-117,-65,-24,-51,-146,-19,9,-6,-187,-316,-160,-22,28,-308,-471,31,-18,-38,-59,306,517891
-128,-13,33,5,-27,-28,-137,-87,57,-171,38,-21,-127,-49,-110,-156,-25,5,43,-168,-436,-172,-35,58,-311,-623,76,7,27,3,263,517892
-94,-17,16,-3,-10,-21,-79,-208,68,-27,206,-45,14,67,-70,-117,-17,-4,44,-106,-372,-131,-37,59,-207,-520,78,32,48,21,193,517893
-80,-1,28,10,6,-11,-40,-138,-9,37,-9,-102,-118,-166,-50,-82,11,30,50,-59,-356,-120,-19,84,-171,-504,92,62,75,42,250,517894
-99,-14,7,2,-9,-23,-61,55,26,-1,-157,-69,-162,-157,-23,-120,-9,21,-6,-94,-418,-148,-75,52,-222,-575,63,9,58,21,153,517895
-56,-9,21,10,9,11,-35,-56,-130,62,-274,-3,-82,75,25,-80,-28,11,-33,-51,-350,-123,-94,16,-167,-469,32,-16,37,-4,3,517896
198,16,-50,-15,44,47,239,186,-234,-72,96,150,-116,74,60,177,-112,-102,-250,202,368,62,-155,-247,324,553,-218,-172,-162,-169,-541,517897
421,43,-134,-41,51,27,516,405,-210,-171,259,190,-248,197,-37,447,-172,-181,-478,441,1160,266,-182,-479,828,1688,-446,-310,-367,-339,-948,517898
408,52,-125,-48,34,-4,519,468,-55,2,187,181,18,164,36,487,-134,-134,-449,430,1306,304,-136,-442,860,1903,-419,-285,-366,-327,-758,517899
218,34,-65,-44,-2,-8,280,3,-105,23,-2,77,-40,-10,34,296,-92,-63,-281,204,849,172,-90,-261,470,1252,-248,-197,-264,-207,-276,517900
-88,17,20,13,-24,-30,-58,-55,10,-42,-151,-185,-40,-24,-97,-39,-8,44,36,-128,-50,-37,-13,34,-197,-100,21,-19,-40,-30,234,517901
-110,12,35,50,-20,-33,2,-109,19,-3,-70,-108,96,-180,-183,-94,6,44,92,-155,-204,-53,-9,63,-301,-403,51,23,12,-4,267,517902
-125,17,45,55,-21,-27,39,-55,82,91,116,-7,7,-130,-43,-97,51,66,172,-146,-247,-30,40,133,-295,-531,108,94,87,68,288,517903
-114,14,47,36,0,-11,14,-18,11,182,16,-45,-35,125,53,-81,61,74,198,-116,-217,1,52,164,-207,-535,132,140,128,81,267,517904
-101,-15,18,-6,-10,-3,-110,-52,-166,78,-48,-54,-76,117,-16,-110,16,26,110,-135,-192,-25,13,79,-194,-519,52,77,62,9,237,517905
-52,-9,32,-1,-1,23,-133,-198,-142,41,-28,85,38,150,22,-68,46,36,91,-93,-119,10,49,77,-143,-462,35,73,63,17,115,517906
191,6,-42,-24,17,27,226,49,-176,-187,306,73,-55,292,-32,204,-26,-78,-133,177,586,193,-15,-161,383,605,-195,-75,-101,-125,-487,517907
412,31,-108,-52,36,36,518,316,-273,-152,186,166,-101,258,-42,433,-154,-199,-425,383,1282,309,-138,-447,832,1704,-440,-284,-335,-339,-915,517908
439,50,-93,-64,41,38,522,415,-223,13,243,102,-185,34,107,461,-169,-194,-484,403,1408,302,-181,-485,857,1992,-475,-333,-402,-373,-839,517909
257,33,-49,-76,10,9,279,361,-238,-84,162,21,-51,-70,18,279,-132,-131,-378,223,974,167,-168,-352,513,1485,-345,-260,-332,-275,-344,517910
-96,0,40,-44,-40,-37,-142,-65,-28,134,-88,-86,174,-111,-69,-60,-5,22,-28,-109,-10,-79,-50,23,-169,106,-19,-20,-38,-18,225,517911
-166,-3,56,-6,-33,-41,-204,-267,-67,125,-53,-113,337,-62,25,-119,47,73,112,-141,-349,-160,20,151,-340,-338,107,72,97,97,291,517912
-104,-4,33,-13,-18,-20,-140,-225,-22,-17,-89,-49,-59,-26,-8,-79,-3,29,60,-89,-312,-193,1,77,-276,-223,68,21,57,48,176,517913
-95,3,45,0,-13,-7,-121,-190,30,3,-84,-32,-191,19,-35,-61,18,41,81,-60,-331,-182,36,90,-271,-254,92,45,68,52,170,517914
-110,-3,38,7,-27,-18,-108,-178,29,-75,-62,-35,-107,78,-29,-69,38,61,107,-59,-398,-179,47,125,-300,-348,131,72,94,77,207,517915
-81,-6,13,4,-19,-23,-31,-85,-47,46,-157,-129,-35,94,-60,-16,45,73,89,1,-294,-99,58,108,-196,-228,116,72,107,87,197,517916
264,29,-65,-7,40,33,382,212,-120,80,38,18,-42,226,14,297,-59,-73,-219,325,628,158,-49,-218,488,1086,-205,-141,-127,-119,-556,517917
608,73,-143,-57,72,58,697,599,-239,-89,319,92,-33,237,94,576,-234,-264,-635,553,1623,323,-244,-616,1103,2583,-585,-441,-480,-441,-1169,517918
587,76,-111,-87,58,43,591,399,-193,0,338,57,-51,66,74,536,-267,-283,-703,467,1684,281,-304,-650,1036,2733,-625,-502,-573,-497,-1045,517919
315,53,-29,-66,10,19,309,-104,-45,-68,52,-61,66,18,-16,317,-161,-149,-455,217,1111,175,-240,-397,562,1877,-363,-325,-388,-317,-395,517920
-101,20,74,-13,-37,-35,-91,-244,46,-275,-36,-152,162,-125,-156,-55,-13,32,-50,-165,52,-49,-97,13,-198,285,4,-54,-70,-35,341,517921
-151,23,78,0,-30,-33,-102,-117,53,-123,-96,-212,111,-106,-44,-112,33,74,106,-201,-170,-57,-11,118,-288,-123,92,49,41,54,315,517922
-131,6,83,4,-9,-1,-137,-164,89,-10,-126,-134,66,34,-16,-123,38,72,133,-199,-195,-48,-3,131,-266,-222,80,66,69,58,256,517923
-94,-11,65,0,-2,9,-137,-18,59,5,-273,-95,-46,-55,11,-82,31,50,109,-159,-109,-26,-14,92,-205,-166,42,37,54,31,158,517924
-50,5,51,6,0,1,-111,59,97,30,-109,-30,-56,-165,94,-30,48,65,118,-108,17,6,12,69,-105,-14,30,48,50,20,157,517925
-47,3,20,-1,-27,-34,-101,7,57,139,72,21,33,-25,57,26,65,60,139,-43,96,59,50,78,-29,90,28,76,78,31,172,517926
318,39,-73,-24,20,-13,368,217,-150,174,118,284,46,236,108,411,-33,-82,-184,362,1109,339,-52,-245,729,1591,-279,-127,-151,-172,-664,517927
707,86,-172,-79,68,35,821,637,-287,101,303,367,-169,207,178,801,-203,-262,-654,726,2280,557,-227,-676,1497,3418,-651,-428,-510,-474,-1426,517928
883,128,-208,-119,73,36,994,486,-240,-28,355,375,-221,300,136,1004,-272,-310,-877,884,2886,647,-302,-873,1829,4475,-817,-589,-719,-620,-1693,517929
595,106,-134,-142,14,-5,610,335,-171,-105,203,122,-180,267,20,774,-201,-193,-710,611,2292,460,-256,-649,1284,3784,-593,-475,-613,-487,-975,517930
-189,36,102,-100,-73,-50,-388,-29,41,-92,-136,-168,-55,56,-121,15,61,146,78,-142,108,-66,-27,173,-277,649,163,59,15,60,651,517931
-238,19,112,-50,-45,-35,-438,-41,95,-158,-395,-115,-2,-118,-158,-58,110,167,252,-147,-278,-130,52,287,-428,71,246,162,185,195,596,517932
-184,12,61,1,-35,-46,-396,-234,32,-103,-268,-219,-25,-347,-137,-91,20,63,132,-150,-330,-206,15,150,-422,71,127,49,103,110,335,517933
-145,3,40,2,-44,-57,-309,-283,33,-91,-129,-121,33,-141,-52,-72,23,35,100,-126,-295,-222,32,106,-366,128,88,30,76,91,269,517934
-99,-5,80,-8,-29,-22,-206,57,91,-46,-3,-30,233,67,17,-23,52,78,134,-59,-225,-176,87,120,-280,189,96,77,113,121,278,517935
-43,-9,54,-8,-15,-18,-70,-12,138,84,131,-24,113,-53,-56,6,7,28,58,-27,-109,-140,15,33,-173,342,17,26,62,65,143,517936
552,84,-109,-5,70,29,741,207,-54,188,533,257,140,2,74,596,-155,-206,-459,575,1511,306,-155,-492,1023,2666,-490,-311,-314,-284,-1227,517937
1303,182,-298,-86,129,90,1633,781,-405,-9,938,631,-264,323,202,1387,-427,-513,-1271,1296,3839,857,-434,-1272,2573,6188,-1209,-850,-986,-845,-2547,517938
1143,178,-242,-128,76,62,1351,675,-401,-189,647,425,-144,193,114,1272,-428,-447,-1286,1074,3749,770,-492,-1214,2297,6225,-1132,-870,-1060,-867,-2042,517939
536,117,-88,-133,-11,-9,579,304,-144,-303,59,-5,145,-19,-20,671,-292,-241,-818,416,2291,355,-395,-724,1119,4173,-683,-592,-750,-588,-793,517940
-176,35,106,-84,-84,-63,-272,-221,-25,-61,-328,-329,293,-235,-140,-73,-70,33,-104,-304,284,-144,-199,-26,-299,1203,-49,-138,-209,-112,516,517941
-195,31,127,-48,-45,-31,-292,-184,63,-5,-153,-270,107,-199,-148,-105,4,69,77,-299,13,-141,-98,97,-365,704,52,-29,-36,22,445,517942
-169,15,121,-29,-34,-17,-292,-80,93,-131,-243,-209,71,-73,-181,-69,51,104,131,-251,-30,-73,-19,142,-319,557,86,28,62,74,404,517943
-172,2,114,-25,-36,-11,-307,-127,184,-123,-344,-67,38,-173,-62,-59,70,123,175,-212,-79,-19,21,178,-313,427,118,84,125,111,438,517944
-212,-20,95,-39,-56,-40,-353,-110,256,105,-129,-106,-43,-30,-69,-115,54,103,205,-240,-217,-43,-18,200,-363,208,142,96,145,125,338,517945
-190,-1,80,-35,-45,-44,-289,-96,250,103,-104,-122,66,16,-65,-73,46,84,173,-194,-172,-21,-29,168,-296,256,126,85,147,105,293,517946
50,30,24,-35,-9,-8,-24,-111,142,44,121,39,-156,16,-47,175,-11,15,-33,62,442,138,-59,-41,186,1141,-64,-24,22,-19,-177,517947
333,53,-46,-64,16,2,267,80,38,42,217,191,-95,238,26,452,-105,-96,-321,337,1259,303,-141,-316,754,2395,-323,-213,-212,-214,-679,517948
377,57,-54,-87,13,4,319,269,-39,-22,257,224,-22,147,39,507,-131,-128,-385,369,1457,291,-167,-368,857,2762,-360,-250,-292,-263,-751,517949
243,68,4,-29,4,13,260,205,-4,47,197,10,12,60,13,363,-84,-60,-246,202,1051,159,-118,-213,523,2227,-211,-164,-201,-163,-393,517950
-145,19,98,24,-43,-19,-114,-50,36,17,-117,-230,129,-267,-76,-77,-16,58,64,-217,-105,-166,-42,122,-320,609,87,18,32,46,330,517951
-162,18,108,42,-23,-16,-136,-95,69,173,-69,-137,197,-165,-112,-95,20,88,146,-204,-287,-168,10,183,-386,350,126,76,116,124,379,517952
-164,3,93,22,-44,-34,-129,-123,125,55,-50,65,85,-38,-66,-62,61,107,174,-147,-308,-132,40,184,-368,320,120,107,155,149,373,517953
-152,-2,69,9,-45,-40,-135,42,106,39,69,26,95,-29,-46,-90,4,25,99,-156,-325,-161,-24,95,-379,306,52,44,94,104,243,517954
-100,6,54,10,-14,-19,-98,44,104,-10,5,-65,189,-64,-82,-65,-30,-14,40,-149,-238,-179,-31,18,-335,422,-3,6,40,58,126,517955
-67,6,54,5,-10,-8,-116,7,195,-117,-27,-95,163,-61,-54,-47,28,32,92,-116,-180,-134,43,57,-288,448,34,52,66,84,140,517956
114,20,1,-18,3,-5,94,-20,66,11,162,-69,112,68,62,172,34,25,7,120,377,68,58,-28,152,1201,-58,26,25,40,-201,517957
315,54,-58,-42,15,6,372,-62,-88,-52,64,98,-34,106,97,414,-53,-78,-234,337,1074,258,-31,-246,634,2226,-271,-124,-160,-122,-588,517958
289,52,-49,-54,1,-4,333,-40,-102,-313,110,96,-1,-57,-13,387,-105,-113,-328,278,1121,228,-117,-324,602,2328,-333,-214,-259,-212,-539,517959
143,47,7,-36,-9,-4,145,256,-75,-225,-1,-4,95,40,38,248,-58,-45,-212,126,772,133,-95,-183,316,1803,-194,-142,-174,-147,-229,517960
-124,5,64,-46,-60,-45,-142,10,151,-19,-241,-74,109,-96,-5,-8,32,65,38,-126,46,-25,-26,85,-190,733,70,28,40,51,264,517961
-156,9,73,-19,-40,-39,-101,-172,148,12,-246,-25,3,-39,41,-57,55,86,126,-146,-128,-38,19,137,-275,432,103,72,101,100,342,517962
-154,10,68,-8,-17,-23,-73,-307,28,30,-133,-182,25,-89,-49,-96,27,61,111,-174,-191,-76,11,108,-311,324,83,42,76,65,303,517963
-157,2,65,-1,-23,-16,-106,-205,24,37,88,-230,114,-255,-104,-112,23,55,123,-193,-262,-97,21,121,-357,195,90,42,94,57,307,517964
-136,-6,53,-9,-24,-16,-177,-137,118,-52,-103,-114,98,-130,-114,-102,10,31,111,-177,-268,-107,-5,111,-318,185,73,44,88,51,223,517965
-125,-13,50,-14,-9,-3,-245,-15,46,-73,-337,-102,135,-295,-103,-128,-23,-7,76,-183,-279,-124,-33,66,-296,199,25,19,62,5,113,517966
-21,15,50,24,29,33,-144,129,68,154,-168,-155,64,-171,-53,-35,1,7,75,-99,-110,-44,2,58,-143,414,26,29,61,25,-5,517967
-11,24,57,51,15,16,-21,24,4,141,44,-94,211,2,-51,-8,44,43,100,-60,-78,-11,40,99,-107,434,72,60,91,65,61,517968
-139,8,70,64,-16,-8,-101,-113,35,-92,44,-124,122,125,-103,-134,70,84,186,-168,-389,-105,73,189,-317,-21,157,127,164,123,340,517969
-164,-3,76,41,-9,-2,-195,-278,59,-146,-47,-26,-31,23,-39,-154,64,97,204,-213,-496,-135,45,200,-390,-216,167,126,181,142,331,517970
-41,-14,30,11,2,10,-109,-87,143,-164,-81,-5,-31,-137,9,-51,-12,9,15,-103,-154,-76,-41,26,-165,289,-11,3,38,28,-39,517971
12,-4,26,6,15,33,-65,-71,108,-19,-170,34,38,-52,56,-18,6,11,-13,-63,-22,-25,-11,9,-110,463,-33,0,14,13,-36,517972
-24,-21,28,-13,-1,21,-86,30,-34,-51,-171,43,55,-98,-19,-26,37,38,50,-75,-77,3,35,64,-176,383,19,43,40,64,41,517973
-23,-29,30,-18,0,9,-97,10,-19,27,-92,-27,94,-83,48,-42,18,20,62,-93,-90,1,5,60,-205,396,7,35,36,65,39,517974
-43,-13,22,4,-6,3,-107,-45,8,143,-19,-4,49,-109,-11,-25,40,37,96,-70,-94,28,44,85,-179,381,31,65,69,107,53,517975
-51,6,27,25,-13,-11,-125,38,113,-53,182,74,-123,-87,56,-28,46,37,132,-87,-129,17,70,113,-188,304,58,89,103,129,156,517976
-281,-30,93,28,-36,-18,-419,-285,214,-93,-117,-135,-48,-44,28,-261,101,121,329,-335,-771,-190,113,341,-630,-644,267,233,261,258,698,517977
-640,-66,204,68,-57,-20,-832,-681,269,-41,-359,-319,86,-223,-10,-645,246,281,717,-669,-1884,-434,251,724,-1354,-2355,635,498,585,521,1328,517978
-544,-62,160,83,-30,6,-701,-450,225,95,-254,-248,-103,-206,-38,-595,210,220,658,-567,-1818,-397,226,623,-1207,-2345,535,446,560,466,1068,517979
-317,-62,76,57,-7,8,-412,-332,167,48,-28,-108,114,-188,-95,-394,133,122,444,-343,-1271,-280,157,401,-759,-1616,313,301,407,294,474,517980
-25,-29,-1,42,25,27,-80,-66,-12,147,-97,103,122,-29,38,-99,59,23,162,-25,-460,-52,96,138,-168,-463,69,152,222,112,-115,517981
24,-9,-5,37,41,35,-57,58,17,47,-189,29,211,71,87,-19,52,23,98,46,-265,8,75,101,-34,-160,51,112,173,82,-17,517982
46,-9,-20,15,34,32,-81,44,10,-184,-9,-11,157,124,72,12,33,20,54,64,-165,-4,64,36,8,20,44,57,94,35,-31,517983
24,-10,-21,3,9,4,-120,-108,30,-78,269,75,20,107,28,-2,17,7,28,46,-180,-27,45,17,-45,32,33,21,57,14,-27,517984
26,13,-5,31,22,19,-49,-81,2,-36,288,166,-59,182,-30,12,20,4,37,66,-154,-6,43,43,-66,67,52,26,64,34,-47,517985
-4,8,12,32,20,22,-11,-194,-45,-31,222,68,-59,101,7,-29,17,15,59,22,-230,-49,49,49,-159,-27,64,28,61,37,67,517986
-357,-37,91,44,-36,-13,-346,-183,192,102,12,-92,-27,-31,-22,-388,115,152,383,-350,-1163,-314,156,368,-828,-1409,372,262,286,225,848,517987
-638,-66,137,97,-56,-40,-625,-259,235,-120,-158,-240,-101,-211,-62,-696,209,246,669,-623,-2042,-503,256,650,-1370,-2785,605,471,525,434,1284,517988
-755,-98,151,121,-56,-56,-745,-592,282,-135,-331,-266,-88,-296,-140,-833,238,278,777,-745,-2477,-558,291,772,-1583,-3545,696,548,671,534,1473,517989
-521,-82,88,126,-10,-11,-499,-337,242,-50,-263,-87,-28,-160,-96,-603,210,217,657,-492,-1936,-359,278,607,-1087,-2908,534,463,596,438,824,517990
99,-25,-68,82,66,56,195,157,-40,-160,72,95,-162,111,-34,0,8,-45,66,106,-216,62,98,-28,134,-426,-51,59,120,28,-427,517991
155,-23,-74,29,42,40,241,71,-81,-219,110,95,-123,116,13,65,-52,-93,-117,109,137,120,21,-150,289,128,-178,-49,-43,-84,-403,517992
93,-9,-37,16,23,24,222,112,33,-14,152,114,114,234,141,95,51,30,-7,107,165,211,83,-3,286,134,-49,58,61,29,-177,517993
50,-6,-37,0,23,8,137,61,92,7,274,125,-24,102,31,67,39,33,18,73,126,206,65,22,253,110,-21,65,77,57,-147,517994
39,-1,-43,-17,26,6,22,48,49,-61,263,177,-287,120,53,54,25,4,4,56,155,191,28,12,255,174,-38,59,55,37,-176,517995
-21,-19,-49,-64,-15,-15,-181,37,-47,-177,-33,170,-46,322,79,44,33,23,18,23,95,155,22,46,188,88,5,80,70,53,-46,517996
-668,-108,124,-43,-106,-83,-1082,-448,125,-111,-576,-131,62,145,-111,-571,240,298,590,-610,-1678,-290,217,645,-1122,-2493,604,454,489,441,1396,517997
-1328,-194,302,76,-149,-113,-1819,-1124,425,107,-778,-474,168,-330,-233,-1309,485,573,1351,-1240,-3827,-780,473,1363,-2532,-5760,1292,938,1087,944,2565,517998
-1200,-194,277,173,-76,-47,-1430,-728,312,140,-800,-438,220,-328,-233,-1348,451,468,1370,-1154,-3972,-800,500,1291,-2475,-6160,1211,921,1128,917,2110,517999
-637,-123,139,213,31,38,-597,-367,162,270,-147,-166,28,-96,-115,-896,288,217,924,-625,-2766,-515,422,798,-1507,-4498,734,627,807,609,1001,518000
176,-25,-90,148,120,109,378,307,-17,190,383,178,-116,142,124,-84,2,-136,102,188,-519,-1,164,-19,116,-1185,-20,89,173,47,-578,518001
248,-16,-106,80,92,88,425,298,-67,97,548,238,-32,6,128,65,-58,-164,-121,276,-31,63,49,-171,342,-393,-143,-37,-13,-102,-605,518002
209,-7,-89,47,69,69,371,272,-114,147,484,241,46,-76,119,68,-38,-128,-108,250,6,41,53,-131,303,-291,-109,-13,-21,-75,-425,518003
199,-9,-100,37,51,45,356,31,-79,-4,289,159,-20,82,49,33,-71,-137,-145,204,3,-5,21,-150,290,-214,-131,-47,-64,-110,-450,518004
