2,7,-22,3,-31,-18,111,162,-39,131,-264,98,96,-56,30,61,-58,-12,63,-56,-610,-668,-42,13,531,-574,121,129,-49,18,-38,407476
19,12,-27,28,-9,-5,86,59,-29,95,-72,34,24,-39,-44,79,-9,13,134,-42,-674,-713,30,47,549,-776,154,183,5,24,59,407477
48,19,-40,32,1,-7,80,-67,-63,47,131,81,-20,92,11,64,-10,-3,65,-44,-652,-670,42,10,573,-844,122,127,-15,-15,120,407478
84,24,-39,13,-10,-21,125,121,32,-123,309,5,9,177,-38,112,-7,5,9,16,-412,-467,43,-12,666,-618,97,93,-26,-42,-28,407479
32,21,-20,12,-11,-13,94,81,124,-69,212,2,-19,-65,-62,81,1,10,35,14,-265,-252,26,2,651,-493,85,76,-6,-39,-99,407480
3,11,-14,-20,-9,-7,14,-5,79,33,169,50,147,-144,-57,11,-33,-34,-5,-16,-127,-99,-22,-60,560,-310,24,-16,-78,-94,-120,407481
35,13,15,-34,9,10,-27,-217,30,29,62,40,287,58,8,41,6,14,29,38,136,112,34,-37,567,21,17,-22,-65,-78,-87,407482
9,16,22,-18,-6,0,-123,-57,31,148,231,94,-123,129,-27,63,97,99,132,84,273,324,133,76,562,189,88,46,42,30,159,407483
20,12,4,-8,-4,0,-86,-228,24,136,-478,-2,29,-52,-47,56,66,57,115,93,420,421,95,37,551,421,35,17,12,34,45,407484
-56,0,1,-13,-20,-15,-115,-193,56,18,-442,0,115,-167,10,-26,43,59,155,28,366,425,81,39,452,398,30,9,14,54,106,407485
-57,-7,-7,-21,-29,-25,-117,-82,101,-15,102,67,-75,-78,29,-7,58,50,175,67,496,497,83,40,500,615,4,20,22,47,93,407486
-17,2,28,-27,-4,4,-118,-14,171,-58,-394,138,38,188,22,95,135,102,227,161,653,606,156,102,627,846,54,104,110,108,128,407487
-35,-2,32,-31,-9,2,-94,-24,93,14,-10,120,-63,114,6,126,167,134,238,198,668,625,153,143,678,892,63,123,154,152,245,407488
-31,10,19,-2,-6,5,9,-14,1,22,-104,-7,75,63,-5,53,56,42,127,124,605,456,30,45,609,895,-73,45,60,79,54,407489
41,28,-5,7,9,18,148,-25,-38,-10,3,4,128,93,4,22,-110,-127,-85,76,682,269,-117,-160,612,1125,-287,-96,-129,-61,-315,407490
81,40,-7,3,19,45,150,-86,-134,25,-57,-41,50,26,34,27,-153,-153,-116,59,616,173,-167,-180,652,1115,-297,-93,-130,-71,-345,407491
97,17,-16,-1,15,30,44,-93,-77,61,-7,-17,111,31,72,90,-55,-23,44,79,425,142,-72,-9,707,880,-143,63,21,42,-156,407492
-8,3,0,1,-20,-16,-134,-84,23,24,-237,-49,99,-5,-20,35,38,84,163,-12,-13,-54,6,137,622,306,17,168,145,110,141,407493
-61,-19,-6,-44,-34,-33,-215,-186,-41,-113,-267,-7,10,146,-38,-29,38,67,101,-100,-321,-280,5,92,620,-72,35,126,120,32,126,407494
-9,-8,0,-56,-11,-11,-108,-32,-5,-33,-178,115,-108,217,-52,30,9,40,16,-79,-351,-422,1,21,781,-96,61,85,64,-36,67,407495
-58,-1,16,-13,-24,-26,-69,-41,18,17,-97,124,-132,136,-51,-35,3,31,27,-154,-607,-537,18,61,782,-491,180,122,96,-29,191,407496
-41,4,3,31,-12,-26,11,-104,-27,-28,-149,-51,72,29,29,-68,-32,-31,-11,-165,-671,-527,-44,22,845,-639,176,78,39,-61,120,407497
36,15,-24,47,0,-15,149,15,-102,-80,-14,-25,33,63,-47,-21,-48,-73,-31,-99,-494,-432,-51,-18,973,-449,110,51,4,-67,-82,407498
-33,8,-1,48,-15,-16,79,87,-108,-3,65,-34,33,-73,-7,-57,-23,-24,12,-129,-537,-366,-43,54,921,-583,134,77,49,-14,81,407499
-43,8,8,45,8,7,40,-89,-20,-98,50,-55,-12,-15,-21,-53,7,-13,31,-93,-409,-218,-5,80,913,-486,104,74,40,19,130,407500
-19,5,19,29,17,33,-3,-48,69,-225,-101,-130,11,-23,-135,-57,-18,-47,1,-62,-213,-96,-11,24,908,-272,23,10,-10,-25,126,407501
18,-4,12,-4,15,31,-23,68,49,-195,-146,-23,169,60,-96,-62,-78,-102,-35,-28,11,4,-77,-46,922,3,-56,-55,-81,-85,-51,407502
14,9,20,-5,10,19,-65,9,-3,-155,166,-30,206,180,9,-39,-56,-87,5,22,165,121,-76,-18,903,161,-41,-47,-52,-39,-126,407503
53,13,2,-16,-1,2,11,175,-63,-39,605,40,12,162,76,53,-38,-45,23,122,380,243,-78,-15,919,476,-33,-53,-44,13,-144,407504
12,-7,-8,-24,-25,-19,38,156,17,150,247,47,-116,-60,-20,28,-25,-33,51,90,329,243,-67,1,771,465,-18,-56,-40,42,-32,407505
50,20,-6,11,-4,1,118,153,78,38,300,65,18,32,63,42,-28,-39,45,116,406,255,-65,-26,707,610,-55,-79,-73,32,-111,407506
39,24,-6,16,5,3,82,-32,-130,-2,373,16,-56,37,-4,11,-44,-39,55,74,335,174,-90,-27,578,569,-73,-85,-85,25,-158,407507
17,14,0,-1,8,10,18,-74,-93,3,-71,-91,-60,14,-24,-11,-36,-38,102,35,236,110,-47,-18,458,490,-62,-74,-84,14,-105,407508
67,3,-11,-23,3,25,25,-7,13,75,-157,-44,-1,-111,-16,32,-35,-48,63,94,331,115,-54,-56,463,639,-88,-101,-105,-2,-134,407509
97,20,-8,-30,11,25,44,102,-35,-78,54,-65,66,33,-3,54,-41,-63,5,94,374,90,-44,-96,426,719,-88,-121,-141,-40,-108,407510
88,20,9,-25,9,17,40,24,-43,-4,-11,-22,157,-12,-36,79,-8,-11,17,90,338,59,24,-64,373,666,-34,-92,-122,-33,-44,407511
39,13,28,-25,6,23,35,-103,-10,-20,-40,10,87,50,-42,91,16,16,14,65,236,29,47,-27,365,522,-4,-57,-73,-16,-44,407512
-36,-8,30,-23,-1,30,-20,-92,-132,-78,-18,-90,-47,-56,-68,-1,0,-6,5,-54,-35,-86,23,-2,289,158,6,-42,-30,-19,10,407513
-104,-14,25,10,-16,7,-23,37,-135,-160,-149,-135,-7,-213,-106,-101,22,0,82,-161,-294,-152,63,67,262,-240,46,3,56,18,139,407514
-71,10,2,25,-22,-21,80,108,-196,-67,49,-34,-23,-20,-54,-7,73,51,120,-73,-188,-63,96,102,453,-178,79,64,120,72,135,407515
-122,1,-5,-3,-40,-38,-60,26,12,-4,94,-7,-28,85,-74,10,137,130,164,-67,-254,-14,125,189,574,-349,157,143,212,129,218,407516
-86,-2,10,-23,-17,-23,-200,3,4,-132,146,-65,-150,-19,43,2,122,98,157,-59,-197,28,136,158,723,-330,102,125,151,97,206,407517
-29,-9,45,-58,-3,2,-291,28,51,50,123,58,-107,21,165,-3,76,73,112,-36,-112,55,95,90,870,-222,70,53,84,41,147,407518
-32,-38,67,-82,0,26,-420,-110,212,218,-10,21,90,-9,75,-54,50,57,39,-78,-163,11,33,41,889,-276,49,-19,28,-10,127,407519
-24,-52,46,-55,25,45,-490,-69,105,45,-97,-66,184,-230,80,-145,-54,-48,-37,-149,-250,-103,-62,-50,826,-336,-53,-104,-74,-95,29,407520
41,-26,34,8,24,48,-210,96,117,93,63,19,53,-150,50,-64,-28,-34,-15,-55,-89,-56,-27,-34,917,-82,-64,-82,-68,-56,-28,407521
39,2,3,46,9,8,125,265,91,79,145,88,-24,133,4,25,10,-6,30,45,51,16,19,12,993,137,-31,-50,-47,4,16,407522
-11,25,-2,74,11,8,161,245,41,54,43,42,55,195,13,-6,16,-1,43,38,-37,-41,9,37,891,84,-5,-59,-30,21,48,407523
60,24,-3,38,11,19,190,28,65,8,151,13,-52,162,42,110,49,31,77,145,132,14,42,54,933,347,11,-34,-12,49,-168,407524
46,18,11,17,12,15,132,82,61,-17,265,-37,0,78,16,97,82,45,113,136,78,-19,49,98,816,314,51,7,17,84,-37,407525
38,27,3,26,8,-17,148,-129,-67,81,63,15,208,-32,22,60,33,7,83,111,31,-75,-9,58,657,298,-3,-17,-32,45,-110,407526
47,12,-21,17,16,-29,127,24,-79,-79,232,-99,143,-53,-20,32,-44,-56,-11,75,0,-126,-90,-40,492,308,-91,-106,-120,-29,-138,407527
53,-8,-11,4,19,4,70,-42,10,-213,116,-55,32,-21,-21,14,-56,-70,-71,60,-32,-149,-98,-56,336,280,-94,-162,-150,-54,-127,407528
90,9,-6,-7,21,26,71,-54,47,-93,-38,9,-143,74,-28,49,-57,-59,-101,84,50,-111,-77,-81,251,396,-73,-198,-171,-46,-190,407529
107,21,-21,-14,5,3,98,-208,-84,-13,-5,108,-116,-4,-56,39,-111,-94,-190,64,102,-103,-119,-169,126,486,-120,-285,-257,-118,-255,407530
115,19,-35,-25,-8,-20,136,-268,-181,-182,-64,128,-11,49,9,81,-99,-77,-167,82,185,-61,-74,-173,71,587,-119,-268,-265,-137,-345,407531
98,31,-3,-20,3,3,115,-5,-17,-119,13,93,-91,-4,61,126,-12,0,-68,88,229,18,20,-98,51,568,-54,-174,-183,-73,-168,407532
36,11,34,-11,2,30,17,110,76,9,-58,32,-26,-132,27,54,28,50,-19,19,82,53,34,-13,-69,265,15,-105,-106,-7,29,407533
-28,-5,49,10,1,24,-35,157,96,-25,-42,76,42,-91,-79,-57,15,14,-10,-79,-70,65,4,1,-196,-35,-6,-104,-82,-21,111,407534
-7,6,33,18,3,8,10,11,-85,102,52,39,-12,-21,-77,8,63,59,43,-6,80,223,72,35,-52,19,-10,-43,-1,27,90,407535
-51,0,33,-2,-13,0,-40,-90,-23,60,23,-48,38,78,33,5,86,97,101,-21,71,288,79,95,88,-90,24,13,65,77,113,407536
-6,9,23,25,3,8,0,23,75,139,-73,36,25,-148,-12,-5,43,58,45,-28,154,285,34,31,310,10,-54,-19,22,22,-82,407537
-22,15,20,54,13,6,49,-35,46,64,-331,-66,64,22,-57,-33,8,24,12,-55,133,250,-7,-15,444,-3,-81,-40,-23,-38,-29,407538
31,23,-6,64,9,5,195,-137,-80,-99,-138,6,154,82,-21,11,-3,-19,-61,2,254,237,-22,-90,663,230,-148,-109,-92,-80,-104,407539
231,64,-45,62,33,20,463,160,-152,5,141,80,-146,132,-1,228,9,-25,-120,237,735,341,-6,-173,1090,977,-216,-149,-165,-100,-340,407540
313,66,-66,3,27,15,439,177,-134,73,237,166,-308,162,26,340,-18,-63,-178,346,1003,357,-26,-220,1317,1451,-260,-179,-235,-131,-482,407541
251,52,-31,-36,32,31,183,220,17,-77,12,222,-211,184,64,289,-33,-68,-170,271,831,207,-60,-181,1243,1349,-223,-170,-240,-112,-377,407542
16,6,11,-53,-11,-11,-100,-147,-25,-27,-15,19,-80,67,-33,28,-57,-66,-98,-17,159,-137,-102,-72,822,565,-96,-156,-213,-65,-13,407543
-41,-1,21,-29,-16,-28,-102,-35,-70,-34,66,97,-213,-15,-70,-83,-91,-79,-102,-98,-116,-281,-115,-63,598,258,-76,-183,-219,-72,-5,407544
-11,2,11,-17,-17,-25,-18,96,35,-28,-67,232,-90,113,-8,-29,-49,-55,-47,-51,-91,-276,-50,-20,528,328,-30,-128,-186,-52,-40,407545
-14,7,-3,-16,-19,-32,24,142,-73,26,21,12,-28,153,-12,45,32,34,33,19,-116,-247,47,96,461,286,72,-38,-63,45,83,407546
2,22,2,-15,-16,-28,52,-70,65,185,187,18,54,142,-23,118,86,104,44,89,-91,-152,73,162,433,296,124,25,34,131,101,407547
-37,5,5,-37,-36,-30,-9,-180,74,-49,-55,-28,156,-15,-38,111,95,114,67,70,-161,-153,73,184,288,196,158,36,70,154,158,407548
17,15,4,-4,4,-2,-41,-146,-15,-83,59,49,-77,-172,5,92,40,58,-3,75,-103,-138,7,93,176,258,97,-29,-16,78,23,407549
208,9,-55,-42,19,5,129,7,-86,-122,218,105,-90,24,29,256,-18,-17,-204,245,415,53,-73,-118,331,952,-53,-173,-187,-73,-334,407550
200,14,-47,-59,11,10,168,6,-7,-82,-36,74,-100,26,44,270,-9,-10,-256,233,518,97,-93,-141,247,1053,-63,-162,-211,-96,-284,407551
137,20,-4,-53,14,20,85,69,7,-93,-60,92,-77,131,84,157,-38,-45,-281,107,398,60,-138,-165,48,857,-103,-173,-233,-131,-183,407552
-37,-2,28,-51,-12,-15,-150,62,87,-58,-34,-9,-6,-34,-29,-26,-11,-12,-137,-63,16,-7,-97,-32,-282,281,7,-100,-125,-41,166,407553
-106,7,41,-7,-9,-22,-216,129,231,30,-70,-76,-30,81,-26,-127,-14,-15,-78,-128,-120,18,-76,5,-432,-15,18,-93,-79,-11,154,407554
-99,0,33,-1,-13,-29,-262,-78,125,40,-84,-132,50,-184,5,-155,-29,-45,-69,-153,-77,101,-50,-40,-407,-38,-40,-123,-90,-34,120,407555
-87,-25,45,-41,-16,-19,-368,17,62,-174,37,-66,55,-166,20,-115,18,5,-13,-103,6,207,-19,12,-227,1,-36,-82,-22,20,136,407556
-94,-39,46,-27,-22,-11,-266,-90,91,-184,-41,-46,73,-54,-15,-118,42,50,12,-85,-10,256,8,45,-94,-55,-3,-90,6,60,152,407557
-58,-9,45,49,6,8,6,-85,72,-170,-50,-139,-2,-16,-114,-101,45,35,63,-62,34,251,44,31,65,7,-24,-99,-33,29,108,407558
-59,18,29,80,25,12,155,-188,-10,-136,-285,-45,-62,-38,-80,-116,1,-12,79,-102,-10,150,25,-15,166,7,-68,-126,-91,-37,50,407559
-112,10,24,55,-8,-21,121,-173,-4,-83,-135,16,-180,127,-80,-126,12,2,137,-131,-171,31,39,44,240,-149,6,-64,-48,5,64,407560
-44,0,6,22,-13,-20,92,46,-133,134,-3,31,-160,92,6,-26,2,24,72,-41,-59,-3,19,30,447,94,-10,-50,-51,7,-10,407561
-24,-12,-11,-3,-14,-10,-27,-94,-170,48,-14,27,7,-172,-83,0,8,21,53,-26,-65,-48,19,30,541,139,3,-32,-53,18,-21,407562
-45,-26,-11,-15,-17,-9,-41,-197,8,-184,-99,12,48,-27,-67,31,68,82,144,-7,-166,-77,77,120,563,52,102,51,18,92,89,407563
-10,-17,-9,-3,1,-6,28,-6,-6,13,83,-21,42,121,-24,93,92,110,114,66,-92,-65,103,121,611,177,103,49,22,103,106,407564
36,18,12,19,32,23,67,-27,16,291,115,59,24,93,40,119,70,86,39,75,-40,-94,99,68,619,259,62,5,-15,67,11,407565
-21,8,15,17,14,12,30,-47,8,59,-105,30,117,140,-96,27,31,47,-15,-18,-204,-178,52,41,476,60,50,-59,-58,30,52,407566
-28,-11,-10,3,-3,7,37,-84,-53,-98,-181,-42,111,-145,-63,-23,-22,-14,-86,-56,-237,-222,-8,-22,335,38,-17,-135,-141,-28,22,407567
18,-11,3,16,11,36,3,14,-94,-146,50,-77,68,-225,-59,-47,-63,-77,-128,-81,-245,-253,-38,-68,173,44,-65,-180,-194,-70,-26,407568
73,6,9,0,26,23,44,-23,-52,-75,127,-21,-44,-43,-82,52,11,0,-85,20,-123,-114,35,-29,159,156,3,-132,-144,-15,2,407569
170,17,-49,-24,18,3,199,229,-69,55,125,125,-172,26,84,259,64,57,-125,236,302,138,46,-51,346,692,-25,-121,-121,-6,-125,407570
192,47,-56,18,28,-3,290,254,66,0,132,70,-146,-18,38,330,21,32,-181,283,515,199,-35,-114,355,988,-84,-177,-180,-58,-296,407571
144,57,-63,18,3,-28,340,57,-17,-66,177,77,-206,64,-40,302,-22,-13,-208,263,631,188,-76,-153,284,1126,-90,-207,-210,-89,-323,407572
-18,26,-19,-2,-20,-47,183,94,38,11,9,25,16,114,-42,150,-27,-13,-148,100,334,113,-74,-101,18,695,-33,-167,-169,-59,-38,407573
-129,-5,30,-15,-29,-39,41,-131,109,79,-26,-24,27,89,15,-47,-64,-46,-73,-68,-24,30,-116,-45,-221,167,1,-114,-125,-52,12,407574
-102,-22,28,-30,-28,-15,17,-189,101,-2,24,-32,-58,67,36,-85,-50,-51,-48,-81,-36,81,-76,-21,-290,112,-23,-90,-123,-29,75,407575
-69,-15,20,-20,-13,-7,-29,-268,60,-121,-24,-25,30,69,11,-64,71,46,113,-43,-39,152,104,73,-327,57,43,-11,-34,74,180,407576
-71,-4,8,-21,-24,-15,-41,-225,-2,-186,-293,52,-150,2,-66,-17,116,85,177,3,8,201,152,99,-295,107,49,48,17,87,176,407577
-74,-6,21,-20,-20,5,-62,-233,44,-152,-133,69,-111,-259,-55,-61,8,-4,-3,-46,14,133,-14,-13,-291,129,-55,-46,-77,-26,0,407578
86,4,-12,-19,17,29,103,-179,-12,-177,-6,51,57,-58,-21,14,-87,-119,-192,42,343,158,-102,-197,-68,628,-204,-173,-238,-166,-352,407579
711,104,-175,-37,93,66,884,385,-295,-120,568,311,-12,287,112,662,-208,-297,-659,689,2032,622,-206,-701,945,3018,-645,-462,-598,-463,-1478,407580
1027,173,-254,-91,102,54,1221,460,-454,-149,852,453,-12,465,198,1063,-309,-381,-1025,1014,3119,853,-349,-1026,1480,4621,-932,-672,-869,-692,-1977,407581
852,170,-187,-111,68,43,906,372,-345,-113,517,246,-155,272,175,934,-292,-304,-983,804,2795,666,-377,-893,1226,4301,-809,-614,-794,-636,-1455,407582
151,56,2,-118,-25,-19,31,-125,-9,-116,-261,-123,-14,-412,-43,249,-114,-43,-379,57,922,48,-188,-242,228,1817,-214,-229,-329,-240,-16,407583
-248,-5,98,-80,-72,-52,-405,-226,97,-65,-548,-225,95,-240,-99,-88,126,179,153,-245,-263,-195,62,269,-187,150,235,123,135,158,701,407584
-192,3,78,-48,-48,-44,-326,-183,16,-198,-309,-139,127,-55,-70,-16,160,192,175,-136,-230,-111,132,261,-15,154,241,135,179,207,620,407585
-155,-7,61,-27,-30,-36,-347,-156,118,-190,-709,-105,-14,-13,-54,-71,70,86,68,-177,-265,-171,70,141,5,101,130,32,93,101,412,407586
-100,-19,61,-11,-11,-4,-314,-11,181,91,-356,-120,138,-201,22,-149,-34,-31,-43,-240,-278,-245,-21,0,-2,94,8,-98,-45,-34,193,407587
-81,12,70,17,-7,-5,-175,293,186,275,-9,-93,89,-75,63,-116,-13,-11,-22,-197,-218,-199,-32,20,89,152,29,-71,-32,-4,109,407588
-17,25,22,1,-28,-40,7,91,96,170,178,62,142,281,103,73,68,65,55,-13,67,-22,73,78,336,492,79,30,54,74,67,407589
289,55,-47,-20,17,-9,354,275,33,193,288,317,60,233,106,402,13,-15,-179,329,939,268,21,-182,786,1670,-171,-98,-119,-63,-525,407590
354,49,-59,-37,37,18,335,355,-78,22,195,132,-100,65,96,358,-134,-171,-369,281,1101,242,-143,-391,746,1973,-374,-262,-318,-244,-706,407591
395,60,-63,-28,38,26,339,290,-113,-18,252,102,23,-57,38,307,-221,-251,-477,246,1167,209,-219,-498,677,2137,-486,-369,-439,-351,-791,407592
138,38,22,-19,5,5,50,46,139,-46,-98,-1,168,-190,3,106,-71,-60,-193,22,516,47,-82,-179,267,1232,-180,-158,-215,-146,-79,407593
-38,11,81,1,-10,-2,-162,-141,142,170,-106,-7,284,-292,-32,-33,51,88,71,-91,-36,-44,25,75,-40,477,78,14,-5,61,319,407594
-28,-6,61,-9,-3,6,-130,-65,142,-1,-121,-16,141,-329,-40,-25,34,54,28,-53,-26,-26,-7,26,-100,514,37,-15,-46,7,203,407595
-82,-1,82,13,-3,9,-103,-24,180,55,-131,-79,181,-300,-34,-125,-45,-29,-9,-150,-206,-154,-100,-25,-309,303,-15,-66,-115,-58,183,407596
-97,5,49,-1,-18,-19,-90,-188,154,257,-60,-50,305,-122,-170,-116,-58,-43,-25,-138,-212,-180,-120,-44,-401,308,-8,-70,-123,-59,190,407597
-120,-1,20,-12,-44,-64,-137,-40,85,121,-59,-40,241,-31,-150,-70,-7,-3,0,-96,-198,-135,-57,16,-439,315,50,-17,-48,11,145,407598
-15,19,-9,-21,-34,-63,-28,233,-20,-20,-30,59,79,162,21,132,45,46,-15,98,138,47,6,17,-242,728,53,29,10,55,-51,407599
361,59,-111,-76,9,-14,436,283,-160,-60,240,353,-11,572,61,569,-44,-61,-364,517,1269,405,-85,-329,333,2259,-285,-176,-213,-157,-836,407600
405,70,-97,-121,15,16,490,135,-123,-58,205,332,0,509,110,611,-106,-96,-483,496,1502,416,-150,-437,317,2618,-377,-276,-328,-272,-829,407601
293,86,-48,-103,1,18,346,-10,-36,-126,104,-7,-90,143,56,487,-65,-27,-375,362,1230,352,-104,-318,122,2259,-269,-209,-251,-207,-493,407602
5,31,42,-59,-25,-12,-89,-243,47,-130,-229,-167,-31,-158,-31,162,-4,51,-131,1,440,94,-69,-48,-302,1126,-26,-47,-73,-44,107,407603
-146,-5,88,-15,-13,-10,-447,-205,80,-76,-654,-284,242,-344,-167,-116,-29,20,15,-259,-171,-123,-93,56,-531,263,66,21,26,16,266,407604
-123,-19,68,-24,-24,-14,-444,-203,-64,-106,-463,-205,109,-190,-46,-110,-33,11,37,-231,-149,-78,-70,46,-374,257,42,36,48,16,193,407605
-128,-20,58,-44,-48,-25,-422,-237,-37,-170,-3,-53,-39,-34,-81,-39,42,79,123,-161,-49,14,3,111,-166,342,113,122,122,91,271,407606
-152,-5,56,-29,-53,-34,-385,-159,97,-27,-222,89,-279,190,-86,12,144,175,259,-98,-38,76,104,238,-19,286,225,233,231,199,297,407607
-153,-15,42,-37,-40,-51,-252,-282,-12,99,-362,18,-170,153,-2,-12,125,131,240,-109,-44,65,96,193,72,256,183,217,213,164,213,407608
-157,-26,47,-27,-44,-36,-213,-19,1,156,-81,-77,80,-215,35,-64,86,66,206,-150,-114,24,72,159,135,150,135,192,196,132,170,407609
14,21,40,6,10,27,-11,226,31,180,214,31,142,-67,-19,87,58,13,115,1,229,130,51,64,411,622,25,158,125,73,-101,407610
76,21,42,5,38,49,83,332,59,236,343,-43,159,23,-15,105,-6,-34,-16,13,307,125,-40,-24,449,769,-53,42,31,5,-103,407611
48,25,34,26,33,32,96,271,66,220,93,-124,107,-160,-69,-19,-119,-111,-162,-94,114,-32,-169,-121,300,609,-120,-103,-82,-95,-176,407612
30,33,32,54,36,25,75,76,-156,117,157,-167,152,-259,-64,-103,-131,-138,-125,-148,-28,-151,-149,-114,247,476,-110,-101,-110,-116,-193,407613
-14,17,38,33,18,16,-10,-195,-50,-53,-34,-36,50,-313,-79,-102,-57,-59,16,-133,-182,-184,-80,20,252,331,31,27,12,16,54,407614
0,18,37,20,18,23,47,-60,89,110,-53,-29,3,-177,-83,-36,-54,-51,16,-70,-154,-201,-73,-12,266,458,13,46,1,-4,41,407615
-78,-1,25,18,-2,2,35,-20,-58,29,11,-150,70,-165,-159,-113,-93,-87,8,-142,-338,-326,-116,-47,59,252,-25,31,-53,-68,74,407616
-91,-4,29,-3,-7,6,-29,-63,-60,-72,176,-168,-21,-60,-77,-130,-83,-78,-22,-152,-416,-337,-116,-37,-107,157,4,21,-57,-69,141,407617
-42,-18,2,-39,-13,1,-72,-23,-65,33,214,-75,-157,-85,58,-28,-45,-41,-49,-53,-251,-238,-65,-35,-141,365,11,37,-23,-29,-23,407618
-7,-15,7,-59,-7,-6,-119,-22,37,29,110,-23,-154,5,-43,67,6,23,-11,23,-124,-141,-29,22,-231,472,80,98,32,33,-31,407619
-22,-10,42,-21,10,9,-183,-34,152,-21,-82,-124,50,-162,26,45,43,65,35,-1,-173,-92,9,92,-381,326,119,130,111,64,109,407620
-44,0,45,14,10,3,-155,11,162,98,31,-172,118,-143,52,-25,40,44,45,-76,-223,-90,21,70,-486,194,95,102,106,37,162,407621
-88,-24,23,8,-15,-31,-118,-58,59,-31,168,-27,29,-83,-8,-124,-7,-34,6,-174,-277,-120,-24,17,-582,41,41,40,54,-40,67,407622
-60,-12,31,28,7,-14,-36,2,39,92,-129,-115,4,-39,-35,-132,-48,-67,-65,-171,-187,-54,-85,-34,-529,95,-16,-16,42,-64,-30,407623
-39,-1,27,24,-6,0,38,-9,-38,117,179,-114,59,-153,24,-94,-46,-67,-73,-140,-74,37,-77,-54,-423,214,-36,-10,54,-57,9,407624
-68,-5,39,11,-2,16,0,-22,-34,41,122,-215,147,-171,-58,-93,8,1,26,-133,-102,88,-13,19,-387,104,8,67,123,6,126,407625
-56,-16,41,11,14,18,30,-5,-9,75,58,-114,2,-358,-34,-80,7,-5,83,-121,-46,85,13,14,-312,152,4,100,105,24,42,407626
-56,7,47,41,30,22,44,-1,-57,-138,124,-40,-77,-170,8,-133,-33,-59,98,-175,-81,25,-14,-6,-265,117,-5,91,63,3,27,407627
-59,14,40,45,35,15,-27,54,25,-175,66,9,-160,31,-16,-139,-14,-18,131,-176,-100,29,4,28,-206,81,14,126,92,25,96,407628
-126,-15,23,18,0,-16,-95,36,74,-11,-204,-77,-82,36,-18,-147,44,39,201,-188,-199,-6,68,102,-153,-58,69,201,166,77,189,407629
-279,-30,34,15,-41,-60,-233,-164,76,97,-385,-154,-88,16,-58,-281,71,80,278,-320,-582,-157,98,205,-240,-581,164,253,260,154,471,407630
-314,-42,52,-6,-58,-63,-316,-114,-37,91,-212,-51,-189,39,-72,-286,127,130,404,-295,-732,-159,179,306,-151,-794,249,326,366,236,575,407631
-289,-52,62,2,-28,-25,-385,-197,-109,-113,-105,-84,128,-206,-110,-252,174,151,478,-242,-806,-144,255,362,-54,-897,288,372,423,284,617,407632
-44,-20,3,16,15,11,-103,-175,-71,-133,2,-25,-45,-24,-18,-44,114,66,256,-4,-283,-24,203,133,328,-140,76,209,250,130,120,407633
70,-5,-21,10,8,16,70,98,-147,-78,199,43,-28,70,24,123,112,81,166,135,13,32,202,56,538,323,17,173,177,75,22,407634
97,25,-13,31,18,36,141,119,-83,-6,164,85,157,211,29,144,43,44,64,149,69,-22,76,-19,541,474,-21,118,89,-4,-142,407635
36,18,-18,24,16,15,127,-11,-6,41,-31,-77,139,27,-32,85,-13,-9,-26,78,-41,-123,-21,-69,385,387,-48,72,33,-63,-105,407636
5,14,1,17,15,2,40,254,-12,57,97,-7,121,-145,24,29,-29,-32,-23,22,-152,-183,-24,-51,232,265,-16,87,35,-51,-72,407637
22,7,-14,-18,10,-8,-11,163,38,235,49,94,142,10,44,46,-15,-15,-13,49,-123,-140,-15,-38,182,312,32,91,51,-24,-35,407638
-82,-18,13,-27,-19,-18,-157,10,34,213,-76,-36,11,169,38,-30,43,70,84,-30,-366,-158,14,129,-38,-74,157,154,155,106,318,407639
-383,-53,106,9,-46,-20,-501,-103,176,29,-507,-199,71,-159,-32,-372,101,157,323,-383,-1227,-364,46,384,-613,-1333,369,269,339,280,872,407640
-415,-45,124,66,-10,6,-514,-220,274,-34,-531,-258,132,-208,-113,-454,117,141,417,-434,-1414,-353,96,432,-766,-1688,397,309,396,317,832,407641
-333,-35,99,76,3,-3,-393,-139,206,0,-246,-177,159,-83,-6,-369,139,124,416,-336,-1196,-260,138,395,-698,-1487,349,299,375,297,691,407642
-150,-18,38,56,-1,1,-182,165,15,198,-10,-14,122,163,54,-204,100,65,269,-160,-664,-94,122,198,-492,-821,173,193,238,167,229,407643
54,21,-7,31,24,20,84,-8,-17,148,114,220,7,151,101,21,47,-4,103,43,-7,101,107,-3,-198,46,13,101,71,23,-114,407644
-25,-4,11,2,13,12,-8,-6,1,-1,27,139,71,68,26,-38,61,25,154,-16,-129,75,101,81,-265,-124,89,143,125,63,12,407645
-7,27,18,12,25,33,70,-71,-111,-76,176,83,255,149,45,-2,64,41,130,16,-77,122,71,94,-200,-57,86,155,156,75,17,407646
-15,33,9,10,14,23,69,-212,-104,-42,332,28,1,254,11,53,111,93,202,60,-26,157,142,153,-105,5,147,226,235,129,113,407647
-52,16,6,-17,-3,-7,-57,-57,4,26,79,75,13,212,23,63,143,130,230,61,-29,155,184,192,-24,2,179,272,266,149,198,407648
-135,-4,27,8,-5,2,-192,27,-81,-201,-127,-5,132,72,-48,-85,77,70,176,-99,-279,-8,93,156,-136,-298,127,208,216,83,266,407649
-326,-20,61,67,-17,1,-364,-447,-80,-341,-204,-186,42,-18,-116,-352,85,94,321,-346,-902,-240,111,280,-465,-1159,254,263,296,153,636,407650
-340,-2,59,83,-14,-19,-348,-471,-5,-47,-234,40,138,18,-52,-365,160,140,409,-312,-1050,-228,209,381,-459,-1410,361,344,388,254,719,407651
-273,-26,46,41,-26,-29,-313,-293,74,187,-128,71,106,198,38,-265,174,146,390,-210,-917,-164,226,343,-329,-1247,318,320,362,257,533,407652
-13,8,10,22,22,13,-73,-165,87,121,284,173,-39,260,61,-44,86,39,211,30,-323,-15,142,120,8,-420,115,193,174,131,-32,407653
95,27,-17,27,53,41,29,-58,-30,-122,110,101,-102,151,13,23,13,-32,51,95,-34,-5,67,-24,169,16,-26,96,65,9,-181,407654
144,48,-29,51,65,50,132,62,-87,-166,-13,48,-124,36,33,57,-55,-78,-120,128,127,0,-18,-142,310,259,-115,-5,7,-75,-325,407655
94,45,2,52,59,59,117,-25,-64,95,118,65,-179,-63,47,21,-65,-82,-162,84,62,-28,-48,-126,282,178,-104,-17,12,-83,-243,407656
94,28,-5,40,40,40,145,207,-97,169,100,93,-85,226,142,67,-41,-53,-129,125,123,3,-24,-89,326,238,-80,8,42,-52,-186,407657
157,44,-20,40,50,40,227,264,-141,-21,208,11,127,283,81,193,52,15,0,246,321,130,111,-28,471,467,-58,89,105,9,-211,407658
-18,26,13,35,13,25,48,128,-60,76,92,-37,189,-181,-22,28,95,73,159,61,-87,10,166,105,199,-98,68,164,189,76,182,407659
-499,-37,149,74,-42,-13,-546,-362,179,223,-282,-181,121,-367,-94,-528,171,192,535,-499,-1482,-425,229,510,-596,-2031,441,381,462,303,1044,407660
-651,-78,177,102,-38,-12,-740,-439,275,220,-377,-328,26,-323,-150,-759,166,178,660,-698,-2080,-591,221,626,-897,-2881,557,438,562,403,1201,407661
-453,-71,114,101,-3,6,-532,-123,116,254,-20,-242,203,-148,-193,-568,164,159,579,-475,-1696,-420,238,514,-629,-2410,453,375,499,373,812,407662
-83,-18,-10,75,28,16,-27,88,-55,203,129,155,154,221,-25,-104,154,116,349,5,-601,-10,242,250,-8,-940,206,267,325,217,147,407663
109,33,-48,69,50,31,306,-30,-2,134,210,242,-151,318,84,132,79,37,119,210,94,165,152,37,262,29,25,136,130,67,-277,407664
57,15,-37,52,34,18,257,242,83,-42,297,41,-346,236,39,-3,-68,-101,-55,58,-3,4,-56,-75,50,-25,-74,-24,-16,-68,-292,407665
55,16,-25,53,48,46,240,296,82,23,458,-1,-245,57,52,-77,-125,-151,-100,-18,-98,-59,-127,-112,-81,-93,-111,-86,-58,-123,-283,407666
72,10,-30,27,34,39,219,197,33,58,54,-4,94,94,-9,-26,-71,-87,-101,23,-69,-15,-60,-75,-72,-44,-72,-44,-9,-89,-200,407667
110,16,-24,43,45,58,135,-10,-65,9,171,-11,51,4,-10,13,-17,-25,-63,54,-51,14,5,-32,-53,-27,-29,20,42,-38,-70,407668
32,6,0,46,43,59,4,-309,-44,70,4,-34,-52,-199,-71,-96,-47,-31,-28,-62,-258,-88,-37,10,-180,-287,-9,35,57,-33,0,407669
-198,-26,75,42,7,33,-268,-424,188,-42,-287,-202,61,-257,-25,-288,57,85,231,-254,-843,-233,75,263,-441,-1105,223,225,282,144,490,407670
-266,-41,87,42,-9,6,-338,-326,227,-50,-364,-123,130,-123,-52,-302,176,184,371,-236,-1020,-211,204,409,-442,-1426,346,355,447,270,630,407671
-258,-50,58,28,-14,-5,-305,-122,135,65,-191,-80,-128,-26,-39,-263,180,185,385,-175,-937,-160,197,398,-369,-1377,351,373,446,277,517,407672
-41,-4,-25,24,12,8,-33,-19,-30,181,-138,-11,-55,23,69,-10,106,102,188,75,-303,54,119,182,-22,-552,159,250,299,168,34,407673
29,2,-56,-21,13,-5,-31,139,-94,-65,-37,85,-68,247,135,124,84,68,43,185,60,155,90,55,125,-96,45,151,179,70,-148,407674
70,11,-58,-50,-1,-18,-125,88,-57,60,110,130,-6,434,140,191,102,78,53,251,249,224,126,63,238,102,65,165,174,93,-122,407675
58,3,-62,-74,-13,-32,-179,28,51,-47,-67,233,-114,546,125,177,122,100,60,263,271,288,149,89,260,99,95,162,199,123,-20,407676
53,0,-50,-23,9,9,-94,66,-79,-237,-175,85,-189,297,82,107,71,53,9,185,203,237,88,31,213,17,15,107,139,65,-89,407677
104,23,-22,38,49,57,134,-106,-58,-233,-94,-10,-110,77,4,54,-8,-25,-51,138,195,158,0,-60,225,29,-91,25,41,-19,-106,407678
65,16,22,49,51,69,161,-175,28,4,92,26,-104,-21,20,-40,-37,-59,-51,30,38,52,-21,-76,127,-147,-102,-22,-3,-57,9,407679
-334,-54,99,29,-31,4,-342,-395,170,172,-28,-86,53,-251,14,-419,104,98,338,-359,-1028,-280,129,303,-441,-1593,268,225,258,187,751,407680
-476,-63,110,69,-38,-21,-465,-338,87,30,-340,-141,29,-358,-32,-537,172,172,555,-456,-1498,-394,218,500,-568,-2253,449,361,417,349,886,407681
-366,-66,93,84,5,18,-351,-73,25,260,-353,-50,101,-147,-43,-479,108,100,464,-386,-1363,-373,171,388,-407,-2057,345,294,355,282,572,407682
-78,-31,31,60,53,64,-39,262,13,53,54,185,81,41,-9,-171,108,65,313,-56,-692,-111,178,224,46,-1123,171,223,267,201,152,407683
135,9,-48,60,70,82,272,307,-89,-176,244,208,-52,265,26,45,9,-30,29,148,-79,34,43,-8,327,-233,-58,38,68,32,-160,407684
84,14,-38,77,51,69,249,-31,17,-41,153,147,-86,253,-8,42,20,10,41,105,-115,-13,38,52,271,-254,10,70,99,51,-64,407685
79,12,-24,73,53,48,234,77,28,144,-25,-22,-52,227,31,-12,-23,-37,-44,52,-159,-62,-2,-22,185,-281,-44,15,40,-25,-83,407686
70,13,-20,68,50,48,226,140,-57,-196,76,-37,-8,139,44,-46,-52,-76,-93,18,-163,-86,-16,-94,89,-250,-84,-51,-24,-103,-42,407687
53,15,-27,68,37,50,191,156,45,-5,158,-4,4,164,10,-59,-70,-76,-87,-1,-165,-102,-49,-82,25,-247,-41,-54,-37,-96,-126,407688
41,6,-1,55,51,65,95,-64,112,-44,-69,32,-60,147,-46,-104,-89,-80,-91,-39,-253,-124,-67,-62,-90,-358,-15,-57,-31,-88,-47,407689
-237,-56,69,30,-5,33,-299,-191,73,1,-374,-128,26,-151,13,-371,-8,21,130,-304,-978,-338,9,187,-532,-1375,208,86,155,72,468,407690
-292,-73,69,43,-14,11,-393,-146,82,-13,-256,-33,32,-209,17,-398,66,77,230,-310,-1111,-338,91,272,-573,-1614,271,188,274,156,519,407691
-372,-81,94,57,-19,4,-463,-434,294,13,-346,53,198,-34,51,-413,181,197,451,-308,-1293,-283,211,460,-611,-1991,434,381,475,313,833,407692
-169,-49,42,67,15,28,-135,-168,264,14,-93,188,2,166,124,-161,172,162,338,-34,-765,-32,171,347,-230,-1326,304,343,436,279,396,407693
137,11,-64,63,53,47,314,88,-15,134,388,209,-94,180,140,139,50,1,-9,268,168,228,54,-21,184,-96,-54,89,125,17,-279,407694
158,13,-98,32,37,16,374,129,-63,-104,299,174,-99,96,83,136,-23,-71,-141,249,366,233,-21,-145,162,153,-166,-51,-25,-95,-392,407695
151,30,-62,33,37,17,325,211,-17,0,178,177,-141,228,154,139,7,-23,-89,234,383,261,30,-89,151,170,-99,-24,-3,-40,-290,407696
132,19,-57,9,41,21,179,161,5,106,73,90,-127,206,83,115,-22,-54,-78,183,347,221,38,-112,112,143,-135,-61,-40,-52,-275,407697
208,37,-35,43,80,65,103,228,22,69,55,98,-89,-155,123,99,-51,-84,-115,164,393,176,24,-185,124,234,-208,-121,-110,-98,-299,407698
62,15,21,68,57,59,-35,168,98,113,-32,-32,30,-335,76,-69,-19,-28,-15,-17,-13,28,38,-69,-50,-299,-91,-36,-21,-57,62,407699
-811,-128,212,83,-93,-55,-977,-590,278,101,-631,-395,256,-393,-112,-884,221,298,750,-843,-2336,-660,263,761,-1124,-3510,673,492,607,457,1692,407700
-1031,-175,254,118,-103,-60,-1197,-624,321,-72,-559,-265,215,-400,-94,-1067,370,423,1121,-956,-3144,-775,422,1110,-1249,-4706,983,768,963,733,1959,407701
-808,-149,188,130,-53,-19,-884,-475,284,136,-564,-108,-45,-113,-25,-853,354,383,1064,-680,-2746,-577,440,988,-837,-4225,876,766,943,704,1455,407702
-212,-62,31,134,45,51,-171,-108,77,139,-2,146,-266,139,126,-316,161,116,509,-113,-1291,-164,264,411,-3,-2252,351,419,510,339,245,407703
321,7,-113,83,112,93,392,77,-160,-46,281,285,-317,308,127,138,-63,-137,-146,323,160,155,9,-196,650,-191,-205,-10,-5,-104,-763,407704
293,20,-97,66,90,63,340,-7,-26,59,354,294,-53,174,194,105,-86,-126,-237,252,208,92,-48,-235,520,-64,-210,-80,-95,-170,-509,407705
205,13,-80,62,49,38,222,29,167,105,96,274,-23,99,162,59,-18,-63,-109,187,89,61,21,-96,405,-215,-82,-1,-19,-81,-247,407706
167,-2,-72,55,39,23,171,233,99,198,-83,124,31,-17,131,67,8,-34,-59,182,82,78,39,-44,369,-214,-46,31,24,-45,-255,407707
140,-5,-56,56,40,27,194,165,12,47,-85,77,27,-93,77,32,-36,-68,-141,142,65,41,-32,-109,299,-223,-95,-46,-23,-95,-235,407708
106,3,-40,51,31,26,185,70,-60,71,116,211,-43,84,155,23,-34,-67,-118,127,30,44,-40,-80,243,-256,-77,-39,-3,-65,-157,407709
87,10,-7,51,43,48,126,280,1,95,311,230,90,228,81,36,17,-21,-55,149,1,84,12,-7,218,-315,-5,20,56,-4,-108,407710
74,-8,-19,46,40,59,99,-35,84,-25,342,41,182,194,78,1,-11,-42,-71,117,-6,60,-12,-31,183,-314,-29,-1,24,-17,-157,407711
103,12,-11,46,56,69,177,181,38,54,311,97,25,98,91,-11,-61,-78,-139,89,71,23,-71,-102,180,-188,-87,-36,-38,-66,-240,407712
90,-3,-31,37,44,52,169,279,-18,-53,187,62,-71,-19,51,-27,-77,-91,-150,64,90,16,-69,-110,146,-156,-106,-55,-57,-86,-233,407713
155,8,-53,28,45,47,231,136,-9,7,117,-1,-295,-3,27,63,-75,-97,-164,137,307,88,-39,-144,211,138,-138,-71,-102,-96,-338,407714
206,23,-53,21,54,46,224,147,-10,165,40,154,-203,-183,95,154,-15,-41,-109,217,459,157,39,-122,273,344,-123,-20,-78,-48,-229,407715
184,27,-29,38,52,54,87,175,-47,101,-19,96,-10,-79,71,96,-39,-66,-131,139,356,93,-4,-121,185,217,-128,-44,-105,-68,-231,407716
200,21,-33,19,50,50,53,55,23,121,160,110,-14,173,96,146,-26,-47,-168,183,448,149,-32,-122,265,357,-131,-60,-89,-63,-242,407717
168,4,-41,-29,14,24,95,83,-5,91,135,209,-141,236,65,194,13,-1,-142,232,500,191,-19,-78,302,428,-93,-25,-27,-18,-152,407718
183,20,-61,-25,26,17,254,190,-27,-108,221,104,-123,140,45,191,-31,-47,-177,216,558,171,-44,-148,302,536,-146,-60,-95,-83,-236,407719
361,74,-92,10,65,47,505,276,-127,-43,303,180,-133,167,26,348,-110,-127,-353,364,1004,275,-101,-339,515,1193,-310,-204,-261,-220,-655,407720
506,78,-146,-18,56,31,636,333,-242,-82,416,198,-83,233,40,477,-193,-216,-608,481,1458,356,-203,-570,651,1899,-512,-388,-465,-393,-912,407721
497,90,-127,-20,47,33,645,202,-188,-74,330,203,-113,65,105,484,-199,-221,-626,471,1542,371,-218,-588,614,2082,-517,-389,-478,-414,-947,407722
243,66,-41,-25,23,15,320,-30,-66,-72,286,109,-75,20,58,261,-115,-100,-355,217,910,178,-132,-307,262,1226,-270,-188,-280,-249,-254,407723
-45,10,28,-22,-20,-14,-33,78,31,125,-55,-45,113,-143,68,11,12,66,-31,-10,105,6,-25,49,-40,100,56,42,41,11,285,407724
-43,-7,18,-15,-26,-14,-61,127,-92,93,-540,-91,86,-114,-23,4,23,66,-11,-3,16,22,-35,63,-5,-20,66,66,91,49,227,407725
26,-9,15,-7,-4,0,-37,-23,-65,86,-197,-51,93,-110,-31,58,37,66,14,77,126,72,-11,45,102,115,39,55,75,66,104,407726
57,-2,16,1,10,14,26,251,27,201,65,-5,80,-171,54,62,-22,0,-54,102,244,71,-43,-42,171,292,-54,-20,-16,6,-42,407727
74,21,4,10,15,10,114,188,-41,117,256,42,67,-220,50,72,-51,-44,-108,124,345,66,-53,-114,200,453,-114,-90,-80,-39,-133,407728
111,40,-25,-2,12,-6,186,279,26,83,249,39,-39,197,134,204,61,65,-11,256,524,191,70,-43,320,696,-9,-12,-6,60,-114,407729
245,50,-95,-47,9,-23,334,294,-109,49,216,165,-210,438,109,424,51,45,-88,469,1043,386,71,-130,638,1416,-87,-39,-67,1,-385,407730
206,45,-83,-62,-1,-33,284,217,-161,-160,272,128,-204,221,95,408,6,1,-87,428,1046,357,-6,-123,656,1467,-91,-44,-87,-14,-419,407731
324,74,-97,-56,23,-7,425,263,-232,-239,282,113,-180,303,78,529,14,-15,-175,543,1364,451,8,-205,844,1940,-164,-85,-139,-66,-457,407732
190,52,-43,-62,9,7,259,209,-221,-187,51,-47,-110,180,-27,365,1,16,-175,348,1012,306,-22,-147,583,1503,-96,-91,-106,-34,-113,407733
76,22,-13,-40,-7,8,168,53,-101,-70,-95,-70,78,61,22,187,-48,-1,-125,157,595,130,-95,-104,318,995,-49,-104,-88,-1,-52,407734
170,33,-22,-1,21,34,284,136,-189,-149,-2,-65,-142,204,-42,173,-118,-103,-235,137,674,70,-157,-240,259,1148,-211,-210,-235,-118,-298,407735
126,25,23,12,32,48,237,205,-172,-299,7,-134,-134,-112,-123,107,-86,-66,-196,40,437,-9,-106,-164,102,822,-160,-137,-161,-96,-171,407736
48,12,58,-2,9,35,161,29,22,-229,30,-100,159,-316,-81,60,-23,3,-77,-40,201,-60,-31,-50,0,466,-54,1,-51,-28,71,407737
-123,9,58,-45,-40,-24,-88,-36,87,146,-22,-10,14,79,21,-21,52,87,59,-151,-148,-115,22,91,-159,-62,107,157,67,50,283,407738
-162,-6,31,-73,-63,-58,-380,-102,81,15,-279,47,-140,254,5,-47,49,88,33,-199,-292,-141,14,77,-247,-301,99,160,46,10,283,407739
-64,-4,18,-74,-26,-32,-412,138,28,-26,-105,32,-143,173,-42,21,40,80,-35,-138,-152,-67,-4,-20,-167,-161,33,98,0,-56,172,407740
26,-12,21,-66,-13,-17,-285,232,77,140,-63,42,70,94,37,99,60,93,-35,-37,40,29,15,-48,-52,41,7,111,6,-64,126,407741
-142,-43,78,-27,-29,-20,-322,-207,214,-1,-253,11,-10,-6,106,-78,112,154,153,-192,-416,-91,43,158,-259,-622,185,252,183,64,451,407742
-227,-27,89,33,-22,-25,-255,-211,113,45,-130,-127,-68,-187,48,-278,13,48,109,-352,-740,-252,-75,124,-455,-1048,140,154,154,27,387,407743
-100,-11,31,24,-15,-20,-73,61,175,17,96,-111,326,-232,12,-178,-33,-31,53,-207,-426,-148,-87,-2,-262,-622,38,78,84,-35,187,407744
-37,-1,44,9,18,12,-76,2,134,208,-216,2,200,-308,22,-93,1,3,104,-96,-242,-41,-7,14,-107,-383,46,104,110,7,94,407745
13,3,54,19,28,38,-81,-150,12,120,7,77,69,-233,22,7,55,51,106,35,-38,72,40,66,81,-127,78,124,158,95,45,407746
71,9,25,15,29,36,13,-237,-18,75,-106,201,-247,-112,15,106,44,29,82,171,248,179,35,46,272,281,43,102,143,134,-100,407747
81,12,-11,-5,18,-4,130,-41,13,28,-292,109,-172,137,75,145,22,-15,55,232,454,212,39,-15,363,610,-21,56,60,107,-184,407748
69,11,-10,-2,13,-6,150,205,32,-94,64,86,34,55,39,146,52,8,80,245,480,212,90,-5,362,681,6,60,45,143,-41,407749
-172,-6,70,40,-11,-11,-131,38,124,-154,-188,-149,86,-123,-94,-123,93,101,282,-20,-208,11,107,222,1,-240,200,160,194,278,512,407750
-400,-37,117,78,-29,-19,-340,-83,162,39,-377,-341,11,-156,-113,-391,101,137,496,-264,-910,-231,104,402,-307,-1177,350,258,324,392,807,407751
-560,-76,123,80,-64,-40,-511,-489,207,4,-351,-357,-10,-403,-85,-563,106,154,584,-428,-1416,-397,133,516,-468,-1864,454,330,424,474,891,407752
-146,-9,27,109,16,16,-31,-3,12,58,204,-39,-89,60,5,-193,40,0,293,-17,-476,-87,93,179,160,-596,130,157,220,282,14,407753
364,63,-81,68,91,84,563,329,-133,127,432,174,-148,231,32,307,-90,-157,-198,433,881,274,-35,-306,819,1283,-305,-113,-165,-62,-681,407754
309,26,-45,21,73,84,477,176,-128,31,230,58,-86,14,62,274,-65,-84,-204,298,733,181,-41,-270,630,1099,-246,-79,-162,-84,-453,407755
172,12,-2,34,48,64,286,95,-69,2,172,-84,61,-135,0,95,-57,-35,-148,19,203,-70,-64,-204,258,385,-161,-49,-139,-108,-158,407756
25,12,44,46,20,30,159,-124,56,-41,52,-160,60,-242,-46,-38,-10,38,-40,-164,-249,-214,-23,-85,-10,-278,-29,27,-62,-88,96,407757
-152,-18,45,28,-28,-33,-23,-71,0,-27,19,-169,59,-7,-34,-156,60,111,99,-327,-701,-317,49,72,-238,-971,126,153,81,-43,399,407758
-345,-51,44,6,-69,-80,-315,-195,4,39,-198,-187,141,-7,4,-314,111,159,222,-503,-1180,-428,110,203,-512,-1708,260,253,204,5,704,407759
-1233,-196,265,37,-174,-147,-1384,-700,375,-55,-922,-575,230,-469,-224,-1230,315,420,939,-1420,-3614,-1118,311,970,-1805,-5180,970,722,796,445,2336,407760
-1551,-254,357,110,-176,-126,-1749,-1122,435,196,-1095,-601,291,-494,-281,-1636,455,523,1382,-1702,-4829,-1329,482,1383,-2195,-7039,1315,1022,1216,764,2760,407761
-1333,-239,260,139,-146,-107,-1516,-882,355,70,-684,-457,300,-382,-224,-1463,447,434,1258,-1413,-4462,-1079,516,1221,-1789,-6690,1152,937,1165,721,2298,407762
-749,-157,103,143,-43,-43,-784,-451,179,56,-286,-155,287,-42,40,-900,287,208,831,-758,-2917,-548,408,706,-881,-4678,671,624,794,450,964,407763
5,-53,-59,93,69,50,78,282,61,126,223,241,-23,305,210,-173,80,-65,228,2,-789,58,258,36,162,-1793,53,215,248,28,-369,407764
133,-24,-84,40,71,69,190,315,-76,91,266,241,-84,302,174,-34,29,-106,59,141,-219,174,179,-116,283,-989,-74,75,51,-68,-425,407765
188,-13,-106,13,66,78,243,318,-131,-10,94,151,-97,163,102,50,-25,-130,-29,244,134,241,97,-180,380,-451,-139,-13,-51,-86,-512,407766
292,1,-124,-7,66,72,332,162,-109,32,134,234,-62,267,126,178,-56,-150,-138,402,562,351,30,-237,577,202,-202,-74,-118,-78,-594,407767
352,24,-135,-10,60,58,417,275,-186,44,314,358,25,302,128,348,-5,-101,-145,582,959,514,40,-198,803,791,-197,-49,-83,-10,-634,407768
315,47,-101,9,53,62,420,375,-119,86,288,180,89,297,68,303,-44,-110,-183,530,984,436,-25,-217,772,902,-217,-85,-123,-13,-500,407769
4,6,-3,12,21,49,45,-73,45,84,-54,-19,55,-40,-40,-29,33,31,121,176,116,132,22,109,287,-220,96,98,72,195,235,407770
-284,-36,85,46,-4,42,-306,-273,100,134,-362,-190,-56,-202,-127,-345,113,128,450,-137,-828,-114,70,426,-138,-1499,383,298,317,409,751,407771
-271,-39,77,67,5,45,-323,109,87,-36,-342,-199,-30,-59,-144,-383,101,98,427,-173,-999,-167,62,406,-164,-1727,369,283,325,405,571,407772
27,-11,-36,56,28,29,35,193,-10,-58,-138,25,18,89,-9,-101,8,-40,154,98,-247,9,20,93,269,-706,96,122,119,195,-139,407773
328,44,-95,50,67,48,373,456,33,66,-55,200,185,298,58,145,-136,-200,-272,301,534,149,-106,-295,633,425,-246,-122,-183,-111,-678,407774
317,58,-82,40,54,37,397,552,-11,232,98,107,213,307,80,208,-83,-138,-291,292,580,162,-66,-279,628,521,-218,-88,-189,-142,-525,407775
113,14,-84,-9,-5,-32,194,5,-29,283,192,109,8,167,71,115,19,2,-86,121,139,19,12,-92,379,-98,-17,67,-37,-50,-79,407776
1,18,-48,16,-18,-31,91,-126,20,164,7,74,-70,22,59,-28,35,34,-2,-57,-268,-113,22,-12,149,-695,52,116,39,-63,68,407777
-80,-4,-9,26,-27,-9,2,-146,37,-5,-65,42,6,-120,-8,-223,-77,-80,-77,-271,-621,-306,-81,-92,-85,-1163,-12,4,-52,-189,12,407778
-218,-37,47,14,-33,6,-227,-256,9,-4,-81,-36,-84,-89,-24,-382,-68,-59,2,-475,-1038,-486,-58,-52,-348,-1748,53,32,-18,-205,265,407779
-493,-90,125,22,-57,-21,-584,-256,148,11,-352,-122,156,-112,-19,-585,111,138,381,-685,-1783,-583,129,316,-684,-2905,352,337,306,31,882,407780
-573,-117,131,21,-65,-36,-634,-246,182,54,-291,-142,124,-158,-32,-636,181,209,502,-700,-2045,-529,198,448,-736,-3383,451,430,459,159,988,407781
-425,-82,72,57,-28,-7,-445,-108,183,-47,-168,-108,61,-83,1,-547,127,139,377,-550,-1732,-396,174,309,-555,-3033,311,301,359,97,740,407782
-255,-81,10,45,-8,2,-260,-89,65,-60,-253,-128,0,-10,-59,-418,49,47,188,-352,-1238,-250,93,114,-315,-2374,139,126,202,16,286,407783
16,-33,-50,45,24,26,70,175,-72,31,38,68,-120,71,-6,-115,-4,-39,16,-7,-384,33,72,-83,112,-1223,-65,9,29,-64,-213,407784
103,5,-69,55,42,24,212,104,-33,-47,484,187,-191,131,64,45,38,-10,43,173,44,200,133,-51,310,-678,-66,32,27,-2,-265,407785
135,28,-89,34,44,7,270,351,-120,57,222,137,-273,403,65,175,91,49,58,313,322,329,159,-2,440,-278,-33,81,73,76,-246,407786
176,50,-90,15,51,21,250,286,-173,45,91,252,-109,374,80,226,93,58,47,367,481,383,120,-20,491,-32,-32,72,51,77,-229,407787
192,44,-87,-13,42,36,152,54,-86,200,209,217,-160,396,73,199,49,-10,9,343,542,354,68,-59,489,104,-69,41,-7,41,-282,407788
209,20,-77,-41,37,49,67,1,-151,140,6,68,-147,149,10,157,-12,-63,-65,314,591,307,-12,-114,483,228,-137,-5,-61,-15,-369,407789
289,13,-79,-44,51,55,165,284,-108,103,190,77,103,-126,87,185,-108,-164,-220,330,773,287,-108,-278,528,579,-286,-141,-205,-140,-545,407790
352,49,-62,-1,65,75,381,369,-112,112,314,214,59,-79,137,275,-75,-107,-265,395,925,337,-93,-299,578,813,-264,-165,-217,-128,-481,407791
241,41,-68,15,27,34,331,241,-31,30,65,104,-65,-51,62,203,-63,-67,-190,298,712,240,-84,-208,433,570,-184,-132,-189,-86,-378,407792
131,34,-35,10,10,4,133,97,-13,117,26,136,7,-103,43,112,-13,-12,-39,183,395,126,-26,-90,285,174,-59,-34,-95,-25,-196,407793
72,19,-13,-13,3,5,3,-6,2,51,-26,-5,17,113,117,150,113,112,117,192,248,141,84,82,288,-45,113,125,77,111,44,407794
29,3,-30,-50,-18,-19,13,-48,56,20,163,22,33,183,94,149,96,83,62,160,204,125,45,55,314,-104,106,114,76,64,55,407795
-75,-6,-36,-54,-50,-44,-25,-123,87,-41,159,102,22,-31,75,-3,47,45,53,-16,-98,-25,6,37,137,-493,102,87,34,10,152,407796
-119,1,-24,4,-39,-52,-13,-8,-91,-163,-33,107,35,-23,17,-135,13,0,55,-151,-343,-163,-3,26,-38,-831,94,67,16,-36,182,407797
-84,10,7,56,4,-7,-5,-104,-43,-174,-240,-19,43,-134,-51,-187,-18,-33,31,-221,-457,-210,-23,0,-112,-997,44,39,-3,-72,52,407798
-16,15,20,59,38,36,57,-61,-18,57,-148,1,157,-167,-2,-135,-13,-24,4,-149,-360,-136,-32,-14,-36,-907,11,29,18,-44,11,407799
-70,-24,15,27,14,27,-5,-204,-17,-110,104,-211,109,-43,-64,-216,-52,-55,-73,-209,-473,-180,-90,-30,-134,-1065,-35,-17,1,-65,46,407800
-199,-27,28,28,-11,8,-125,-145,38,-202,62,-259,-145,-64,-87,-327,-37,-22,17,-310,-778,-255,-60,74,-282,-1494,47,31,56,-4,243,407801
-198,-23,10,9,-18,-1,-120,66,-22,-91,-73,-77,-197,78,-73,-272,-24,-24,11,-227,-663,-188,-41,71,-215,-1389,62,19,39,13,189,407802
-128,-36,-20,-24,-17,3,-99,-89,62,-3,-189,-69,-36,95,-30,-147,26,-3,45,-74,-411,-42,23,83,-44,-1079,75,70,84,50,64,407803
48,-20,-42,-6,20,29,-7,-74,4,-13,-19,18,-205,13,-109,-61,-65,-107,-193,32,-28,15,-68,-128,104,-517,-134,-106,-109,-95,-249,407804
92,6,-29,41,42,50,15,143,12,17,278,-88,-47,-78,-63,-78,-131,-156,-262,6,45,-36,-109,-213,101,-384,-216,-190,-211,-188,-315,407805
69,24,-17,58,25,27,115,217,62,5,195,39,-63,40,47,-27,-46,-82,-35,41,90,8,7,-116,133,-349,-107,-44,-115,-115,-162,407806
58,13,-29,38,5,11,156,145,-11,-24,198,61,34,82,16,34,51,2,105,93,108,68,76,-7,152,-363,-10,53,-43,-29,-67,407807
70,-2,-19,17,14,33,149,15,27,-16,29,-35,-8,40,-58,67,61,50,75,128,106,109,44,36,177,-368,8,68,20,3,-24,407808
42,18,2,29,16,27,131,63,81,88,67,73,35,-163,43,44,49,35,69,103,39,109,-2,45,148,-472,2,61,55,3,-17,407809
23,15,-8,36,5,-6,97,37,41,242,118,96,-131,-116,103,-13,-5,-36,-3,37,-13,30,-40,-41,63,-515,-84,-24,-23,-69,-171,407810
25,2,-32,-4,-7,-17,-17,-74,39,203,-153,-33,-77,112,57,0,-2,-32,-48,24,11,22,-9,-66,17,-481,-85,-20,-33,-83,-130,407811
-45,-9,7,-4,1,3,-276,-41,26,250,-280,25,91,-87,12,-104,-8,-19,-2,-100,-246,-70,-20,4,-140,-828,2,18,17,-52,157,407812
-107,-18,33,-10,7,13,-438,-112,135,97,-259,45,104,-211,-11,-183,24,19,125,-163,-476,-126,21,100,-213,-1161,92,93,97,1,175,407813
-87,-25,22,-17,-3,17,-366,-118,123,143,-21,9,24,-160,-12,-103,91,82,206,-79,-380,-38,91,169,-94,-1092,149,164,185,78,183,407814
27,0,4,-14,13,21,-45,46,147,58,4,151,101,-96,46,43,77,71,125,72,-45,99,68,100,139,-632,105,123,133,53,23,407815
21,3,-16,-10,2,3,44,-32,113,10,-220,49,109,40,-3,16,10,8,34,67,38,88,-8,17,154,-492,41,35,33,-14,-60,407816
46,21,-22,18,14,0,48,-50,-6,274,-101,29,-37,27,43,23,-8,-13,-22,93,119,113,-39,-33,167,-348,-7,-22,-16,-26,-102,407817
131,18,-32,28,37,23,168,80,40,204,-8,85,86,-72,40,75,-42,-48,-106,157,324,146,-54,-106,253,-25,-107,-99,-85,-56,-248,407818
248,30,-64,31,60,48,404,114,-35,99,166,77,50,-147,-85,149,-112,-117,-232,237,627,196,-100,-230,390,441,-247,-217,-197,-114,-532,407819
386,60,-95,17,60,59,602,279,-87,94,179,84,-71,-256,50,277,-170,-194,-373,365,1036,274,-160,-373,558,1063,-373,-326,-332,-207,-789,407820
398,78,-94,-3,56,57,580,292,-76,-190,253,50,-133,24,80,332,-155,-162,-336,401,1178,298,-147,-363,595,1322,-356,-315,-345,-218,-740,407821
405,92,-85,-21,62,59,501,373,-150,-39,354,-41,-5,92,59,393,-129,-137,-301,440,1281,331,-118,-348,633,1491,-346,-288,-337,-204,-755,407822
243,49,-33,-10,42,57,165,252,5,-109,23,-41,-88,-212,-22,256,-55,-38,-147,274,851,201,-52,-180,367,900,-175,-161,-219,-103,-309,407823
113,21,-5,-4,16,33,56,19,-58,-208,-163,-99,-104,78,-16,171,-8,8,-64,192,529,130,-29,-62,218,491,-81,-97,-126,-14,-79,407824
43,6,-8,-22,-33,-6,93,86,-48,-176,27,-119,88,83,2,135,-6,14,-54,143,383,88,-37,-40,134,318,-49,-84,-110,-17,-24,407825
-3,16,-5,-16,-32,-22,55,10,-43,-157,-213,-157,74,22,-38,30,-36,-16,-100,26,173,-25,-77,-72,-20,43,-68,-100,-137,-71,-45,407826
-56,24,26,15,-8,-5,-10,162,71,-46,68,-231,-43,-136,-49,-87,-56,-20,-114,-117,-128,-159,-104,-53,-196,-356,-56,-104,-116,-89,69,407827
-101,10,48,36,-7,13,-51,-143,91,-103,228,-162,-1,-248,-118,-175,-83,-30,-124,-231,-381,-251,-116,-52,-354,-703,-57,-116,-112,-131,116,407828
-104,3,22,38,-16,-26,-32,-237,-27,-9,59,-54,-116,-131,-112,-112,-41,9,-25,-188,-372,-184,-59,3,-306,-760,-12,-29,-52,-102,71,407829
136,41,-69,19,-2,-36,260,-151,-83,-65,322,144,-52,131,40,178,-48,-38,-193,99,326,58,-61,-183,84,156,-173,-100,-161,-189,-449,407830
281,51,-96,-50,16,-27,329,0,-14,-196,266,243,-22,165,116,339,-68,-77,-335,245,777,193,-80,-303,258,770,-272,-185,-265,-274,-707,407831
370,50,-99,-99,23,-14,377,211,-96,-187,187,220,34,329,89,421,-63,-89,-359,317,1052,284,-82,-361,302,1143,-323,-217,-314,-314,-566,407832
103,7,-14,-98,-26,-28,53,-34,-49,-126,-79,51,81,156,15,182,26,46,-110,67,422,113,-12,-90,-98,268,-78,-63,-130,-147,109,407833
-194,-28,62,-60,-52,-34,-321,-215,-19,-172,-179,-126,69,-180,-76,-157,65,100,152,-238,-407,-123,27,157,-501,-879,141,70,73,17,435,407834
-92,3,27,-1,-16,-10,-193,-53,40,-167,130,-66,-19,-43,-108,-198,-130,-109,-48,-222,-216,-142,-131,-72,-403,-606,-66,-136,-109,-150,-51,407835
-37,20,35,28,9,11,-100,47,27,-73,-90,-28,151,-65,-24,-139,-96,-91,-14,-129,-36,-32,-80,-39,-272,-379,-49,-112,-78,-104,-65,407836
53,5,1,-10,10,22,2,154,-117,-97,-39,73,12,-69,-33,19,-45,-54,-6,69,306,141,-25,-38,-27,88,-64,-76,-60,-33,-220,407837
167,25,-22,-28,29,27,124,97,-68,-200,120,7,-59,92,-36,200,-25,-25,-74,278,737,316,-38,-79,200,678,-106,-98,-79,11,-388,407838
269,50,-37,-20,41,32,276,316,-148,-272,285,-23,-112,147,29,334,-50,-34,-202,433,1075,444,-117,-139,389,1199,-167,-177,-148,11,-495,407839
722,129,-153,-32,103,88,821,385,-374,-148,423,178,-227,297,61,766,-189,-219,-619,888,2312,758,-270,-574,1045,3031,-559,-480,-506,-242,-1347,407840
1048,174,-217,-81,142,121,1131,609,-297,-104,401,216,-227,366,154,1074,-349,-376,-967,1119,3277,883,-421,-938,1439,4510,-886,-718,-842,-523,-1865,407841
937,150,-178,-110,109,90,961,391,-188,-121,301,168,-88,124,153,956,-347,-346,-888,930,3047,709,-441,-834,1243,4321,-800,-642,-808,-505,-1609,407842
420,102,-51,-106,2,17,384,178,-12,-8,180,-17,7,-2,9,541,-160,-92,-460,429,1773,327,-276,-344,526,2623,-338,-332,-452,-225,-525,407843
-58,50,56,-56,-69,-60,-140,-180,49,160,-78,-187,109,-191,-73,124,15,126,0,-3,453,-20,-128,107,-80,829,95,-13,-52,81,296,407844
-137,18,76,-53,-70,-80,-252,-139,88,110,49,-3,110,-102,-7,55,49,164,92,-63,119,-82,-82,191,-147,364,165,94,68,128,383,407845
-190,-13,82,-60,-65,-75,-349,-172,103,85,147,4,157,-49,60,-15,64,177,85,-159,-194,-165,-76,205,-260,-89,199,97,105,118,460,407846
-209,-13,86,-29,-49,-58,-293,-366,79,-34,123,-134,225,-82,-34,-88,56,161,92,-244,-419,-217,-57,203,-380,-434,184,79,118,90,394,407847
-185,-5,84,2,-25,-42,-221,-139,63,-222,-417,-184,209,-196,-50,-162,12,101,79,-311,-584,-295,-51,143,-498,-679,117,32,57,6,326,407848
-177,-9,64,20,-24,-45,-171,-112,87,-133,-232,-176,-40,-196,-4,-173,12,70,96,-324,-644,-290,-10,117,-539,-806,112,18,34,-25,267,407849
106,26,-32,6,6,-32,184,136,17,53,72,-2,-126,184,-11,124,-53,-41,-160,-20,168,-46,-34,-173,-141,252,-135,-165,-169,-204,-331,407850
288,51,-68,-24,34,-12,370,374,-57,-42,257,172,-1,36,59,338,-81,-87,-324,177,776,136,-38,-337,142,1057,-301,-254,-297,-322,-621,407851
274,45,-65,-40,20,-6,417,31,-117,-65,400,101,-34,115,93,348,-101,-103,-370,166,874,151,-85,-374,161,1207,-336,-266,-309,-362,-565,407852
2,13,23,-31,-13,-21,151,-223,-42,62,2,-143,-34,-34,-47,35,-79,-63,-188,-135,208,-65,-100,-163,-254,292,-165,-161,-169,-249,-23,407853
-256,-22,105,-6,-30,-36,-193,-157,76,-17,-70,-226,-35,-353,-108,-288,-21,7,108,-404,-569,-267,-37,120,-655,-829,87,22,44,-45,432,407854
-109,4,59,10,-3,-9,-152,-90,-52,-104,-99,-115,-85,-119,-91,-142,6,6,115,-182,-217,-78,12,82,-390,-389,40,23,59,24,166,407855
-13,9,27,-7,7,-2,-140,229,-52,-87,-13,-159,-28,-9,-27,-22,2,-9,64,-15,122,65,10,38,-191,44,-20,-27,23,37,30,407856
67,5,27,-41,20,19,-78,-105,-37,-100,133,-88,68,41,-25,86,-32,-18,-14,106,405,152,-40,-18,-27,451,-65,-82,-25,33,-129,407857
144,12,2,-59,18,23,29,-12,-53,-53,141,-20,108,12,35,225,11,28,-17,258,700,267,0,6,178,872,-51,-43,-1,87,-142,407858
282,50,-39,-42,23,-1,251,269,-75,-135,230,127,130,103,108,429,31,32,-41,491,1177,465,25,-28,488,1548,-88,-34,-23,106,-354,407859
550,118,-126,-30,59,-4,630,240,-191,-21,300,391,48,163,155,727,-56,-67,-300,773,1984,663,-66,-304,885,2766,-327,-220,-253,-59,-875,407860
678,157,-151,-28,71,6,783,341,-183,44,441,411,-48,180,236,875,-103,-114,-475,864,2419,718,-118,-484,1020,3464,-472,-349,-426,-193,-1140,407861
547,129,-94,-53,37,-13,583,169,-205,34,187,213,-42,-7,115,747,-94,-84,-435,681,2113,564,-146,-408,779,3169,-390,-326,-397,-188,-892,407862
215,77,12,-85,-15,-43,102,191,-49,38,-4,137,-118,-55,81,430,0,40,-150,308,1185,262,-88,-85,281,1958,-103,-131,-164,-25,-138,407863
-65,25,58,-102,-64,-77,-259,-8,-40,44,-432,47,79,0,37,173,115,163,164,51,359,66,24,208,-83,802,177,91,94,173,348,407864
-152,-10,46,-120,-83,-92,-305,-233,21,-25,-320,-13,38,9,-84,67,81,117,134,-63,72,-37,-10,184,-246,411,168,71,99,132,366,407865
-215,-18,63,-92,-70,-74,-310,-582,-4,-109,-60,-76,78,-204,-118,-53,60,89,118,-185,-211,-134,-27,180,-389,23,164,62,108,93,406,407866
-251,-32,65,-54,-64,-69,-270,-492,-51,-241,-267,-203,-52,-109,-112,-139,50,93,114,-275,-431,-201,-8,185,-483,-299,177,74,128,80,472,407867
-249,-16,71,5,-47,-60,-224,-60,14,-209,-237,-245,-91,-363,-35,-216,11,50,101,-372,-615,-298,-6,150,-578,-568,154,33,86,28,483,407868
-230,-25,76,12,-29,-23,-265,-178,76,-189,-246,-238,115,-376,-110,-284,-46,-24,59,-446,-730,-399,-53,93,-630,-758,99,-24,23,-45,316,407869
-139,-31,43,-12,-22,4,-193,-174,13,-221,-201,-148,23,-193,-128,-181,-20,3,41,-321,-531,-271,-39,104,-430,-564,106,25,75,-27,212,407870
-154,-40,48,-26,-22,-21,-236,-27,42,-159,-26,-179,252,-97,-126,-225,-46,-24,40,-336,-574,-261,-60,100,-404,-644,70,16,85,-50,212,407871
-99,-19,46,3,-17,-26,-80,43,19,-68,-24,-167,234,-74,-77,-151,-37,-25,15,-242,-391,-167,-58,58,-300,-450,35,-12,60,-55,135,407872
-85,-17,65,32,4,-10,-7,114,97,142,-11,-100,37,-105,-38,-126,-6,10,6,-194,-348,-108,-37,71,-315,-438,45,-12,64,-21,170,407873
-78,-9,36,42,0,-27,32,121,115,155,-37,87,22,-235,-11,-149,-59,-50,-49,-190,-298,-131,-54,-6,-334,-356,-49,-76,-15,-70,50,407874
-31,-4,6,38,1,-24,-39,-118,-16,142,69,-7,-34,-340,29,-72,-47,-44,15,-101,-114,-79,-13,2,-236,-106,-67,-28,6,-25,-75,407875
48,5,26,12,31,33,-135,-20,86,124,-1,15,-13,-7,66,24,-19,-30,15,30,122,34,2,9,-100,204,-76,-13,9,4,-115,407876
105,0,17,-25,26,40,-91,229,193,152,175,106,-21,62,78,132,28,17,14,151,342,143,17,26,56,497,-41,5,19,54,-117,407877
93,-12,-30,-49,-5,-4,34,185,3,169,268,27,-187,70,40,168,-4,-13,-11,207,485,174,-9,-7,156,726,-56,-11,-9,47,-196,407878
190,26,-51,-41,-3,-6,213,76,-69,16,234,68,-102,171,-10,240,-55,-79,-90,290,744,206,-46,-101,296,1139,-157,-69,-102,-34,-361,407879
279,58,-47,-17,27,10,309,205,-98,-59,222,145,-172,218,12,348,-45,-64,-87,381,979,279,-32,-106,439,1483,-147,-51,-110,-23,-423,407880
335,54,-73,-40,18,7,372,311,-160,86,204,196,-114,160,-32,425,-54,-85,-175,433,1206,335,-56,-183,525,1823,-203,-109,-176,-69,-503,407881
301,60,-39,-27,25,4,324,149,-26,15,324,85,-46,100,-21,380,-39,-47,-188,355,1095,283,-45,-173,423,1707,-183,-133,-166,-71,-301,407882
101,40,11,-6,-1,-23,154,26,-62,-79,411,-75,58,-31,-101,179,-21,3,-101,105,543,74,-13,-64,91,1000,-56,-106,-83,-25,38,407883
-66,31,38,5,-23,-38,35,185,7,-34,216,-135,60,-192,-22,15,44,78,127,-85,25,-55,55,126,-152,258,112,40,74,71,265,407884
-79,21,45,1,-12,-28,-5,9,15,-123,-301,-52,-86,-15,8,-27,95,115,190,-125,-114,-59,89,186,-191,18,164,109,145,116,377,407885
-132,0,53,0,-17,-13,-146,-177,18,22,-185,16,-2,-128,-89,-140,58,67,118,-227,-342,-142,70,164,-302,-310,125,67,116,55,349,407886
-158,-11,58,-16,-17,-22,-259,-127,84,42,-174,-26,96,-118,-86,-194,-26,-18,33,-294,-431,-191,14,71,-340,-432,51,-1,58,-33,257,407887
-181,-42,46,-58,-54,-38,-341,84,-6,140,6,-58,10,-62,17,-175,10,24,99,-274,-444,-162,39,118,-331,-500,120,50,112,32,282,407888
-150,-51,41,-53,-44,-29,-293,-15,-26,90,26,-92,-105,1,0,-127,37,74,115,-215,-403,-115,51,153,-275,-468,143,107,148,68,218,407889
4,-17,19,-40,4,17,-70,168,-130,-24,129,-37,92,-35,34,-5,-29,-5,-25,-89,-41,-20,-30,22,-68,22,-6,32,52,-37,-23,407890
28,-7,45,-22,21,43,22,12,-152,129,170,-21,27,-42,-56,-27,-69,-54,-100,-95,13,-51,-78,-62,-67,111,-78,-40,-22,-99,-11,407891
44,-4,24,-29,9,31,102,-4,-28,114,251,10,-22,67,-104,-16,-110,-93,-169,-73,110,-48,-104,-129,-24,254,-155,-93,-82,-155,-171,407892
-32,-2,11,-18,-14,-5,-79,91,-36,2,139,-105,-65,-76,-26,-78,-129,-91,-163,-151,-42,-119,-122,-99,-144,82,-130,-95,-74,-139,-11,407893
-130,-24,9,-23,-35,-33,-372,-125,-51,-165,-39,-100,-82,114,-84,-148,-71,-34,-70,-202,-273,-159,-75,5,-291,-235,-37,-42,3,-63,42,407894
-77,-36,14,-70,-24,-24,-447,-97,-25,16,-233,-83,23,261,-32,-39,-3,32,7,-54,-126,-50,-8,71,-171,-51,14,22,73,28,42,407895
35,-18,23,-68,-1,12,-230,-79,-55,161,-12,107,-123,-68,37,108,28,51,41,117,162,79,22,81,63,350,20,71,111,92,-59,407896
103,0,5,-32,0,16,188,2,36,17,122,62,4,237,10,183,-4,19,-4,209,394,125,-13,25,195,689,-30,24,51,73,-171,407897
107,37,-28,4,4,-3,337,184,-36,-46,195,28,29,216,20,180,-33,-36,-34,216,458,116,-36,-27,208,819,-63,-36,-13,37,-217,407898
153,64,-42,11,11,-7,339,255,-1,84,88,18,45,65,20,210,-60,-68,-82,238,609,126,-63,-105,262,1069,-120,-83,-77,-24,-270,407899
142,53,-38,12,13,-12,254,303,42,59,233,120,-33,197,91,220,-47,-45,-72,233,603,157,-57,-84,265,1059,-96,-75,-54,-16,-251,407900
268,66,-83,9,25,-16,386,172,-83,-160,330,263,-113,235,20,314,-132,-159,-283,312,966,221,-134,-286,368,1576,-296,-221,-233,-175,-561,407901
226,62,-52,-5,14,-5,307,74,-47,-159,186,214,-64,164,-3,223,-157,-174,-327,179,843,106,-142,-325,138,1428,-320,-263,-313,-245,-424,407902
87,35,13,-12,-3,-2,140,-25,9,-114,123,-45,247,108,-41,35,-112,-97,-212,-26,375,-33,-121,-168,-128,798,-171,-166,-210,-166,16,407903
-28,28,49,7,3,-1,46,-89,116,0,281,-114,84,-33,-19,-59,-54,-16,-54,-140,18,-87,-69,-12,-228,260,-24,-35,-55,-67,75,407904
-17,23,18,10,-4,-11,61,-189,44,14,-64,-140,-77,-76,14,-85,-89,-66,-65,-167,14,-108,-84,-76,-165,242,-80,-73,-93,-106,-51,407905
-56,4,28,1,-14,-4,-24,58,35,75,-372,-117,29,-192,-53,-114,-69,-44,31,-205,-121,-122,-25,-12,-169,32,-33,-11,-17,-54,110,407906
-89,-17,40,-14,-32,-13,-139,-5,41,-34,-334,-100,51,-286,-30,-118,-27,-6,110,-205,-192,-86,22,63,-169,-134,47,67,68,-5,180,407907
-133,-32,56,-29,-25,-18,-261,-126,61,84,-425,-123,188,-72,9,-126,39,56,173,-206,-293,-62,36,148,-192,-329,127,126,174,75,275,407908
-146,-35,71,-24,0,1,-330,2,97,-5,-343,-144,229,-99,28,-158,55,76,148,-239,-430,-93,36,151,-258,-503,113,113,183,81,389,407909
24,-6,38,-6,14,19,-93,95,80,89,-270,-97,73,31,25,2,68,63,144,-57,-65,26,89,90,-36,-13,37,127,145,54,126,407910
180,33,-22,18,23,35,191,79,10,178,3,59,-56,123,48,176,12,5,-4,113,450,142,50,-76,214,692,-110,50,5,-58,-258,407911
251,58,-44,27,45,56,259,179,-58,146,106,122,-90,-88,-25,246,-57,-57,-163,187,717,186,-19,-195,328,1097,-228,-63,-123,-159,-572,407912
107,39,-37,8,7,16,149,62,-38,-185,48,7,-90,-117,-81,119,-72,-44,-124,59,421,69,-56,-122,134,752,-142,-58,-90,-114,-274,407913
-52,11,21,34,-13,-17,89,-209,16,-90,-37,-47,22,-83,-27,8,29,85,105,-45,-38,-27,8,120,-63,141,107,80,104,72,171,407914
-6,16,39,38,4,5,199,-37,-11,82,-42,-36,-7,-60,79,97,120,129,163,64,36,49,99,163,52,251,147,131,160,132,165,407915
-54,-2,18,8,-19,-15,101,-41,24,35,71,0,56,8,22,38,57,63,105,9,-55,-42,60,96,-8,188,102,78,115,89,122,407916
-23,12,9,-2,-4,-17,-39,121,111,116,40,-37,55,176,66,56,52,55,103,39,-18,-47,85,91,17,267,100,85,129,94,135,407917
8,2,7,-22,0,-3,-139,17,27,92,-1,54,-84,125,92,91,83,73,146,72,40,-20,120,119,57,344,125,120,143,116,176,407918
81,-3,-17,-64,-4,4,-80,-236,60,5,-87,114,-52,146,43,156,66,41,90,141,249,45,102,47,166,628,62,104,86,69,-64,407919
257,21,-60,-65,16,15,145,160,15,-48,67,66,-3,181,55,285,-38,-79,-143,273,720,160,-4,-187,352,1279,-156,-62,-105,-108,-498,407920
431,66,-84,-43,50,38,409,193,-131,33,202,123,216,72,-47,426,-102,-143,-367,416,1222,301,-94,-378,541,1986,-350,-223,-277,-242,-724,407921
376,72,-78,-28,30,33,423,245,-153,-3,359,127,74,-58,-38,428,-110,-115,-406,373,1223,312,-126,-370,508,2015,-330,-246,-289,-250,-642,407922
167,45,-26,-25,5,7,196,-29,-126,-12,-3,-52,-70,-181,-44,199,-141,-115,-303,125,747,125,-182,-266,213,1376,-249,-205,-242,-216,-255,407923
-82,4,82,-10,-2,19,-135,-443,73,-93,9,-138,28,-307,-104,-97,-73,-40,-86,-182,-25,-100,-107,-36,-202,289,-55,-76,-64,-81,207,407924
-114,-18,80,3,-2,29,-201,-150,71,-8,-58,-274,166,-270,-94,-166,-44,-21,-21,-251,-259,-156,-49,2,-302,-65,3,-59,-9,-36,244,407925
-107,-8,79,30,7,21,-196,-97,155,-100,-232,-278,123,-280,-55,-189,-43,-39,3,-274,-331,-180,-44,-11,-333,-196,0,-62,-14,-42,210,407926
-161,-21,76,30,-15,-4,-291,-167,115,67,-145,-209,-105,-399,-72,-235,-48,-39,40,-319,-463,-229,-61,36,-370,-410,25,-18,17,-29,262,407927
-178,-33,68,7,-34,-25,-294,-335,55,116,-280,-116,-3,-231,-70,-193,14,24,136,-255,-441,-152,-6,122,-286,-436,111,88,127,55,318,407928
-136,-19,67,8,-29,-21,-198,-236,15,91,-67,-48,121,26,-39,-77,102,122,199,-115,-297,-16,80,193,-112,-299,183,179,229,145,326,407929
156,30,-8,16,32,14,148,11,-37,-42,122,143,70,-11,8,169,-29,-41,-103,141,429,179,-66,-126,278,744,-126,-21,-10,-69,-349,407930
306,56,-66,3,34,16,313,185,-84,22,166,182,17,198,32,287,-141,-152,-332,236,900,219,-186,-350,371,1461,-324,-186,-240,-244,-598,407931
347,81,-41,-1,51,41,313,247,91,64,250,108,45,175,133,330,-128,-119,-368,262,1033,224,-165,-361,347,1664,-319,-205,-284,-249,-551,407932
145,47,7,-17,2,8,143,-37,153,-90,213,-5,185,134,168,216,-10,27,-109,122,585,114,-44,-105,120,1064,-72,-34,-103,-79,-70,407933
-158,-3,58,-8,-47,-25,-103,-343,110,-36,-52,-171,275,-55,-17,-58,73,134,188,-154,-235,-109,45,170,-251,-29,153,132,123,108,449,407934
-125,1,50,12,-20,-9,6,-113,91,-217,-145,-57,231,-203,-77,-50,51,94,168,-112,-248,-95,25,143,-171,-26,107,89,126,99,313,407935
-95,-4,34,20,-16,-14,31,-134,-62,-244,-12,-76,102,-80,-128,-47,26,56,116,-107,-226,-104,-12,89,-133,18,81,57,106,64,228,407936
-76,19,5,19,-7,-18,-26,-29,-6,-88,-44,-50,-9,-137,-42,-29,18,47,104,-58,-158,-75,-10,69,-71,122,67,60,84,64,130,407937
-60,15,9,15,-10,-24,-100,-138,58,61,-84,0,89,-93,-40,-18,19,33,96,-34,-128,-63,-3,52,-54,164,59,51,71,57,100,407938
-13,-7,12,-10,3,8,-81,-209,94,-4,25,115,-128,-116,13,20,23,17,52,2,-2,-35,13,-1,-8,324,16,20,40,21,-40,407939
261,28,-46,-38,30,44,249,66,-17,-15,143,113,-119,83,91,339,24,-26,-113,310,788,234,47,-204,433,1371,-169,-74,-82,-91,-532,407940
597,97,-117,-60,75,71,661,300,-269,47,396,254,92,266,104,693,-72,-124,-435,648,1781,526,-64,-494,905,2762,-418,-254,-316,-275,-1016,407941
510,92,-129,-111,25,17,551,340,-241,-112,443,150,-21,336,35,633,-126,-131,-495,543,1745,484,-165,-520,772,2761,-438,-304,-394,-330,-933,407942
148,50,-41,-107,-39,-32,129,-96,-107,-232,-123,-58,59,-29,-20,267,-111,-60,-330,136,882,183,-176,-310,187,1602,-244,-234,-309,-235,-257,407943
-300,-18,95,-48,-67,-41,-418,-479,126,-216,-554,-350,113,-185,-164,-180,54,134,108,-311,-429,-167,-26,145,-504,-198,168,26,43,62,705,407944
-299,-27,100,-21,-39,-15,-468,-199,31,-178,-206,-297,44,-225,-194,-198,92,165,215,-284,-624,-164,30,216,-507,-494,218,89,141,130,645,407945
-274,-36,100,-12,-37,-24,-463,-67,-3,-113,57,-197,17,5,-67,-184,78,168,256,-265,-670,-170,32,227,-465,-621,230,118,190,144,542,407946
-258,-24,81,6,-39,-25,-435,-67,114,-70,229,-74,105,4,-53,-165,98,171,288,-248,-664,-211,73,232,-398,-650,217,166,213,155,476,407947
-197,-32,84,-8,-10,4,-383,-334,148,-63,215,1,241,143,-31,-115,125,171,299,-188,-574,-162,126,225,-291,-564,204,212,235,155,424,407948
-199,-41,89,-22,-22,11,-309,-200,125,-3,-89,39,134,37,-14,-168,68,90,272,-210,-585,-166,106,172,-294,-618,163,185,210,99,401,407949
-103,-20,66,-5,4,23,-163,-4,-3,-73,12,-12,199,56,9,-146,-25,-30,100,-171,-397,-142,11,-2,-199,-343,23,43,69,-47,160,407950
-55,-5,26,20,-14,4,-120,-41,27,1,-85,3,9,209,33,-39,27,42,85,-96,-262,-54,40,16,-88,-166,40,66,94,-42,136,407951
-106,7,26,22,-20,-17,-171,-117,55,152,-106,58,-95,-120,117,-18,131,131,205,-73,-313,-39,130,132,-84,-274,145,164,205,35,225,407952
-124,6,24,13,-21,-22,-152,-242,-70,124,-98,20,5,-46,37,-98,109,67,205,-121,-372,-80,131,102,-115,-355,121,136,184,18,215,407953
-151,-22,39,-10,-19,-7,-154,-12,-27,54,-166,-60,-7,3,-8,-154,84,41,214,-167,-481,-112,106,129,-144,-506,161,144,217,57,317,407954
-80,-12,28,2,-7,11,53,48,-41,17,-44,30,78,80,-54,-102,35,-2,130,-102,-313,-74,34,65,-43,-275,87,111,166,27,136,407955
-107,14,18,56,-4,-6,106,193,-33,-42,-99,-55,-55,73,-139,-144,2,-20,107,-159,-390,-131,10,78,-115,-366,73,92,142,42,158,407956
-148,-2,-5,58,-13,-37,-69,0,-14,-19,-335,-44,-88,-67,-105,-231,-68,-88,22,-250,-504,-212,-43,17,-222,-513,8,10,78,-3,74,407957
-93,2,7,47,6,-20,-152,-23,58,-51,-181,-54,41,-18,40,-144,-15,-32,31,-168,-403,-138,13,40,-166,-403,17,18,105,29,68,407958
-80,-21,28,20,16,1,-207,138,86,121,-170,-21,4,66,127,-90,37,27,50,-109,-332,-82,42,65,-135,-356,63,47,129,59,178,407959
-251,-72,73,-24,-23,-7,-432,-69,188,182,-206,-103,199,-80,20,-282,60,67,185,-302,-807,-257,47,196,-400,-998,196,134,198,135,453,407960
-279,-64,92,-14,-16,-8,-394,-177,151,107,-265,-115,111,-95,37,-321,74,98,288,-326,-964,-289,97,255,-409,-1236,245,200,257,180,493,407961
-255,-36,74,39,4,1,-261,91,28,175,-363,22,74,-74,-11,-306,79,85,317,-272,-919,-236,125,269,-297,-1216,240,241,283,188,464,407962
-205,-27,45,62,4,-5,-169,-45,37,90,-117,67,-67,-75,49,-229,103,68,343,-181,-739,-161,154,264,-152,-1016,217,264,286,184,387,407963
-89,-21,7,36,9,-2,-62,-95,-18,-28,-62,79,-51,38,43,-143,29,-26,197,-65,-414,-96,97,119,19,-577,79,161,165,77,128,407964
-52,-17,3,27,7,5,-8,-2,-92,153,23,71,-30,56,-9,-95,-4,-62,127,-33,-283,-65,69,63,54,-378,23,115,123,26,-63,407965
-27,-9,-3,9,15,8,14,47,6,-23,32,-23,-67,174,19,-57,7,-24,98,-1,-219,-34,32,59,70,-267,34,93,120,39,-29,407966
14,-7,-13,18,30,22,25,154,-81,30,-162,51,-99,182,43,4,64,42,124,68,-144,38,74,98,109,-173,96,112,150,92,68,407967
16,16,-11,55,41,15,31,102,-6,-34,369,69,-132,87,28,-20,55,12,93,37,-150,7,74,63,78,-166,62,91,95,45,38,407968
-51,4,-19,38,15,-25,-16,60,133,-11,227,112,100,158,-54,-66,70,25,96,-15,-234,-36,94,68,-3,-305,77,71,97,49,76,407969
-356,-39,58,48,-27,-56,-337,-180,192,84,-168,9,-11,34,-37,-360,135,153,328,-311,-1059,-249,143,342,-455,-1469,337,199,287,234,718,407970
-597,-88,100,77,-51,-77,-589,-286,276,-132,-422,-160,-131,-207,-76,-648,158,177,531,-575,-1836,-471,178,530,-819,-2568,495,294,435,358,989,407971
-595,-108,117,92,-40,-63,-601,-256,202,-194,-367,-216,-140,-114,-55,-672,171,183,578,-592,-2000,-483,202,579,-833,-2836,536,329,489,409,1106,407972
-351,-91,79,90,3,-4,-251,-48,180,103,-254,-52,-55,-80,-5,-438,138,122,449,-328,-1434,-287,168,407,-457,-2130,367,270,395,319,519,407973
49,-24,-31,59,55,45,276,369,26,235,81,138,-86,114,143,-30,21,-32,112,80,-290,29,66,42,142,-588,26,80,116,87,-180,407974
110,16,-77,73,63,37,354,278,-128,32,394,163,-251,92,153,54,-12,-64,12,140,43,87,42,-77,241,-138,-73,19,15,-26,-257,407975
17,15,-80,36,11,-6,192,12,-55,-66,32,149,-141,245,115,23,28,-10,27,90,-7,81,70,-29,146,-211,-14,29,27,-13,-82,407976
-34,5,-70,22,2,-21,20,-48,-123,-135,-98,64,-125,145,48,8,72,28,73,78,-44,100,94,25,110,-289,39,67,80,22,18,407977
-25,1,-29,19,23,11,-20,-60,-30,-49,32,186,-184,156,4,19,76,44,87,89,-23,133,93,42,126,-274,63,74,81,34,43,407978
-33,-19,-5,4,32,29,30,185,-3,-1,115,129,-71,157,12,-12,64,41,75,55,-103,102,78,42,66,-378,61,55,73,40,59,407979
-361,-78,91,7,-16,9,-317,-339,32,-158,-238,-131,18,-129,-156,-434,103,115,270,-373,-1115,-272,90,289,-546,-1748,272,163,225,170,792,407980
-816,-161,179,23,-80,-40,-972,-463,199,-116,-587,-378,-62,-248,-144,-916,210,271,722,-827,-2517,-665,184,751,-1186,-3693,698,449,598,479,1521,407981
-797,-182,174,51,-35,-15,-1133,-480,238,-12,-595,-387,109,-269,-110,-959,163,202,784,-825,-2707,-693,155,770,-1122,-3988,696,476,667,511,1287,407982
-444,-124,77,83,14,12,-726,-49,160,228,-198,-1,10,-91,-41,-609,143,118,640,-443,-1889,-416,204,523,-578,-2931,459,388,532,391,512,407983
117,-48,-99,53,59,26,86,341,16,184,151,256,-133,370,78,-15,13,-66,139,159,-281,34,117,-17,270,-729,-25,88,111,49,-419,407984
195,-7,-66,68,75,56,366,245,25,36,241,207,-6,244,83,102,22,-49,3,243,59,120,82,-57,371,-276,-45,66,55,-6,-305,407985
172,-2,-63,71,72,53,421,367,13,121,386,188,-97,115,77,63,-13,-80,-77,192,56,88,18,-76,306,-219,-65,4,3,-50,-342,407986
158,-1,-76,51,65,41,403,255,-40,244,348,26,21,335,90,13,-74,-133,-149,132,61,31,-43,-150,242,-155,-137,-69,-102,-113,-373,407987
145,7,-86,38,42,33,412,267,-43,86,258,30,-102,251,15,24,-98,-145,-198,129,108,18,-62,-180,247,-42,-178,-86,-155,-143,-341,407988
75,2,-78,37,20,1,295,142,-96,48,217,25,-117,122,43,-29,-96,-124,-157,62,-24,-40,-83,-122,123,-203,-112,-47,-125,-100,-282,407989
-317,-46,31,46,-18,-14,-240,-141,69,79,-81,-126,-33,-85,-27,-367,29,55,155,-288,-1006,-306,12,241,-459,-1589,241,145,155,151,578,407990
-710,-124,150,50,-54,-42,-734,-482,194,18,-178,-304,-35,-266,-154,-751,197,221,565,-635,-2161,-558,171,670,-980,-3245,628,394,541,455,1292,407991
-788,-161,147,50,-67,-67,-796,-517,20,33,-374,-312,7,-225,-216,-865,211,222,723,-722,-2534,-603,207,762,-1062,-3843,700,489,660,543,1354,407992
-472,-109,65,83,-4,-13,-447,-155,22,131,-230,-53,-68,3,-62,-590,146,131,529,-418,-1839,-369,182,498,-578,-2981,451,351,482,398,658,407993
124,-18,-84,76,90,58,183,206,-85,55,96,209,-194,262,79,-19,-13,-88,0,165,-209,107,74,-67,268,-772,-88,-3,29,19,-425,407994
249,3,-133,49,75,34,315,158,-33,103,253,185,-321,256,6,125,-69,-125,-174,270,300,203,14,-236,407,-89,-232,-138,-142,-123,-605,407995
241,-2,-88,41,66,37,312,59,-33,189,172,183,-142,85,36,124,-41,-71,-139,254,361,218,29,-198,337,-9,-186,-113,-145,-119,-458,407996
261,3,-58,46,77,70,384,61,-161,57,55,133,-36,-77,23,102,-56,-98,-152,229,415,225,-15,-229,321,81,-228,-128,-175,-161,-454,407997
236,6,-68,42,71,65,417,299,-147,101,166,81,81,-194,13,65,-106,-139,-212,188,410,190,-79,-269,287,117,-268,-171,-211,-199,-479,407998
222,33,-79,64,67,43,421,364,-193,96,222,-36,241,-88,-6,61,-117,-148,-220,179,444,179,-95,-258,303,188,-256,-173,-211,-195,-413,407999
-229,-34,16,73,-9,-29,-130,-8,-25,177,15,-96,257,-11,-45,-297,47,68,201,-208,-654,-117,44,211,-236,-1322,181,147,152,120,558,408000
-672,-113,123,66,-77,-83,-658,-309,233,78,-434,-190,76,-59,-53,-639,253,287,662,-535,-1840,-388,241,701,-721,-3016,634,482,574,472,1300,408001
-635,-120,127,55,-57,-51,-554,-361,243,102,-468,-84,-5,67,22,-584,324,315,745,-429,-1882,-355,345,744,-616,-3129,665,542,658,545,1218,408002
-306,-75,37,50,-4,3,-139,-112,146,155,18,78,158,437,64,-320,200,150,455,-139,-1149,-179,255,408,-197,-2116,369,335,430,336,430,408003
175,-10,-104,16,57,39,399,443,-75,38,266,228,177,357,121,113,-11,-79,-77,288,136,129,46,-119,418,-297,-120,-30,5,-21,-614,408004
259,18,-106,12,76,54,346,301,-125,84,24,190,14,187,101,182,-64,-112,-207,320,423,157,-31,-214,467,156,-230,-98,-129,-120,-541,408005
221,0,-104,-6,49,41,231,270,-148,62,-128,156,27,136,75,152,-62,-96,-189,273,365,140,-44,-176,388,126,-183,-74,-126,-103,-436,408006
227,13,-72,0,54,56,318,343,-28,135,-121,160,165,198,125,181,-28,-56,-161,299,409,180,-22,-144,357,206,-101,-78,-112,-72,-426,408007
167,17,-65,2,41,44,280,333,-119,-64,77,203,-117,319,40,141,-32,-45,-150,248,333,157,-38,-128,253,133,-72,-113,-134,-55,-400,408008
114,15,-75,-2,21,13,176,89,-94,-76,-24,112,-236,229,89,115,-21,-20,-92,195,239,105,-23,-89,188,39,-37,-107,-125,-22,-249,408009
20,-17,-64,-46,-19,-23,3,-61,-39,-118,70,108,-259,276,23,116,74,91,74,175,105,87,92,71,118,-171,114,26,15,117,33,408010
-61,-34,-27,-72,-23,-17,-194,-112,-85,-199,-138,17,-204,78,3,43,108,117,160,107,-104,34,130,156,25,-480,179,90,90,177,179,408011
-48,-39,-33,-60,-13,3,-203,-109,-66,-155,-61,-14,-114,84,-6,-5,48,49,109,80,-109,12,87,78,9,-487,71,37,38,112,19,408012
31,-30,-67,-43,-3,-4,-79,23,-69,-133,72,22,-93,147,-49,60,12,4,-10,148,107,93,53,-26,92,-217,-52,-34,-26,36,-75,408013
117,-6,-64,-3,16,-6,127,84,-45,15,77,82,7,93,26,118,-11,-41,-119,211,348,169,5,-102,148,98,-105,-98,-105,-28,-276,408014
198,22,-53,39,48,29,269,82,62,184,72,82,55,143,64,134,-44,-78,-213,224,510,203,-16,-205,147,312,-183,-175,-201,-106,-425,408015
206,15,-45,18,60,55,220,160,12,206,119,51,27,161,59,108,-67,-99,-231,194,530,202,-46,-221,100,326,-210,-191,-235,-150,-352,408016
201,-7,-34,-13,50,61,222,321,1,128,298,59,-69,157,14,96,-103,-130,-220,169,541,174,-84,-241,106,361,-226,-198,-252,-173,-350,408017
202,13,-25,16,51,64,275,337,3,77,108,70,-44,0,-57,89,-107,-118,-237,151,561,168,-106,-240,139,402,-229,-179,-226,-172,-380,408018
217,34,-60,20,34,31,311,144,-98,-50,68,-33,-91,-146,-94,141,-112,-100,-256,190,644,206,-112,-244,224,550,-240,-175,-217,-167,-428,408019
-57,10,16,46,-2,-11,-39,-133,11,-31,-197,-153,31,-239,-101,-107,-32,5,-18,-62,-64,3,-55,30,-113,-393,6,-10,-28,-11,122,408020
-207,-30,57,53,-13,2,-225,-144,180,32,-127,-209,169,-276,-99,-266,27,54,149,-203,-545,-132,-9,184,-297,-1046,141,99,101,98,309,408021
-170,-50,43,31,-14,10,-144,-185,112,95,-174,-131,114,-224,-73,-219,28,20,148,-163,-534,-136,16,169,-253,-1036,136,95,101,108,275,408022
-46,-30,5,27,10,23,40,45,38,75,-192,42,85,-6,-34,-78,7,-1,49,-4,-238,-41,8,77,-70,-614,77,42,53,66,57,408023
172,13,-59,24,29,29,271,308,-168,49,300,227,-51,14,82,135,-63,-81,-137,208,342,114,-51,-119,231,214,-99,-67,-80,-49,-454,408024
184,19,-69,4,9,2,239,24,-7,-22,203,214,-147,50,95,177,-77,-87,-183,202,454,91,-48,-164,236,392,-132,-95,-136,-73,-376,408025
103,10,-52,-2,0,-7,147,-102,74,-36,32,135,-18,-17,-94,143,-27,-29,-96,166,315,51,24,-82,140,237,-55,-39,-94,-10,-210,408026
77,-10,-41,-34,-3,0,102,70,29,-215,-64,69,-26,16,-65,98,-46,-48,-107,128,242,31,-19,-90,74,168,-73,-65,-84,-34,-212,408027
87,7,-33,-21,-1,8,158,45,25,-221,-327,7,40,77,-44,108,-34,-37,-108,158,273,58,-24,-77,103,220,-65,-65,-44,-23,-151,408028
68,15,-41,-6,-9,-15,180,46,-67,-134,-240,28,-171,132,60,140,11,19,-83,186,311,113,2,-28,139,254,-21,-24,-24,8,-98,408029
98,34,-38,19,-8,-26,209,11,60,-7,8,-24,-191,31,55,174,-9,-18,-143,217,436,142,-5,-104,200,433,-102,-73,-83,-37,-252,408030
141,26,-44,21,6,-4,269,27,-70,-47,157,-110,-2,-84,36,153,-102,-117,-265,203,543,105,-113,-228,200,617,-209,-198,-215,-116,-390,408031
205,12,-50,-22,16,22,301,-17,-101,-222,201,3,105,109,38,176,-154,-159,-339,217,685,130,-171,-293,218,827,-262,-262,-296,-167,-412,408032
188,18,-32,-36,16,21,212,45,-65,-36,241,141,87,160,14,191,-98,-75,-243,198,622,142,-120,-181,162,738,-162,-177,-207,-94,-274,408033
101,20,-17,-29,-3,-13,77,-279,-33,-26,170,68,-135,73,12,149,-46,10,-171,131,440,127,-93,-98,25,479,-77,-122,-135,-26,-119,408034
107,9,-35,-66,-15,-14,-4,-5,6,-189,-184,61,-22,64,50,138,-65,-23,-179,130,493,158,-94,-142,5,546,-112,-163,-186,-57,-182,408035
160,3,-31,-77,10,10,6,146,-5,-201,20,-49,60,5,78,167,-58,-36,-158,159,613,182,-52,-173,55,699,-148,-142,-199,-85,-265,408036
170,10,-20,-68,21,21,95,257,4,-27,203,-21,137,31,50,201,-8,-8,-91,183,655,213,9,-113,101,725,-125,-60,-144,-54,-276,408037
183,22,-35,-36,4,2,200,188,-106,7,19,-9,144,-63,19,180,-91,-85,-178,160,688,189,-88,-207,75,808,-203,-140,-216,-133,-415,408038
212,51,-44,-10,12,-9,244,-18,-115,-109,99,48,-63,72,78,224,-93,-76,-188,188,772,210,-101,-214,127,950,-209,-158,-210,-131,-418,408039
169,44,-50,-20,-5,-26,180,-31,-118,-41,-56,110,-193,-44,31,285,-43,-3,-121,233,768,238,-37,-139,178,957,-126,-99,-135,-63,-323,408040
212,55,-62,-18,-7,-25,272,138,-92,-36,179,153,-220,20,64,380,-7,11,-160,328,938,296,-5,-162,307,1224,-138,-114,-126,-66,-385,408041
219,59,-57,-27,-24,-38,318,163,-67,50,305,113,-230,160,98,437,67,84,-123,361,988,320,62,-115,370,1305,-70,-55,-81,-18,-318,408042
143,25,-41,-73,-32,-29,189,49,-118,-62,-203,56,-230,2,-2,328,18,67,-165,255,783,221,-18,-108,266,1082,-45,-68,-84,-30,-129,408043
4,8,39,-50,-9,12,-112,132,-16,30,-403,-24,18,-87,48,106,25,93,-94,45,252,46,-53,13,-15,385,74,-26,4,52,115,408044
13,5,25,-38,-12,-6,-220,152,33,7,74,-27,121,-112,-26,10,-45,14,-172,-18,149,-28,-133,-90,-101,284,-41,-127,-102,-30,22,408045
-35,-7,42,-38,-36,-22,-279,-137,-4,-62,161,-4,100,48,15,-29,-17,17,-70,-48,60,-57,-56,-45,-140,136,-28,-70,-64,-18,82,408046
-44,2,26,-31,-40,-35,-139,-227,5,69,263,53,49,-22,49,37,45,56,11,26,119,-2,27,24,-63,177,10,4,22,46,90,408047
-63,-6,7,-25,-43,-51,-39,-160,-31,222,79,-48,83,-276,17,16,-12,24,-28,-20,38,-46,-47,-7,-121,91,-20,-51,-3,7,64,408048
-19,-6,16,-21,-23,-20,-12,124,16,-58,-74,-104,152,-273,-10,9,-44,-24,-24,-22,53,-49,-46,-42,-103,114,-56,-61,-33,-38,-13,408049
251,19,-41,-39,14,23,274,199,-119,-108,154,146,27,-100,21,254,-84,-122,-195,243,771,165,-60,-268,292,1109,-243,-167,-210,-181,-586,408050
551,82,-109,-47,59,62,658,289,-207,63,250,306,220,19,124,571,-148,-187,-420,525,1647,400,-102,-533,684,2352,-455,-314,-431,-353,-1042,408051
601,104,-133,-38,59,49,737,396,-175,144,227,204,158,-20,130,636,-193,-226,-531,561,1925,434,-142,-628,729,2795,-528,-386,-527,-424,-1103,408052
357,101,-64,-35,22,16,422,257,-179,-63,86,85,130,-5,-36,450,-123,-114,-395,356,1450,299,-114,-403,403,2177,-320,-264,-368,-290,-650,408053
-49,37,52,-56,-39,-3,-133,5,-52,-147,-126,-79,226,-223,-125,78,-30,18,-79,-29,409,8,-55,-50,-143,757,-2,-54,-84,-55,20,408054
-40,-3,62,-93,-33,12,-201,7,24,-93,-222,-93,276,-190,-117,60,-42,-7,-57,-21,309,23,-82,-10,-103,620,11,-23,-27,-1,-18,408055
66,-2,54,-100,-11,23,-86,147,65,-10,64,-148,142,-253,-89,155,2,22,-71,88,473,128,-50,-16,39,822,1,-14,6,31,-62,408056
57,6,28,-76,-20,-5,-32,18,41,83,69,-116,297,-179,-32,137,21,50,-49,76,383,102,-36,11,-9,692,37,-24,26,64,46,408057
34,1,13,-47,-34,-29,-8,-93,35,-106,-7,-194,81,69,28,68,-35,-20,-110,4,284,17,-100,-60,-100,596,-41,-109,-56,-4,3,408058
51,14,2,-13,-32,-21,-12,-25,36,-25,-23,-128,-16,-11,-21,66,-74,-72,-180,-1,324,4,-140,-141,-95,676,-115,-158,-136,-79,-155,408059
283,62,-47,-13,12,2,258,223,-50,-49,280,42,-151,-23,34,309,-118,-149,-297,246,963,211,-152,-312,252,1556,-271,-232,-266,-184,-646,408060
663,127,-125,-32,56,37,758,564,-134,49,532,238,-128,134,30,669,-241,-290,-648,602,2039,494,-250,-692,740,3077,-599,-473,-577,-440,-1308,408061
668,146,-130,-46,32,8,818,408,-150,48,500,233,-76,229,61,712,-238,-245,-711,607,2212,512,-262,-726,719,3374,-621,-495,-633,-483,-1198,408062
370,96,-53,-66,-11,-29,439,127,-117,-130,134,14,-57,28,-25,479,-116,-97,-465,326,1527,321,-160,-436,313,2473,-362,-323,-444,-312,-403,408063
-119,18,55,-48,-70,-66,-200,-321,67,-120,-274,-216,17,-228,-119,16,32,80,-15,-149,205,-64,-17,25,-364,661,69,-42,-91,-20,476,408064
-190,-13,48,-70,-89,-82,-321,-250,85,42,-451,-121,197,-69,-88,-41,50,103,115,-171,-49,-105,-2,119,-389,300,159,33,35,64,377,408065
-206,-28,66,-68,-81,-72,-370,-284,15,108,-224,-117,103,-205,17,-71,37,106,133,-194,-179,-108,-27,138,-390,77,171,52,89,103,381,408066
-172,-3,76,-40,-51,-42,-337,-189,91,83,-240,56,-29,-209,-18,-60,44,104,115,-178,-190,-92,-21,121,-346,37,136,30,99,94,326,408067
-119,-2,87,-19,-32,-14,-289,-30,74,107,71,43,4,-277,32,-62,22,72,107,-167,-182,-84,-19,84,-341,28,103,12,88,64,300,408068
-83,-2,82,1,-21,17,-195,66,29,55,164,-50,79,-300,-88,-89,-34,4,47,-192,-163,-139,-45,2,-343,64,-5,-37,29,-18,170,408069
129,33,22,24,19,32,133,165,-22,29,179,-7,50,-317,-37,68,-104,-104,-134,-12,337,-3,-109,-193,-19,758,-213,-134,-121,-148,-316,408070
346,72,-33,7,46,33,418,399,-131,102,221,159,19,28,53,344,-105,-100,-257,253,987,247,-94,-307,378,1635,-305,-165,-199,-214,-630,408071
398,82,-55,-39,34,29,465,433,-82,-53,106,237,23,190,107,485,-63,-78,-309,377,1307,353,-82,-325,523,2099,-293,-182,-224,-228,-638,408072
259,49,-41,-90,-23,-13,192,217,53,-53,180,-24,18,136,52,389,-40,-48,-236,277,1080,261,-69,-240,331,1835,-187,-144,-186,-184,-268,408073
-2,14,27,-74,-49,-37,-295,85,27,-2,-74,-120,-20,97,-78,98,7,42,-16,-21,305,-12,-37,-9,-97,806,39,2,-7,-31,236,408074
-48,-2,22,-71,-53,-62,-357,57,-36,56,-46,-93,-75,74,-7,80,52,79,50,-24,159,-26,-21,75,-102,606,121,78,94,68,280,408075
-57,0,42,-58,-59,-53,-216,-124,64,59,26,81,48,126,29,137,100,138,119,46,151,24,37,162,-20,582,197,140,186,159,292,408076
-119,5,45,-15,-61,-43,-156,-125,9,-116,27,-39,-32,3,-38,51,50,98,83,-36,-46,-62,-13,136,-141,352,154,81,141,131,260,408077
-117,20,49,-1,-38,-21,-157,-160,16,-340,-170,-69,-76,110,-110,8,21,55,68,-74,-115,-114,-22,99,-186,274,110,36,92,99,258,408078
-39,5,51,-22,-24,3,-137,-132,50,-45,-11,18,-128,156,-70,67,22,43,57,2,34,-62,20,71,-109,459,94,26,64,91,170,408079
317,45,-36,-39,39,42,268,329,-68,29,326,135,-62,119,-9,356,-69,-89,-208,311,896,192,-59,-238,332,1646,-192,-161,-162,-113,-611,408080
894,140,-209,-60,111,77,1054,510,-335,-89,793,311,-112,320,150,884,-316,-375,-855,810,2563,609,-312,-914,1078,4004,-824,-607,-704,-591,-1669,408081
828,145,-178,-72,82,58,943,421,-215,-86,660,184,3,164,89,819,-347,-353,-963,684,2586,534,-383,-948,894,4108,-844,-681,-793,-662,-1424,408082
391,83,-73,-92,-13,-18,379,14,-55,-148,356,-52,-33,-109,-31,422,-256,-200,-695,239,1557,214,-351,-598,259,2754,-530,-504,-559,-458,-646,408083
-173,16,70,-42,-92,-91,-233,-538,113,-90,-331,-224,-33,-311,-170,-105,-71,17,-86,-291,19,-162,-161,-10,-479,590,-17,-105,-80,-74,427,408084
-238,2,91,-5,-88,-87,-192,-211,61,-87,-638,-134,22,-179,-93,-114,65,113,153,-261,-225,-106,-9,190,-439,180,176,63,147,120,521,408085
-200,-5,100,-13,-65,-59,-107,-242,175,-19,-346,-117,81,-70,-52,-72,82,128,164,-206,-185,-67,15,193,-339,188,193,86,172,140,404,408086
-172,-18,58,-10,-62,-64,-116,-336,83,-154,-52,-171,158,-150,-113,-140,-47,-31,49,-274,-172,-137,-52,24,-337,215,7,-24,17,-10,223,408087
-132,-11,65,-1,-32,-42,-172,-110,122,-62,-122,-182,33,-275,-40,-145,-39,-43,37,-267,-169,-154,-27,12,-319,193,-15,-8,-1,-31,150,408088
-106,-15,65,9,-6,-18,-216,-167,99,8,-231,-179,122,-318,-173,-138,-3,-12,48,-248,-213,-131,-14,39,-315,121,10,10,41,1,225,408089
41,2,16,4,15,7,-40,-129,-65,-32,-182,-90,200,-234,-125,0,-17,-46,-35,-99,107,-9,-31,-49,-120,551,-88,-37,-14,-58,-21,408090
84,28,31,19,16,7,85,149,92,94,-160,-63,165,-233,-61,83,28,19,28,-12,235,65,16,-4,-45,704,-16,36,24,-14,52,408091
128,28,1,12,-1,-18,189,133,-26,265,40,21,-9,-100,-15,163,-6,-13,-63,68,440,113,-35,-78,59,1014,-65,-27,-40,-51,-126,408092
61,16,24,5,-11,-18,116,-99,-80,43,50,-32,33,-109,-11,60,-59,-54,-122,-33,283,-4,-105,-117,-65,866,-95,-98,-101,-89,-127,408093
-118,-15,65,-14,-48,-27,-116,-61,93,-84,-3,-59,172,110,-81,-96,6,25,59,-191,-199,-153,-19,77,-268,223,66,35,62,31,337,408094
-82,-1,55,-7,-32,-37,-138,-345,72,-169,171,64,108,49,-63,-11,40,44,84,-109,-130,-121,8,114,-127,327,100,78,140,82,184,408095
-101,-8,14,-11,-51,-61,-222,-386,10,-264,52,-69,-111,-74,-116,-63,-67,-61,-41,-162,-152,-208,-108,-24,-178,376,-14,-56,13,-35,34,408096
-80,-6,18,-4,-38,-53,-239,-306,-22,-263,-241,-30,-111,-60,-85,-17,-29,-12,15,-115,-131,-160,-46,21,-159,406,46,-18,55,12,112,408097
-66,-14,22,-34,-33,-34,-100,-172,-87,-86,-77,-11,-134,52,5,58,80,86,154,-24,-101,-77,89,153,-87,406,179,126,175,130,226,408098
-48,-9,27,-26,-21,-17,79,-55,-58,-86,-19,-99,-3,53,-24,12,22,10,50,-59,-91,-117,12,54,-94,431,89,41,93,49,78,408099
6,8,17,-12,-13,11,147,63,-22,-83,84,-73,28,-4,6,-28,-90,-106,-134,-87,20,-153,-95,-125,-105,588,-87,-117,-70,-92,-74,408100
191,50,-15,-3,22,25,276,163,-23,-19,114,69,34,-83,102,157,-114,-137,-230,80,502,25,-110,-253,143,1207,-220,-190,-166,-166,-332,408101
162,39,-14,-14,10,-9,178,70,-106,-124,-17,75,166,-182,104,172,-83,-91,-222,91,549,83,-100,-213,138,1254,-189,-161,-130,-144,-265,408102
65,40,27,-5,5,-15,34,-60,-32,-120,200,39,94,-209,67,107,-5,7,-89,25,317,63,-17,-74,0,888,-67,-65,-24,-49,-67,408103
-71,11,69,-6,-11,-18,-101,-48,58,-37,197,-178,122,-224,-37,-7,56,73,69,-91,-50,-7,51,63,-187,338,66,14,73,39,224,408104
-74,-11,60,-9,-15,-15,-42,9,73,95,13,-173,54,-163,-47,-9,25,34,78,-90,-49,14,26,46,-161,300,50,14,52,5,169,408105
-70,3,53,16,-1,-2,-20,-25,82,160,-113,-190,45,-183,-76,-55,-24,-12,51,-122,-77,-30,-24,14,-164,261,15,4,16,-32,115,408106
-69,0,48,16,-6,-11,-69,-246,-30,155,-89,-159,-21,-113,-61,-47,15,40,96,-107,-73,-30,12,60,-134,245,62,67,43,15,172,408107
-71,-16,32,-18,-15,-21,-141,-324,20,68,-78,-60,-105,169,-76,-10,54,63,175,-69,-44,19,70,100,-92,252,102,123,82,57,159,408108
-106,-37,37,-49,-26,-25,-241,-362,14,193,-95,-56,-51,99,-26,-49,43,61,151,-124,-174,-27,42,113,-174,83,117,90,94,67,192,408109
-78,-36,22,-53,-18,-30,-222,50,-57,91,-164,-83,11,113,-13,-41,27,59,101,-103,-167,-19,5,85,-147,108,74,60,95,67,200,408110
-68,-30,27,-29,-9,-24,-189,-156,-25,-72,-40,16,-96,56,0,-46,6,32,61,-107,-167,-36,-11,67,-133,114,18,36,84,40,228,408111
-36,-5,43,20,4,5,-102,-51,43,-2,-44,-38,-113,152,-84,-38,17,33,68,-94,-158,-42,5,64,-112,133,6,34,93,48,159,408112
-20,10,46,46,15,17,-29,-63,61,-7,-107,-35,100,-5,24,-39,-9,16,42,-99,-141,-66,-11,23,-106,187,-26,-12,44,17,97,408113
-88,-10,40,28,-11,-10,-16,-100,109,36,-36,-79,228,-197,16,-107,9,22,102,-161,-300,-144,9,78,-184,-15,32,17,62,38,143,408114
-42,18,18,60,10,-11,156,-64,43,165,93,-61,225,-223,20,-46,27,14,60,-102,-189,-108,22,47,-119,131,11,23,52,27,66,408115
-75,11,12,50,-6,-21,117,-48,-42,69,-185,-66,81,-190,-16,-93,-13,-26,13,-168,-267,-172,-44,16,-167,47,3,-5,9,-9,106,408116
-50,15,47,25,6,7,35,-47,21,20,-192,81,-112,-196,-4,-75,-13,-3,27,-150,-262,-145,-51,42,-102,66,58,19,37,4,70,408117
-51,-3,46,-9,-2,3,-91,27,89,154,-51,106,15,-89,-12,-35,36,50,77,-102,-219,-95,9,96,-26,98,113,68,97,50,143,408118
40,19,9,2,11,8,0,83,92,100,48,101,121,-20,44,60,17,23,22,-8,30,-12,30,8,98,436,30,21,34,10,-7,408119
51,31,2,3,12,4,56,34,38,-11,82,67,41,156,89,70,11,11,-24,6,113,12,40,-29,109,522,-15,-7,8,-24,-28,408120
79,9,-16,-31,14,9,62,-89,-163,-27,-20,-19,-16,128,26,106,3,-14,-64,59,252,59,48,-72,151,709,-58,-29,-30,-52,-104,408121
86,-5,-9,-51,17,34,29,-209,-83,-206,-17,-74,-48,36,-67,49,-85,-107,-150,12,251,16,-40,-149,63,738,-142,-132,-135,-139,-178,408122
69,6,4,-38,26,32,9,-26,-81,11,107,-121,-13,-106,20,8,-98,-110,-137,-25,181,-22,-78,-159,-28,644,-147,-136,-155,-148,-224,408123
-33,-9,21,-37,-8,-7,-67,-213,-56,-53,96,21,-60,77,-129,-41,-35,-28,8,-83,-43,-57,-18,-19,-148,308,-22,-13,-45,-53,-15,408124
-79,-2,50,-6,9,16,-134,-448,34,-258,-90,0,-131,-116,-45,-91,-14,13,59,-149,-246,-129,0,58,-228,16,63,40,28,7,97,408125
-94,-9,25,5,-3,6,-105,-226,36,-109,-184,-55,-34,-126,-100,-99,-13,6,42,-145,-303,-125,-18,71,-235,-58,64,25,55,15,164,408126
-100,-6,35,23,-4,3,-108,-56,-36,-146,-192,-156,-150,80,-108,-46,84,112,155,-79,-335,-57,68,173,-179,-138,175,127,164,114,380,408127
-82,-5,14,11,-13,-12,-94,-84,25,-155,-269,-72,-121,306,-76,-1,101,122,142,-28,-227,-11,108,159,-50,-18,160,154,164,123,289,408128
-94,4,16,11,-19,-20,-64,-291,146,19,-160,57,-175,235,24,37,153,176,201,25,-184,65,164,211,44,-8,218,206,232,188,353,408129
-162,5,51,23,-18,-2,-134,-325,112,51,-105,-59,11,159,57,-43,140,178,208,-54,-399,14,131,254,-74,-311,247,176,264,217,431,408130
-349,-52,77,-4,-43,-22,-453,-367,93,-33,-214,-231,16,18,-71,-320,68,110,225,-331,-965,-251,45,290,-419,-1062,246,145,266,197,614,408131
-466,-85,123,-14,-53,-23,-691,-475,62,-113,-186,-234,17,-188,-76,-455,122,148,406,-453,-1358,-363,109,429,-596,-1637,367,269,381,281,815,408132
-449,-111,124,2,-41,-13,-704,-371,37,-3,-378,-182,-138,-146,-5,-468,153,167,475,-451,-1464,-361,154,474,-576,-1841,412,324,420,331,763,408133
-3,-34,10,-11,27,21,-98,-86,-12,-56,-5,67,-209,32,100,4,116,73,198,45,-284,59,139,156,97,-269,117,143,192,162,-19,408134
74,-17,-31,-11,12,-1,129,59,-90,-18,-56,143,-242,80,53,82,62,19,56,113,41,118,101,3,177,194,-21,24,45,23,-175,408135
28,24,-38,67,5,-33,284,56,-146,-80,106,96,-96,49,16,-1,9,-15,0,19,-43,36,53,-31,52,121,-50,-44,-21,-29,-52,408136
3,33,-29,89,-2,-37,247,-37,-5,-17,254,63,19,80,-9,-45,-25,-57,-62,-30,-54,-29,6,-77,2,133,-89,-95,-77,-71,-92,408137
12,19,-5,32,16,0,58,-80,77,169,215,47,43,-112,42,-2,-5,-30,-15,1,24,8,27,-40,63,214,-50,-23,-24,-38,-68,408138
-23,-14,0,-40,1,-11,-68,-204,10,68,-152,140,107,-3,31,59,56,37,86,39,48,73,90,68,127,216,22,88,86,46,65,408139
-467,-81,107,-34,-79,-72,-575,-492,215,75,-509,-75,247,1,3,-336,204,245,456,-372,-1102,-267,227,494,-483,-1389,439,354,401,309,1115,408140
-1205,-175,292,62,-157,-122,-1397,-1011,349,-7,-843,-424,309,-387,-189,-1106,441,542,1205,-1111,-3327,-859,463,1253,-1533,-4543,1157,843,1004,817,2400,408141
-1121,-177,256,129,-90,-57,-1285,-818,339,-7,-766,-376,86,-263,-190,-1172,410,466,1252,-1084,-3563,-869,471,1230,-1476,-4999,1107,851,1051,839,2107,408142
-655,-143,132,141,-13,3,-741,-219,200,155,-261,-221,172,67,-99,-814,265,256,909,-669,-2575,-547,362,821,-857,-3726,715,618,778,587,1159,408143
29,-37,-18,113,84,77,100,270,-56,108,183,188,-80,312,138,-140,75,15,275,15,-717,0,180,180,162,-1183,130,237,299,175,-148,408144
188,0,-68,69,84,75,317,164,-78,-100,611,141,-8,143,159,31,-10,-68,1,151,-84,105,97,-55,384,-300,-91,63,53,-22,-348,408145
124,-4,-78,59,57,40,253,192,-57,-274,284,135,-44,98,60,-8,-5,-61,-16,91,-123,50,94,-36,284,-319,-88,25,29,-47,-191,408146
152,-5,-41,60,68,60,236,224,-49,36,179,52,-7,76,64,25,-23,-59,-64,102,-37,63,45,-54,302,-176,-83,2,15,-49,-213,408147
131,-14,-16,36,53,62,178,86,76,90,192,99,177,11,98,15,-4,-42,-43,97,-18,67,45,-19,287,-153,-47,22,14,-17,-177,408148
76,-7,-20,26,42,42,173,2,-58,-17,292,143,119,7,63,-47,-44,-78,-52,26,-97,3,0,-32,185,-247,-34,-9,-36,-28,-209,408149
-218,-38,55,44,-4,10,-141,-260,139,-54,-70,-13,64,33,-67,-347,-20,-4,150,-302,-854,-271,19,174,-299,-1281,186,93,95,78,406,408150
-712,-123,144,61,-81,-58,-756,-530,205,-55,-421,-264,250,-240,-208,-824,152,206,638,-761,-2222,-625,172,662,-985,-3221,633,390,479,406,1273,408151
-837,-153,153,88,-76,-73,-880,-691,247,103,-551,-218,106,-426,-194,-941,246,296,821,-838,-2695,-683,284,830,-1087,-3954,759,541,662,555,1462,408152
-653,-132,110,104,-32,-30,-567,-394,143,235,-279,7,12,-242,-144,-763,228,233,726,-618,-2345,-504,305,708,-774,-3559,632,496,637,503,1121,408153
54,-25,-43,113,85,75,338,-22,-128,89,211,244,-53,24,148,-120,19,-42,125,55,-566,14,126,75,167,-1141,41,93,170,99,-264,408154
285,23,-92,87,99,107,604,258,-137,122,452,260,-107,158,153,124,-40,-83,-79,280,157,210,60,-127,452,-125,-122,-28,-35,-60,-529,408155
265,30,-101,49,81,81,500,209,-155,143,297,248,-173,191,116,132,-52,-88,-145,261,260,191,29,-170,399,40,-181,-52,-98,-120,-467,408156
200,27,-82,38,67,59,407,101,-96,103,293,155,-88,154,110,81,-40,-93,-131,217,214,128,32,-160,312,0,-183,-62,-114,-130,-459,408157
201,15,-106,19,40,27,371,101,-80,129,260,105,28,86,79,80,-68,-122,-181,203,267,109,-17,-209,252,109,-218,-123,-181,-180,-519,408158
182,7,-88,7,28,12,295,175,-119,104,127,101,-45,41,108,87,-45,-77,-168,187,256,99,-20,-169,202,108,-167,-97,-157,-148,-361,408159
-356,-66,56,21,-59,-36,-354,-179,81,80,-443,-137,-54,-179,-32,-369,124,155,304,-312,-1085,-266,135,351,-484,-1745,315,237,243,187,834,408160
-1051,-171,240,66,-136,-80,-1234,-572,304,117,-918,-285,33,-292,-191,-1054,334,415,1002,-986,-3122,-805,354,1070,-1393,-4617,972,694,823,668,2048,408161
-1047,-179,223,105,-112,-57,-1187,-464,306,158,-805,-252,-3,-234,-187,-1078,369,410,1124,-954,-3328,-790,432,1117,-1283,-5015,1000,765,928,737,1870,408162
-672,-139,113,116,-39,-9,-675,-276,192,112,-536,-46,37,96,-35,-769,240,203,810,-600,-2434,-533,334,744,-713,-3904,653,560,681,514,1014,408163
108,-29,-71,87,83,103,223,214,-130,76,388,280,-141,411,138,-45,31,-77,133,145,-406,69,151,38,343,-1140,0,129,156,74,-421,408164
322,18,-127,30,91,102,450,347,-293,169,586,247,-229,587,144,207,-38,-117,-151,347,388,273,75,-199,605,-36,-229,-39,-80,-116,-626,408165
217,10,-115,21,52,51,301,361,-356,55,342,208,-248,314,97,124,-8,-71,-90,227,259,202,90,-127,410,-196,-155,-24,-82,-87,-348,408166
158,2,-103,22,38,38,212,317,-51,-18,64,335,-153,-24,123,47,-31,-77,-113,144,151,142,39,-119,282,-312,-135,-83,-102,-86,-314,408167
160,15,-77,41,35,46,236,311,-77,-27,5,231,57,-162,45,26,-56,-92,-142,111,155,113,-1,-141,256,-283,-155,-123,-130,-96,-326,408168
143,25,-41,42,43,72,235,167,-38,47,46,78,103,-85,83,21,-30,-62,-95,108,154,101,28,-89,247,-279,-111,-78,-101,-69,-180,408169
-60,-18,-14,13,-3,22,1,-120,6,60,-30,7,-107,-50,56,-129,16,19,56,-60,-264,-23,77,80,-14,-860,57,28,6,30,118,408170
-333,-62,30,14,-52,-24,-337,-315,100,165,3,-21,-130,5,50,-346,106,123,303,-277,-966,-196,161,326,-376,-1837,298,177,207,205,520,408171
-389,-73,52,52,-39,-18,-387,-281,176,36,-241,-22,90,-81,4,-430,141,145,413,-327,-1259,-254,191,412,-453,-2264,383,258,302,271,620,408172
-291,-58,31,61,-7,2,-239,-130,226,41,-234,11,9,-106,-50,-362,122,96,385,-228,-1086,-201,195,355,-283,-2079,310,254,289,226,374,408173
95,5,-52,77,70,63,220,220,23,143,-43,111,-222,29,17,-39,-9,-81,24,113,-146,28,89,-42,219,-769,-57,38,15,-30,-299,408174
205,26,-85,74,70,83,334,223,-233,164,122,51,-288,235,9,42,-87,-147,-159,201,186,51,5,-200,333,-257,-212,-82,-119,-156,-425,408175
191,27,-52,28,64,88,262,109,-38,334,50,97,-80,318,149,113,-13,-44,-96,271,231,120,58,-81,348,-185,-95,3,-34,-56,-272,408176
108,2,-41,-18,31,66,177,-11,10,153,25,-12,-8,228,156,123,56,39,3,258,139,125,103,23,260,-312,11,85,48,33,-102,408177
65,-2,-49,-9,7,40,159,37,-58,-150,68,-9,-78,67,126,78,30,23,-25,215,84,72,56,-1,194,-353,-20,31,14,2,-126,408178
67,4,-48,-18,15,40,115,12,-105,-103,-12,63,-84,-5,40,51,6,-2,-47,197,82,64,35,-23,140,-352,-43,-6,-26,-21,-175,408179
-52,-32,-23,-24,1,27,-184,-82,-74,35,22,-108,-61,-42,-79,-114,-24,-3,-13,1,-293,-86,-18,27,-134,-844,-1,-15,-18,-1,50,408180
-389,-98,67,-12,-37,11,-591,-333,177,58,-328,-283,73,-161,-99,-465,51,102,271,-362,-1234,-374,58,321,-595,-2169,270,152,199,172,651,408181
-452,-97,100,34,-41,12,-573,-186,216,33,-292,-152,122,-188,-44,-516,133,164,478,-395,-1463,-371,143,468,-546,-2566,386,323,365,299,726,408182
-279,-72,46,72,-22,23,-340,-16,139,161,-180,-1,20,-39,-15,-340,134,130,403,-228,-1068,-197,147,384,-202,-2099,300,316,333,265,488,408183
54,-12,-51,66,25,44,64,98,-5,234,54,113,-114,-28,112,-25,21,-41,52,90,-135,64,48,30,279,-835,-10,79,70,33,-185,408184
139,19,-85,39,30,30,229,131,-63,135,263,245,-304,64,145,79,16,-56,-90,181,241,159,50,-103,389,-324,-85,-16,-43,-90,-279,408185
95,21,-68,19,15,22,220,15,-166,-41,97,242,-120,210,189,65,46,-8,-83,142,202,173,60,-52,327,-402,-21,15,-13,-56,-191,408186
89,26,-76,13,24,23,243,106,-11,-129,163,194,8,258,118,15,-49,-90,-179,87,215,128,-51,-141,262,-347,-108,-95,-109,-129,-363,408187
118,41,-74,28,42,44,235,244,-197,90,-9,135,9,-45,82,-11,-109,-143,-205,49,231,81,-110,-212,199,-276,-163,-156,-179,-192,-430,408188
120,24,-49,48,48,58,141,158,-181,50,46,72,-66,-172,11,-51,-124,-149,-175,-9,181,9,-121,-216,128,-311,-178,-152,-194,-200,-396,408189
73,14,-30,43,18,40,109,144,-91,88,52,24,-77,-54,63,-23,-31,-58,-73,19,133,15,-25,-80,129,-397,-63,-36,-93,-87,-125,408190
-13,13,-25,40,-2,14,59,199,-27,185,67,17,-73,77,29,-56,48,22,47,6,-44,25,66,52,65,-645,44,89,20,28,93,408191
-25,11,-18,31,8,7,34,67,81,118,16,46,-17,-15,-9,-62,43,29,53,4,-89,5,70,40,25,-710,39,86,23,33,-18,408192
-24,-10,-39,7,-5,-14,-9,101,11,-12,-64,-1,23,-21,55,-29,72,43,120,43,-78,28,98,77,41,-702,83,116,62,76,-27,408193
35,-9,-65,-6,-5,-8,-53,-11,-60,-93,77,123,-43,178,38,22,15,-12,39,111,83,67,45,7,115,-453,-3,45,-5,27,-100,408194
101,-1,-35,-24,25,45,-159,-23,38,-141,108,95,-45,81,65,46,-40,-66,-103,143,196,60,-19,-96,143,-241,-95,-67,-106,-42,-213,408195
159,4,-40,-43,35,63,-165,98,50,8,-62,166,-62,107,39,124,-31,-59,-148,221,373,107,-17,-131,217,11,-98,-84,-126,-63,-259,408196
99,-1,-42,-35,6,20,-80,68,-50,159,-75,135,-19,255,-29,147,45,32,-11,235,301,125,61,2,188,-111,3,29,-12,26,-109,408197
110,28,-31,27,17,30,219,204,-58,-11,140,107,-23,288,13,125,27,25,-21,218,282,110,58,-16,147,-140,-1,14,-22,11,-137,408198
163,50,-37,55,35,48,407,338,-6,13,357,135,-225,15,29,64,-92,-100,-187,156,314,36,-70,-190,98,-36,-152,-143,-174,-133,-309,408199
52,18,-41,21,-3,25,256,150,-37,-27,112,40,-188,-80,11,-66,-148,-145,-236,9,80,-68,-155,-215,-60,-303,-169,-207,-219,-186,-212,408200
-39,6,-8,13,-20,14,10,-8,119,-46,-41,-93,118,19,-5,-101,-58,-64,-83,-54,-133,-80,-101,-45,-125,-635,-38,-74,-73,-59,-53,408201
-131,-16,0,-2,-44,-25,-166,59,-4,-101,12,-54,56,-31,2,-106,36,28,101,-70,-284,-67,10,102,-139,-873,103,66,64,75,134,408202
-153,-14,31,-8,-20,-3,-170,-205,49,-110,-251,-64,-116,20,44,-95,94,92,182,-46,-301,-36,93,175,-95,-948,178,124,133,138,230,408203
-27,-22,-25,-29,-14,3,54,7,105,-16,-159,66,6,-10,77,16,64,56,77,72,6,73,59,62,110,-555,58,56,70,76,-24,408204
101,-1,-66,-17,-3,18,242,169,107,51,-68,74,62,110,30,72,-57,-71,-116,124,316,115,-71,-143,195,-81,-153,-113,-119,-64,-306,408205
86,15,-43,-3,12,28,161,96,133,55,170,-42,-116,145,47,31,-60,-69,-96,64,256,73,-74,-136,119,-145,-143,-101,-136,-54,-272,408206
69,8,-45,-25,0,14,102,-52,19,-44,37,-28,50,124,4,43,-34,-38,-77,62,281,83,-36,-105,126,-119,-117,-63,-119,-29,-193,408207
23,0,-48,-15,-16,-18,92,-76,-67,28,19,-23,45,-15,-49,25,-13,-21,-76,40,194,59,-36,-59,75,-219,-72,-47,-79,-18,-41,408208
11,2,-39,-1,-24,-23,109,81,-10,3,135,-26,-1,102,-71,-17,-47,-41,-97,-11,109,12,-77,-70,-12,-300,-83,-68,-90,-36,-86,408209
20,2,-31,10,-5,-2,51,244,-30,52,68,-67,-131,49,-39,-62,-74,-78,-89,-49,59,-47,-87,-95,-63,-342,-94,-86,-117,-77,-149,408210
30,21,0,19,14,32,58,131,4,-48,36,9,-210,54,116,-12,8,-15,0,7,72,1,-9,-14,12,-329,8,0,-35,-9,-6,408211
88,37,-24,32,18,26,194,219,-12,24,146,32,0,235,83,73,23,-5,-29,98,236,81,12,-20,146,-133,-7,-7,-22,-14,-100,408212
110,46,-26,53,20,31,261,14,47,32,89,-21,103,230,65,38,-55,-66,-119,64,239,50,-84,-84,124,-85,-78,-82,-78,-86,-226,408213
5,13,-25,52,-12,-4,186,-36,2,9,230,-47,164,64,-89,-107,-132,-131,-137,-81,-15,-87,-178,-129,-75,-383,-113,-140,-136,-147,-194,408214
49,20,-41,46,-4,2,248,215,70,-15,61,-74,21,-23,-56,-48,-132,-136,-131,-17,131,-51,-146,-174,-56,-205,-160,-168,-188,-168,-234,408215
105,14,-26,18,12,37,194,177,61,19,87,-108,2,-133,39,55,-56,-54,-58,78,285,39,-38,-106,31,-22,-105,-89,-114,-98,-199,408216
72,-9,-24,-14,12,34,59,115,-31,16,-84,-12,-97,-151,25,28,-32,-18,-60,69,199,53,-12,-77,-13,-130,-70,-74,-93,-68,-38,408217
85,-2,-28,0,14,20,38,-63,-7,18,-87,29,-78,-65,-19,29,-41,-31,-83,75,214,49,-19,-118,10,-96,-105,-101,-127,-87,-88,408218
147,37,-40,15,25,29,143,135,5,-19,129,45,-5,41,-69,86,-47,-55,-106,137,376,83,-43,-155,118,117,-134,-123,-155,-102,-251,408219
169,44,-44,1,20,19,240,-95,-33,-40,129,146,-107,9,16,154,-20,-25,-102,195,497,152,-49,-118,202,280,-107,-91,-116,-88,-326,408220
316,48,-96,-25,27,8,443,37,-76,103,268,162,-305,185,188,314,-102,-121,-298,355,980,294,-157,-308,437,995,-289,-212,-251,-207,-611,408221
261,27,-85,-51,11,-15,366,262,-150,91,247,135,-98,106,95,277,-141,-145,-360,280,928,233,-215,-343,334,998,-298,-272,-304,-244,-550,408222
120,16,-39,-54,-7,-14,206,2,-64,94,23,63,-47,-58,7,125,-134,-110,-292,108,564,96,-204,-249,111,547,-216,-222,-259,-200,-361,408223
-42,-1,5,-14,-13,-13,-14,-31,41,143,113,-115,20,-74,-101,-63,-97,-46,-134,-78,46,-65,-178,-83,-152,-141,-66,-125,-143,-93,-83,408224
-21,-17,-3,-11,-3,-10,-43,8,-122,-110,6,-87,117,-157,-165,-32,-71,-41,-75,-45,79,-57,-119,-70,-115,-104,-70,-104,-112,-48,-90,408225
-44,-10,28,-9,-4,13,-79,-26,-48,113,-223,-95,216,-179,-108,-40,-33,-11,13,-74,0,-75,-45,-17,-138,-214,-29,-35,-63,-18,-4,408226
-56,-13,12,-13,-26,-6,-52,-61,-102,-14,-214,-102,61,-284,-18,-16,3,10,50,-38,16,-33,0,13,-99,-205,6,3,-32,18,6,408227
-50,-5,-7,-16,-35,-34,2,-90,-52,-30,-60,-57,-140,98,17,30,32,41,35,11,55,1,16,21,-78,-148,30,-4,-16,38,30,408228
-69,-5,-34,-27,-47,-70,9,-142,-43,118,30,-52,-141,377,-44,95,107,114,96,84,95,78,99,76,-6,-115,78,42,48,82,155,408229
77,17,-55,-41,-16,-25,132,199,-72,122,233,133,-6,307,36,244,120,99,59,244,449,232,136,12,239,348,5,30,32,55,-64,408230
244,43,-73,-53,11,14,280,157,-13,-121,153,196,-13,176,41,341,3,-19,-171,317,814,273,2,-187,405,887,-179,-102,-119,-104,-378,408231
288,55,-67,-49,13,22,298,215,-139,-163,339,38,23,233,34,329,-85,-88,-223,295,894,242,-72,-245,400,1045,-228,-151,-190,-174,-443,408232
196,55,-57,-37,-11,-11,199,91,-226,-47,209,-102,-97,155,6,245,-62,-45,-155,212,715,179,-50,-176,257,815,-151,-104,-146,-124,-214,408233
-8,13,-32,-40,-48,-57,9,-56,-86,-94,-146,-84,-164,-8,5,141,79,96,34,102,298,127,51,47,56,201,48,39,25,39,129,408234
-50,3,-15,-46,-31,-43,0,58,-23,-237,-122,-35,-29,-29,33,101,78,72,21,68,204,114,46,26,-5,54,22,6,8,22,19,408235
-40,-16,-14,-62,-40,-55,11,93,-61,-172,-96,12,-1,-148,-57,19,-18,-20,-44,2,204,22,-35,-64,-65,66,-70,-78,-86,-66,-98,408236
-20,-11,-6,-39,-31,-45,-57,-86,-55,-66,74,26,33,-250,-28,-20,-38,-32,-50,-21,164,5,-48,-61,-68,28,-71,-72,-97,-66,-52,408237
-15,2,32,-27,-11,-23,-146,-128,-9,41,30,48,51,-263,-95,-8,0,6,-15,-28,102,22,-27,1,-52,-59,-1,-31,-24,-7,119,408238
10,-9,30,-47,-2,2,-144,-54,0,28,87,18,158,-138,10,26,-12,-2,-17,11,192,49,-24,-29,15,61,-12,-41,-26,-15,-6,408239
191,-1,-14,-54,35,32,56,32,-124,2,199,20,169,-55,34,130,-97,-103,-178,126,571,105,-94,-225,182,613,-196,-173,-195,-153,-375,408240
375,41,-69,-35,50,38,370,283,-90,-37,157,8,83,-90,-10,297,-141,-164,-348,291,1050,238,-140,-403,393,1307,-367,-286,-347,-282,-653,408241
399,69,-76,-16,52,27,484,166,-81,80,449,48,96,57,102,354,-132,-142,-401,318,1164,262,-153,-420,405,1500,-360,-311,-371,-294,-676,408242
274,64,-59,-34,17,-13,334,110,-8,124,268,5,68,-102,67,290,-75,-55,-273,231,903,201,-100,-288,230,1217,-224,-238,-271,-195,-354,408243
-62,24,23,-5,-41,-62,-80,-87,68,121,-255,-134,173,-115,-30,-6,26,87,28,-79,34,-57,-8,34,-237,51,66,-43,-34,4,238,408244
-82,10,51,7,-36,-28,-161,-96,133,120,-251,-13,172,-94,-62,-43,40,87,97,-108,-129,-108,-2,89,-258,-163,101,2,30,68,216,408245
-66,7,69,3,-13,5,-182,-137,188,120,-28,36,115,-36,39,-16,59,86,136,-76,-143,-85,23,127,-160,-200,111,96,111,103,241,408246
-61,-9,53,-5,-16,-4,-152,5,-43,183,56,-99,94,38,-53,4,70,84,144,-42,-142,-47,41,152,-69,-209,109,140,166,112,250,408247
-56,-13,18,-23,-18,-8,-135,-51,85,65,52,-114,-86,64,-29,33,74,98,110,-3,-103,-5,51,148,-12,-176,94,128,169,110,240,408248
-73,-7,20,-34,-22,-15,-156,91,-5,-43,3,28,-10,59,59,22,84,106,127,4,-128,11,62,153,-20,-209,112,136,170,118,201,408249
65,7,-20,-29,-7,-6,10,-88,44,-194,-119,65,157,11,-23,126,10,10,-18,126,239,98,-7,-34,164,313,-45,9,25,-20,-169,408250
248,34,-38,-31,21,22,215,127,-106,-289,-134,37,56,-20,-25,271,-80,-95,-236,254,728,195,-104,-242,352,1004,-210,-171,-162,-176,-489,408251
257,29,-56,-71,9,12,227,253,-142,-109,-108,46,-19,67,49,294,-102,-120,-292,253,848,202,-145,-269,345,1203,-218,-221,-211,-206,-437,408252
196,39,-30,-53,14,23,155,197,-27,-115,277,9,61,64,10,235,-54,-51,-240,191,705,163,-98,-206,211,1033,-167,-169,-174,-163,-231,408253
-2,24,32,-35,-11,1,-66,96,56,37,28,-154,36,-129,-48,40,40,64,8,12,190,50,2,34,-109,280,45,-7,4,2,216,408254
-38,5,22,-42,-24,-24,-89,-24,-36,-26,6,-35,187,114,-68,10,19,30,58,-18,113,49,1,35,-135,157,51,13,16,17,112,408255
-33,-5,5,-50,-36,-40,-140,-94,-118,-98,-40,-80,116,94,-61,-3,-55,-53,-46,-39,136,11,-77,-72,-126,191,-57,-71,-85,-59,15,408256
-7,3,-1,-42,-24,-24,-160,99,-70,-61,4,5,-30,192,13,36,-65,-53,-71,2,206,38,-95,-81,-60,267,-80,-80,-92,-64,-85,408257
1,-16,-1,-53,-21,-31,-212,11,-10,53,33,-24,33,193,-9,47,-46,-37,-50,8,201,57,-82,-47,-57,250,-53,-67,-68,-35,-92,408258
49,-5,-27,-15,-20,-31,8,-89,-21,16,158,-31,37,62,4,103,-38,-42,-114,68,340,109,-89,-100,43,442,-102,-106,-100,-73,-196,408259
191,37,-42,26,12,4,393,50,22,-51,310,44,66,-55,-8,221,-80,-93,-235,192,691,196,-110,-240,242,934,-218,-178,-211,-163,-401,408260
472,101,-81,5,63,44,678,341,-177,3,411,249,-88,-10,38,455,-155,-175,-447,424,1357,366,-156,-464,567,1911,-429,-302,-372,-294,-880,408261
528,104,-95,-43,67,41,641,298,-222,99,216,170,-165,58,56,523,-169,-176,-529,452,1553,369,-176,-503,574,2247,-450,-348,-411,-327,-834,408262
349,78,-58,-53,35,22,382,177,-72,-101,2,80,-30,-122,-39,385,-117,-104,-383,282,1141,230,-138,-338,296,1745,-289,-271,-297,-232,-425,408263
-51,23,34,-41,-32,-31,-97,-171,0,-323,-298,-183,-9,-158,-62,49,20,63,1,-64,117,-28,-20,70,-188,366,89,3,25,34,335,408264
-118,16,42,-27,-44,-56,-161,-199,131,76,-56,-135,92,67,-43,37,69,108,144,-51,-86,2,20,193,-160,84,196,122,153,146,327,408265
-120,1,29,-21,-45,-69,-171,32,186,59,-84,-112,185,-32,-70,-62,-35,8,63,-132,-175,-101,-70,63,-226,-1,67,-6,29,26,165,408266
-89,4,59,3,-21,-28,-191,15,223,68,-211,-67,98,-40,-22,-109,-1,20,90,-163,-262,-162,-29,79,-251,-123,74,10,43,19,296,408267
-59,5,61,-4,-11,-9,-146,-230,218,-104,-28,-30,125,189,35,-49,46,65,118,-91,-195,-95,23,118,-155,-70,126,62,106,65,230,408268
-83,-8,44,-31,-18,-10,-135,-103,117,-239,-200,-31,104,131,112,-42,35,59,69,-76,-208,-68,11,98,-139,-87,126,40,106,59,210,408269
9,-5,18,-35,-2,-12,-14,-197,41,-126,-83,67,128,22,102,28,1,-12,-15,-9,3,-6,-21,-17,-25,200,0,-40,24,-14,-2,408270
129,15,2,-7,22,8,124,-93,92,32,-79,70,261,-9,46,105,-68,-74,-139,65,313,47,-83,-170,81,621,-151,-163,-101,-128,-211,408271
162,13,-16,-7,17,18,159,61,-55,-66,94,28,95,-182,78,94,-164,-160,-273,51,416,32,-186,-279,60,807,-264,-282,-223,-215,-294,408272
127,11,-12,-30,14,8,100,-74,94,-60,221,71,123,-298,37,107,-120,-107,-242,58,412,48,-148,-220,27,801,-205,-224,-190,-169,-154,408273
-24,0,40,-19,-12,-15,-63,-56,142,163,94,-97,90,-166,7,3,-4,28,-46,-56,49,-14,-30,-9,-116,262,0,-43,-20,-29,132,408274
-37,-3,22,9,-18,-32,14,-164,-15,-39,86,-47,-60,-150,-2,9,33,71,43,-36,-5,0,-12,67,-85,142,65,38,63,43,131,408275
25,17,15,30,-2,-8,163,-170,0,-163,116,-29,-2,-30,-14,56,10,34,-2,13,115,48,-42,7,-26,280,10,-9,17,7,-24,408276
53,32,19,43,21,20,187,-6,-20,-120,111,-127,151,-72,-11,31,-36,-25,-73,-3,112,23,-91,-63,-48,286,-43,-77,-31,-27,-79,408277
28,20,-6,-1,8,8,72,-123,-54,-118,-123,-57,29,-155,-27,18,-81,-56,-123,-12,119,14,-154,-100,-75,311,-94,-109,-54,-57,-112,408278
26,11,11,-20,13,6,-50,-191,-42,-80,-326,-38,124,220,-42,61,-57,-31,-94,9,138,20,-117,-57,-90,338,-63,-60,-33,-37,-46,408279
67,23,3,-28,13,-3,-38,15,20,-119,-236,-16,154,329,-40,116,-41,-23,-72,70,269,60,-86,-71,-13,519,-59,-48,-34,-20,-125,408280
226,55,-49,-54,22,0,248,191,-123,-71,232,241,-91,262,19,312,-43,-57,-202,274,783,234,-69,-204,291,1239,-169,-122,-122,-101,-325,408281
313,93,-59,-47,38,19,375,56,-30,-7,236,232,-106,133,19,410,-23,-63,-271,374,1044,330,-54,-241,432,1621,-220,-143,-161,-147,-414,408282
223,75,-43,-46,20,-8,198,9,-92,-76,260,15,-27,40,-61,279,-51,-69,-229,215,791,185,-72,-206,243,1330,-190,-157,-174,-155,-269,408283
-87,15,25,-24,-24,-41,-280,-304,100,-220,-203,-201,56,-230,-140,-93,-56,-55,-37,-174,-55,-159,-59,-49,-258,221,-33,-83,-83,-88,242,408284
-124,-4,54,-14,-24,-20,-294,14,45,-70,-101,-109,-12,-207,37,-127,-30,-17,29,-183,-219,-145,-24,17,-254,-9,34,-12,8,-31,253,408285
-69,-1,70,-6,-5,4,-187,83,39,-75,-66,29,-35,-220,67,-58,18,46,73,-104,-182,-55,5,81,-168,12,112,25,86,39,220,408286
-36,7,63,10,16,12,-179,84,116,-4,-209,-67,-61,-282,-71,-69,-4,20,67,-123,-238,-93,-36,62,-219,-73,98,-9,64,18,154,408287
3,10,66,6,24,20,-151,12,-17,-25,-58,-91,-43,-78,-62,-18,21,33,99,-70,-138,-26,-9,70,-125,40,90,40,91,46,156,408288
8,19,50,2,17,13,-134,-10,-8,-109,-272,-64,-50,-47,-23,1,25,27,88,-43,-82,-10,10,68,-60,115,67,51,102,41,127,408289
107,45,-16,0,16,-3,67,48,-49,-98,114,61,71,68,-68,147,5,-19,-11,109,285,96,-29,-39,153,622,-51,1,31,-31,-202,408290
300,72,-77,-20,26,0,317,196,-149,24,228,165,22,95,-8,352,-79,-100,-219,321,925,272,-76,-272,419,1508,-265,-152,-175,-173,-568,408291
329,71,-71,-48,19,2,280,117,-139,90,-5,205,-45,189,43,426,-68,-79,-290,370,1121,325,-69,-317,461,1821,-295,-207,-241,-185,-576,408292
228,60,-51,-87,-3,-24,100,174,-120,34,-331,177,-248,45,28,371,-43,-51,-238,283,968,251,-63,-254,335,1639,-230,-181,-206,-146,-342,408293
-10,37,39,-74,-19,-17,-240,31,68,3,-452,51,6,-69,13,108,-15,15,-71,-4,286,12,-47,-54,-35,728,-43,-83,-53,-31,89,408294
-49,16,70,-68,-15,-6,-328,-110,78,140,-145,-17,84,-111,0,60,39,75,39,-32,60,-24,1,68,-70,393,80,27,90,81,219,408295
-21,22,51,-47,-4,1,-236,-18,100,-68,-27,13,34,-76,-7,84,49,75,53,14,68,20,16,71,-21,410,80,45,111,88,153,408296
-28,13,38,-33,-7,-8,-211,119,133,-106,-120,-200,48,-50,-93,39,-6,13,17,-42,26,-34,-24,15,-70,358,21,5,54,29,100,408297
-34,23,42,-22,-6,-10,-218,203,97,-32,-291,-121,44,17,-10,36,16,23,30,-47,-10,-51,-2,26,-108,292,50,23,61,41,75,408298
-53,19,14,-3,-33,-44,-200,11,4,-2,-100,-95,-56,-72,71,57,53,55,56,-18,-31,-11,36,67,-115,246,79,58,97,72,78,408299
127,47,-21,-1,0,-19,-61,260,-45,24,112,18,28,186,58,219,39,15,-46,163,381,148,36,-45,116,811,-30,-10,31,19,-91,408300
302,70,-59,-23,29,-2,166,355,-82,-189,169,184,4,133,37,399,-29,-45,-229,329,922,265,-23,-248,317,1561,-194,-148,-158,-121,-457,408301
317,84,-59,-25,9,-1,342,75,2,-112,-53,129,-70,74,7,400,-72,-79,-309,327,1056,259,-79,-330,306,1800,-269,-227,-270,-197,-472,408302
205,85,-43,-5,-19,-23,324,189,-153,-206,151,-36,-116,71,-27,316,-48,-56,-254,239,861,200,-76,-257,151,1555,-209,-199,-227,-167,-288,408303
-83,33,19,-10,-62,-59,8,26,-79,-133,-189,-122,2,-6,-42,40,2,22,-38,-48,134,-22,-30,-29,-232,560,-12,-76,-71,-37,219,408304
-110,16,48,10,-33,-40,-81,-183,17,-126,-99,-123,35,-231,-48,-71,-43,-22,-75,-138,-95,-108,-84,-32,-309,244,-7,-83,-60,-38,172,408305
-98,-4,38,-11,-27,-39,-120,-244,61,-24,-61,-131,-22,-229,-120,-111,-98,-70,-165,-160,-131,-156,-165,-96,-301,218,-48,-140,-106,-71,49,408306
-58,13,58,-18,-12,-7,-97,-162,60,-21,146,-52,133,-105,-53,-102,-124,-83,-152,-156,-122,-163,-182,-130,-293,237,-79,-166,-125,-119,-75,408307
-27,2,55,-5,-2,13,-117,-31,-21,-126,137,-76,75,-249,-3,-105,-100,-70,-54,-160,-173,-145,-126,-80,-287,142,-63,-96,-61,-117,-53,408308
-8,8,58,11,12,21,-103,191,34,-48,38,-79,59,-267,-50,-83,-61,-44,5,-136,-174,-131,-88,-36,-228,110,-21,-47,-2,-67,60,408309
10,11,35,17,8,-1,-41,332,49,38,5,-79,-63,-242,-27,-40,-58,-40,-13,-99,-105,-100,-100,-42,-150,204,-5,-49,4,-57,-51,408310
135,27,-22,20,22,-6,161,351,1,159,204,-46,-72,-52,-33,121,-84,-83,-143,67,338,37,-123,-185,112,812,-141,-109,-94,-125,-363,408311
173,45,-24,7,22,5,215,123,48,51,-25,19,-148,-37,-45,186,-62,-59,-185,136,521,98,-110,-220,201,1031,-180,-112,-136,-152,-379,408312
115,31,19,-6,18,21,104,4,101,-171,-134,104,-54,-139,4,137,-23,-9,-108,70,373,65,-74,-128,117,838,-91,-66,-79,-73,-221,408313
-23,0,38,-8,-7,-7,-56,42,58,43,-166,-97,25,-6,-29,-45,-46,-19,-66,-108,-4,-95,-92,-41,-108,366,-37,-68,-48,-6,-58,408314
1,25,27,17,-8,-32,1,-35,174,390,-311,-108,136,-82,-1,-57,-63,-46,-90,-114,-36,-89,-97,-37,-102,344,-66,-90,-36,-5,-70,408315
27,44,37,67,11,3,71,-85,123,193,116,-12,139,-75,-28,8,15,24,-2,-55,-32,-14,-13,29,-77,334,32,-7,49,54,100,408316
-12,28,51,60,14,6,79,-101,62,42,71,83,4,27,-31,-7,53,59,107,-92,-149,-37,40,93,-138,160,107,65,108,87,235,408317
-34,19,38,45,6,6,102,10,51,-62,67,-66,-41,71,26,-40,32,26,80,-117,-158,-72,55,51,-163,132,45,54,59,40,162,408318
-21,6,23,5,-13,-5,37,-146,-35,-8,-132,-68,-77,15,-43,-23,21,6,45,-96,-103,-61,44,28,-114,198,13,49,45,25,149,408319
8,11,7,-14,-11,-14,23,35,-28,63,-69,-8,-58,-122,-48,49,42,41,31,-11,54,-6,34,31,-6,386,23,76,58,37,39,408320
60,14,-24,-7,-7,-14,55,19,-48,19,97,-19,40,17,-3,94,-16,-19,-71,37,245,25,-35,-68,71,669,-78,-1,-21,-41,-279,408321
129,28,-2,-5,14,23,18,-57,45,-25,72,-81,-57,-88,-12,106,-97,-99,-154,57,383,39,-103,-173,80,899,-187,-84,-115,-129,-394,408322
130,11,-1,-29,0,28,-21,-184,19,-43,237,61,-87,4,-8,113,-102,-110,-184,64,411,49,-116,-184,74,947,-184,-107,-126,-133,-340,408323
-2,-15,37,-53,-16,7,-132,-157,63,47,112,81,11,32,-4,2,-34,-29,-60,-37,67,-35,-78,-18,-77,457,-14,-23,11,-8,-17,408324
-7,1,33,-33,-9,0,-122,-28,9,45,-200,-110,-50,84,-5,-13,-19,-5,-19,-35,-10,-56,-71,14,-88,349,31,-20,31,29,70,408325
-23,-2,20,-23,-18,-15,-126,37,-100,87,-95,-64,-186,97,-28,35,64,69,85,26,8,-8,53,70,-65,343,105,21,73,89,142,408326
-63,-11,12,-39,-36,-29,-115,-194,-109,-15,100,-55,-152,98,13,75,123,118,157,71,44,46,136,103,-26,360,147,87,104,136,156,408327
-92,-19,23,-33,-38,-17,-137,-101,-44,-66,-102,-61,44,-2,-18,-7,40,42,91,-22,-63,-50,54,49,-88,235,63,36,35,76,92,408328
-57,-21,34,-7,-12,0,-126,-146,51,-6,83,-92,10,-242,-65,-32,-17,-18,21,-58,-84,-85,-19,13,-99,204,2,-9,-6,31,-3,408329
104,16,12,12,27,27,65,85,-54,60,149,-50,-141,-87,58,81,-62,-66,-117,76,262,22,-63,-119,84,673,-114,-83,-108,-53,-278,408330
482,66,-104,-23,64,43,535,419,-213,19,429,120,-250,216,110,474,-166,-196,-479,454,1343,324,-159,-494,622,2213,-458,-301,-398,-284,-1059,408331
645,101,-144,-46,76,43,734,375,-172,-36,559,143,-203,292,76,693,-181,-212,-650,643,1946,510,-196,-633,865,3072,-597,-390,-527,-388,-1288,408332
550,88,-113,-78,40,16,605,300,-387,80,224,45,-28,308,19,612,-207,-221,-666,514,1828,417,-244,-627,688,2963,-580,-434,-564,-421,-1047,408333
79,23,15,-77,-37,-26,-8,-8,-123,-106,-161,-102,84,-49,-55,159,-111,-47,-276,-3,590,5,-176,-223,-25,1316,-178,-213,-276,-194,15,408334
-158,-6,61,-36,-66,-38,-236,-87,25,-26,-370,-170,1,-216,-76,-45,9,85,37,-185,-106,-127,-53,63,-255,371,76,-14,-18,6,346,408335
-156,-13,51,-28,-53,-36,-175,38,49,70,-134,-83,54,-171,-17,-41,16,84,68,-167,-116,-81,-19,83,-161,315,78,10,37,30,250,408336
-149,-3,65,-5,-35,-28,-159,-213,124,-83,-133,-97,51,-143,5,-54,71,105,144,-177,-226,-78,41,150,-125,137,139,74,130,91,329,408337
-94,3,54,-6,-28,-18,-55,-102,50,10,-127,-101,43,-54,-74,-5,70,87,141,-115,-113,-28,71,127,-32,280,110,69,112,87,279,408338
-67,-10,46,-27,-11,-12,-100,-31,19,-7,-39,-91,96,-142,21,-13,32,36,112,-101,-63,-10,58,85,-28,355,61,22,77,58,172,408339
26,7,41,-19,13,14,-90,-61,-12,-46,-98,-97,57,-110,70,54,30,19,73,-12,92,65,66,39,55,593,12,4,61,33,-28,408340
666,94,-150,-27,84,54,680,369,-249,-21,373,137,-164,252,147,699,-145,-221,-502,654,1861,570,-98,-572,958,3086,-555,-374,-404,-347,-1300,408341
931,137,-213,-67,91,59,918,499,-314,-131,633,290,-56,417,167,1016,-266,-324,-877,917,2846,758,-247,-916,1312,4523,-849,-604,-747,-596,-1731,408342
749,126,-130,-107,50,31,636,471,-179,-16,588,307,14,269,166,898,-216,-219,-793,733,2562,615,-255,-762,1053,4210,-700,-509,-681,-524,-1292,408343
28,20,56,-126,-58,-49,-226,206,18,146,229,19,121,-99,-49,224,-16,66,-165,40,721,49,-73,-87,24,1700,-85,-101,-188,-112,121,408344
-265,-32,115,-105,-89,-84,-571,-93,-56,-187,-371,-205,105,-357,-145,-71,147,220,271,-205,-259,-155,106,299,-369,321,260,155,168,187,667,408345
-199,-39,87,-80,-66,-45,-413,-405,-72,-234,-311,-243,135,-213,-108,26,204,259,312,-57,-198,-44,157,335,-228,342,296,219,261,266,604,408346
-169,-27,63,-53,-60,-41,-254,-180,-32,-228,55,-34,35,-113,-54,67,151,197,228,-1,-121,3,111,248,-145,440,209,162,210,219,379,408347
-178,-19,54,-31,-56,-46,-204,-9,9,-104,-28,23,58,-235,-135,-36,29,64,67,-95,-197,-105,-15,102,-245,373,81,10,57,94,244,408348
-167,-29,63,-21,-42,-42,-187,-146,-24,30,-203,-99,234,-174,-144,-104,-17,10,39,-148,-259,-177,-42,61,-309,273,49,-28,-2,58,218,408349
-47,-3,46,-12,-5,-1,-66,-185,-3,96,-108,-93,23,22,-64,-6,-22,0,-35,-29,-15,-60,-36,6,-138,579,4,-51,-38,33,2,408350
165,19,-26,-41,17,7,182,25,-69,5,145,31,-122,151,13,240,-53,-61,-229,195,604,146,-68,-174,204,1431,-144,-148,-164,-86,-303,408351
195,55,-23,-23,27,-1,191,42,-11,14,279,55,-163,-19,116,284,-34,-51,-196,209,733,171,-54,-184,258,1604,-114,-102,-149,-93,-317,408352
145,38,-20,-23,3,-14,110,-14,-51,-22,321,-38,-124,111,41,200,-85,-84,-207,119,634,90,-92,-205,161,1516,-157,-141,-206,-140,-317,408353
-35,13,35,-31,-17,-19,-112,-171,-44,-192,-100,-22,68,-18,-40,66,-8,18,-12,-38,209,-8,-3,-11,-57,914,26,-13,-71,-22,188,408354
-130,19,60,-20,-37,-46,-184,-247,-56,-222,15,-161,85,81,11,8,75,92,152,-96,-61,-23,77,129,-125,508,162,95,55,85,351,408355
-99,12,34,-26,-29,-61,-117,-195,-116,-102,-60,-88,-3,32,39,-2,19,30,64,-116,-6,-28,17,33,-101,595,62,8,-18,22,178,408356
-166,-27,45,-36,-35,-53,-203,-272,56,-16,-328,16,2,-32,34,-106,13,39,91,-196,-210,-100,-5,79,-209,309,82,25,7,33,243,408357
-152,-38,45,-5,-37,-41,-169,-175,71,-36,71,5,-17,94,-20,-135,12,43,108,-212,-269,-93,10,101,-195,208,75,39,35,40,252,408358
-107,-9,51,30,-12,-35,-88,193,183,-94,122,-25,-21,47,-48,-70,57,95,147,-149,-216,-24,52,138,-84,266,116,84,100,93,274,408359
-17,-1,28,17,5,-13,62,52,9,23,108,37,-110,-146,20,28,27,30,68,-40,44,43,25,51,77,609,28,34,43,26,-49,408360
385,56,-51,14,76,53,507,227,-93,123,385,166,24,2,32,364,-155,-182,-356,316,1073,282,-163,-382,578,2078,-387,-239,-300,-257,-927,408361
443,38,-71,-37,69,43,464,653,-245,14,307,77,47,56,20,368,-289,-287,-595,284,1307,233,-317,-577,556,2498,-546,-421,-492,-421,-942,408362
285,22,-15,-52,34,27,249,553,-120,39,-60,12,207,79,58,239,-201,-180,-449,148,944,121,-256,-389,304,2031,-366,-315,-368,-301,-482,408363
51,12,67,-33,4,7,5,71,-24,47,130,-47,227,-25,34,87,-39,16,-136,-15,307,-6,-105,-57,-13,1141,-49,-75,-87,-49,69,408364
-91,1,62,-17,-22,-27,-135,-282,54,-86,-103,-164,128,-80,-77,0,58,94,102,-90,-80,-71,9,135,-146,594,118,82,78,90,295,408365
-131,-8,47,-10,-33,-38,-174,-467,28,-66,-299,-175,106,-131,-61,-45,65,86,156,-117,-209,-94,37,171,-190,402,153,107,112,112,351,408366
-137,-8,36,-6,-42,-54,-160,-218,-4,51,-19,-142,-73,72,-34,-43,63,74,142,-96,-210,-81,55,178,-175,379,157,103,123,124,297,408367
-127,-22,24,-13,-43,-49,-149,116,27,64,35,-107,0,4,-66,-49,20,24,60,-108,-187,-108,8,91,-195,410,101,13,44,77,191,408368
-108,-33,39,-16,-25,-21,-149,-27,96,131,26,-64,1,101,-24,-66,-3,9,36,-121,-198,-124,-7,58,-225,394,70,-16,-2,39,101,408369
-135,-31,66,-10,-26,-4,-203,-194,30,-112,-199,-64,-55,48,3,-112,0,34,86,-169,-336,-160,18,104,-302,186,105,18,24,73,241,408370
-167,-44,67,-12,-23,-1,-253,-459,54,-78,-284,-38,109,-93,-22,-177,-17,17,91,-235,-493,-213,-14,115,-393,-39,105,16,28,74,234,408371
-156,-42,73,-3,-11,11,-198,-191,14,-84,119,-75,233,-30,-153,-190,-20,10,91,-240,-489,-221,-20,104,-394,-74,84,19,32,56,213,408372
-168,-49,84,18,-12,5,-171,-55,130,8,157,-140,217,-6,-91,-174,40,68,148,-218,-526,-171,37,178,-346,-167,164,94,110,101,275,408373
-85,-21,56,28,-7,1,-59,-22,38,-84,376,-25,0,-35,-38,-46,59,71,105,-78,-271,-36,61,128,-135,120,132,96,107,86,187,408374
-117,-28,25,16,-18,-28,-63,-41,-12,-248,277,36,27,126,-100,-84,17,19,53,-112,-257,-66,15,66,-123,160,58,45,51,15,98,408375
-82,-19,4,-1,-19,-37,-3,-1,-27,-89,192,48,-149,152,-86,-41,-16,-7,20,-66,-91,-24,-6,25,-33,382,5,13,21,-5,2,408376
-127,-14,8,-18,-42,-51,-43,-125,-32,87,202,12,-99,-62,-33,-44,27,36,51,-65,-143,-18,31,80,-39,295,62,51,76,39,50,408377
-126,-41,10,-38,-22,-19,-171,-104,-108,-16,-87,-100,-127,-262,-77,-86,-3,13,39,-101,-219,-37,-25,74,-74,208,66,38,79,42,31,408378
-38,-46,32,-42,31,43,-186,33,-42,-135,-317,-107,-147,-49,-93,-56,-25,0,18,-64,-124,-7,-42,39,-18,342,34,2,41,17,-62,408379
-234,-67,73,-61,-43,-19,-347,-194,59,-127,-299,-95,-84,6,-46,-161,67,112,187,-194,-539,-116,52,220,-225,-243,207,119,165,152,419,408380
-707,-124,184,-20,-112,-85,-930,-575,103,24,-634,-313,-18,-77,-76,-618,234,310,654,-653,-1870,-504,195,695,-857,-2118,619,439,536,463,1390,408381
-811,-149,188,12,-106,-103,-1074,-612,133,34,-476,-313,-38,-137,-104,-735,310,372,872,-726,-2321,-574,311,880,-929,-2832,783,600,735,609,1552,408382
-664,-147,154,52,-56,-50,-793,-526,185,-3,-502,-223,126,-306,-53,-690,238,270,759,-638,-2165,-516,268,740,-763,-2685,647,521,658,515,1165,408383
-138,-58,46,80,46,49,-85,-150,-5,35,25,13,80,-164,98,-267,51,24,269,-191,-932,-170,104,220,-117,-1031,165,205,264,166,110,408384
154,0,-17,62,83,82,235,43,28,22,323,200,20,94,7,6,-44,-97,-44,51,-74,33,19,-96,220,145,-105,-3,-23,-81,-403,408385
35,-16,-7,62,36,30,75,-35,-24,-49,1,32,132,102,-81,-73,-25,-54,19,-64,-255,-36,34,-13,31,-108,-22,40,5,-50,-139,408386
-4,-4,-23,69,24,-11,72,123,51,198,-139,33,-89,104,-34,-25,35,20,81,-11,-228,12,80,91,53,-80,78,111,72,57,-38,408387
-22,20,-30,83,21,-41,110,17,120,318,-118,153,-232,-11,79,21,58,48,89,31,-113,51,88,95,83,64,95,116,66,91,-23,408388
-96,-7,-48,46,-18,-62,16,-68,110,72,-101,178,-182,106,114,-6,66,61,72,0,-156,26,79,99,6,-1,106,108,68,90,9,408389
-180,-27,3,29,-24,-42,-149,-41,44,102,-59,-2,-24,78,3,-81,112,120,174,-80,-414,-28,121,210,-132,-377,201,169,172,158,298,408390
-485,-84,105,20,-63,-48,-593,-380,142,166,-269,-77,-61,-42,-12,-471,182,225,503,-457,-1450,-330,195,535,-649,-1819,487,349,434,352,1047,408391
-565,-112,133,47,-53,-36,-710,-312,147,-2,-250,14,-26,-40,-8,-648,197,232,623,-588,-1924,-456,231,638,-808,-2489,559,407,545,425,1157,408392
-490,-97,112,83,-10,-7,-560,-374,62,101,-306,-82,13,-4,-37,-613,155,162,557,-526,-1846,-425,202,542,-733,-2421,462,353,493,358,869,408393
-83,-48,0,78,48,48,-39,-316,5,62,16,77,-29,86,8,-253,-1,-51,214,-141,-826,-126,93,123,-207,-1029,78,115,166,70,-47,408394
142,-26,-44,56,67,82,158,26,22,-104,396,213,-33,-33,32,-35,-71,-121,-27,55,-186,26,17,-92,53,-148,-75,-24,-40,-72,-309,408395
195,-16,-52,26,64,73,163,217,-53,-40,-8,102,55,61,88,42,-81,-131,-151,135,86,74,-11,-185,163,253,-166,-97,-128,-133,-391,408396
148,-16,-39,26,52,61,42,509,-95,84,-58,-29,62,-243,-30,-21,-112,-145,-186,67,21,11,-55,-201,106,218,-187,-133,-167,-171,-357,408397
138,-1,-32,22,42,46,78,319,28,98,34,174,-8,-199,17,20,-69,-83,-99,94,56,16,-26,-118,193,263,-107,-50,-80,-104,-242,408398
147,18,-33,51,32,31,253,255,8,135,419,202,-21,91,88,77,-31,-47,-93,148,192,45,-7,-95,334,438,-101,4,-42,-75,-282,408399
-203,-33,18,51,-32,-21,-113,-237,18,116,69,4,62,30,-58,-272,-18,-4,52,-242,-644,-231,-17,102,-188,-711,98,75,74,11,391,408400
-1023,-160,234,77,-137,-84,-1096,-782,367,-63,-645,-420,191,-247,-197,-1056,255,341,834,-1022,-2946,-811,234,936,-1342,-3958,891,583,725,573,2025,408401
-1233,-203,270,111,-138,-92,-1270,-736,368,47,-844,-404,264,-162,-202,-1273,378,437,1165,-1170,-3759,-944,370,1217,-1575,-5224,1141,796,1018,805,2290,408402
-977,-188,178,108,-76,-54,-978,-559,202,143,-728,-309,99,20,-156,-1066,326,330,1020,-900,-3250,-754,372,995,-1179,-4648,913,692,899,688,1726,408403
-243,-69,3,114,46,37,-129,108,55,58,-138,36,-216,331,44,-341,182,109,511,-139,-1337,-127,291,385,-122,-2113,335,351,454,332,237,408404
223,0,-109,90,98,70,421,249,-90,12,345,243,-49,434,156,75,-36,-120,-84,229,28,165,76,-169,421,-217,-173,-45,-35,-85,-613,408405
185,3,-77,93,94,56,347,370,67,31,317,164,-76,277,89,13,-66,-134,-130,115,-3,89,26,-180,289,-211,-194,-65,-83,-131,-445,408406
176,2,-62,67,82,69,241,151,-40,-18,55,124,37,222,61,-22,-81,-131,-133,53,-27,53,-17,-163,218,-228,-182,-73,-86,-134,-315,408407
161,0,-46,46,70,68,141,11,-57,-90,126,99,17,205,62,4,-18,-64,-83,76,-19,75,52,-91,190,-231,-107,-15,-29,-79,-198,408408
127,4,-38,25,52,48,87,101,23,-13,198,95,72,145,-11,24,32,-17,-14,94,-15,98,107,-38,181,-241,-54,36,10,-32,-86,408409
-85,-49,-17,8,-4,-5,-123,-34,159,113,23,39,214,-25,-70,-167,40,17,129,-116,-477,-84,116,97,-99,-841,74,114,78,30,257,408410
-659,-103,131,70,-69,-44,-699,-339,325,110,-318,-299,317,-323,-172,-717,184,215,619,-663,-2026,-530,227,625,-873,-3011,562,441,484,365,1221,408411
-822,-125,179,118,-69,-37,-835,-215,296,217,-591,-354,181,-307,-193,-921,236,261,775,-811,-2667,-673,278,787,-1094,-3940,702,522,642,497,1479,408412
-727,-129,134,126,-45,-25,-795,-118,318,202,-500,-72,-2,-156,-110,-825,291,288,807,-666,-2567,-552,350,797,-896,-3893,701,560,726,544,1359,408413
-118,-63,-56,99,36,21,-152,94,26,165,99,182,-77,79,105,-235,139,57,320,-33,-1002,-64,228,269,42,-1773,192,259,371,230,21,408414
267,-6,-111,67,93,70,170,329,-154,213,162,234,-85,149,190,127,14,-74,-64,306,82,190,96,-97,527,-275,-124,14,59,-27,-515,408415
270,-14,-101,43,64,63,219,91,-88,151,108,140,-31,170,117,128,-12,-92,-120,285,200,161,36,-144,484,-71,-143,-30,-25,-85,-431,408416
216,17,-81,58,50,49,389,118,-72,141,320,218,-5,207,111,114,-5,-62,-123,243,197,139,31,-109,396,-49,-111,-25,-38,-69,-308,408417
167,51,-76,83,46,34,433,124,-147,59,213,140,32,198,191,105,22,-42,-121,229,160,134,38,-80,326,-64,-84,-20,-31,-46,-288,408418
130,39,-98,69,22,8,376,53,-154,-14,-39,72,27,223,60,69,-43,-90,-180,179,127,90,-21,-161,238,-66,-138,-89,-118,-107,-350,408419
-38,-10,-52,53,5,-1,106,75,-19,23,-19,-68,-22,77,-2,-134,-45,-52,-78,-54,-315,-112,-27,-57,-70,-666,-30,-50,-87,-63,89,408420
-869,-141,189,82,-89,-55,-898,-288,354,112,-559,-321,254,-401,-171,-952,251,311,734,-891,-2622,-763,255,800,-1245,-3918,776,489,560,477,1809,408421
