81,4,9,-5,31,43,135,-67,-16,104,196,60,60,7,50,106,41,51,37,129,97,108,82,19,130,-10,-16,-94,41,57,-21,354772
110,25,-17,38,43,39,118,34,27,69,88,54,75,26,10,55,-26,-34,-47,77,127,71,3,-65,84,49,-75,-168,-49,-35,-153,354773
82,16,-44,26,37,19,-33,184,57,4,134,-48,-9,-47,19,-4,-81,-85,-100,7,70,10,-58,-91,37,-11,-78,-220,-88,-77,-166,354774
81,-2,-40,5,24,17,-68,-39,-27,16,132,94,-37,131,21,83,-2,0,-64,95,171,103,18,-25,134,101,-6,-174,-15,1,-116,354775
-14,-28,-7,-23,-11,-3,-105,-64,-124,-55,67,82,-13,206,6,94,116,131,123,106,28,122,142,141,138,-114,143,-32,148,132,164,354776
15,-13,-7,-10,0,-7,78,39,-157,-98,246,103,154,14,61,61,69,57,31,89,78,102,94,39,164,-33,8,-102,65,39,54,354777
36,9,2,35,9,7,177,-1,-94,-157,329,-46,67,-24,10,-43,-45,-69,-82,0,12,-1,-22,-80,56,-64,-102,-210,-58,-63,-105,354778
61,15,-7,40,27,25,179,117,-34,-41,-125,25,-29,-49,-41,-85,-117,-160,-152,-39,3,-58,-97,-149,28,-48,-158,-252,-132,-116,-84,354779
50,9,-9,37,26,23,183,135,35,-133,36,56,96,-154,10,-52,-95,-116,-142,-14,26,-38,-89,-117,61,-22,-119,-210,-96,-87,-103,354780
35,25,-20,38,9,-24,218,160,18,-32,215,109,4,-85,42,-1,-27,-41,-60,43,65,17,-14,-38,110,33,-54,-129,-27,-22,-34,354781
33,29,-39,21,-8,-39,175,-59,-64,-72,411,47,-5,-109,-34,50,32,25,21,94,111,66,75,30,141,80,22,-73,27,52,46,354782
52,1,-49,-13,4,-16,50,-23,44,-62,-5,-17,-115,-116,-52,60,44,39,-13,99,119,65,62,13,133,80,15,-105,13,38,14,354783
69,-11,-26,-16,22,9,-7,51,-17,5,-104,-155,-162,-209,-72,24,2,-13,-51,59,67,14,13,-19,75,4,-27,-145,-18,-2,18,354784
99,13,11,12,35,37,60,78,121,94,48,-65,-113,-15,9,13,-31,-45,-85,39,68,0,-25,-59,55,-13,-40,-173,-37,-17,-46,354785
52,-3,10,5,9,21,70,34,73,-23,85,11,-195,103,-16,5,-46,-62,-88,23,43,-20,-39,-62,32,-41,-40,-185,-45,-20,9,354786
20,-8,-13,0,-14,-1,74,58,-65,-89,102,-53,-129,-26,4,-15,-49,-69,-98,0,27,-30,-42,-79,20,-52,-74,-203,-65,-49,9,354787
33,14,15,16,23,36,81,118,-24,-64,19,-15,-172,3,46,-16,-32,-54,-70,9,42,-8,-14,-61,31,-36,-51,-178,-49,-30,-89,354788
-5,-3,31,5,24,47,15,126,108,56,61,-67,-24,-214,6,-65,-63,-76,-85,-50,-37,-46,-62,-73,-39,-129,-61,-188,-68,-37,-104,354789
1,-9,12,-20,9,36,-9,49,153,53,167,-75,20,-254,-83,-97,-102,-94,-142,-91,-54,-80,-96,-141,-100,-126,-120,-254,-133,-98,-67,354790
-5,-15,-12,-16,-6,15,21,-48,123,47,58,16,143,-243,-39,-97,-56,-40,-68,-102,-96,-74,-52,-65,-117,-178,-48,-193,-89,-42,41,354791
0,6,-18,1,-1,12,75,-39,71,1,-9,-48,77,-360,-36,-66,-35,-8,-47,-75,-42,-33,-45,-43,-57,-107,-32,-175,-64,-12,18,354792
0,-3,6,-21,11,11,14,-82,70,51,167,7,-35,-86,16,-18,3,31,0,-45,-37,-5,-21,3,-23,-98,-14,-135,-6,27,57,354793
-4,-13,12,-25,3,9,-54,-40,79,-168,-3,82,-14,93,80,28,50,71,63,-1,-27,40,34,62,10,-82,28,-82,56,79,118,354794
-18,1,-7,12,-2,13,-36,147,-14,-182,-118,94,-56,-42,-35,1,43,59,63,-24,-45,18,33,45,-13,-97,19,-94,54,57,128,354795
-7,8,3,35,15,22,-35,-36,-30,54,101,76,-183,-13,-37,-60,-16,-24,14,-70,-77,-41,-7,-5,-47,-128,-24,-141,0,12,19,354796
9,4,24,18,14,31,-45,55,103,-39,63,125,-80,58,3,-29,11,4,42,-36,-65,-13,40,37,-8,-112,48,-114,35,58,-12,354797
18,-15,8,-23,1,23,-18,61,87,-44,107,123,-51,161,63,31,58,72,96,26,-16,29,88,83,34,-64,88,-88,81,109,57,354798
34,-27,-18,-26,-5,7,9,-22,172,-228,104,33,11,52,51,47,38,38,74,56,34,33,68,45,71,5,60,-95,58,76,-63,354799
58,0,-16,5,6,18,63,-12,0,-243,-108,21,-45,-120,32,13,-37,-48,-27,30,72,-5,-24,-57,77,52,-45,-165,-21,-10,-109,354800
70,33,-3,39,26,44,89,63,-26,-145,78,14,12,8,4,17,-29,-40,-45,31,87,12,-48,-47,74,54,-44,-164,-13,4,-8,354801
11,2,-25,25,-6,0,-12,69,79,-141,83,38,-36,-58,0,-4,-56,-38,-66,4,0,-20,-73,-44,-6,-71,-27,-187,-20,3,-85,354802
14,-6,-20,-7,-17,-20,-41,-23,114,-74,-175,165,25,143,-10,27,-59,-35,-118,29,53,-8,-74,-67,25,-17,-39,-222,-50,-9,-28,354803
12,4,11,-12,-7,-28,-12,-100,-7,34,-44,255,69,76,19,90,42,36,-10,89,95,58,4,39,72,-4,57,-136,46,88,63,354804
20,-3,3,-10,0,-14,-5,226,145,28,76,128,-69,-63,19,92,50,39,36,75,73,67,22,53,59,-38,71,-109,55,92,44,354805
127,29,-22,11,27,25,128,282,36,-27,194,1,-23,-18,53,103,-41,-62,-52,95,253,85,-24,-96,112,227,-84,-209,-78,-22,-182,354806
202,23,-50,-18,34,51,196,96,-52,63,189,-37,65,29,-59,79,-122,-169,-199,78,410,59,-109,-267,112,473,-238,-345,-234,-158,-373,354807
192,31,-18,-14,49,72,137,152,-122,-74,171,23,37,-105,-33,57,-98,-126,-172,51,357,39,-74,-219,91,427,-191,-301,-207,-130,-303,354808
95,4,-3,-42,17,35,15,-18,-123,-260,-50,-84,-69,28,-15,0,-76,-93,-127,-6,231,-1,-64,-148,55,263,-126,-239,-155,-87,-188,354809
-46,-25,16,-60,-21,-14,-114,-44,-42,-228,28,-136,-118,-4,-82,-69,-14,-14,-28,-89,-38,-68,-23,-37,-77,-83,-19,-165,-47,-7,-43,354810
-97,-31,20,-32,-41,-28,-110,-82,-77,-33,-170,-20,-85,-8,18,-99,16,18,24,-113,-157,-96,7,23,-107,-235,37,-113,11,29,118,354811
-50,2,-3,0,-18,-7,-31,47,-52,-81,-34,10,-38,223,40,-64,12,10,11,-78,-76,-68,20,0,-45,-120,9,-103,2,16,85,354812
-116,-10,-7,-34,-42,-39,-199,7,-60,-73,19,9,7,131,-18,-67,56,76,99,-87,-198,-74,48,72,-86,-288,88,-31,84,67,218,354813
-119,-15,2,-43,-29,-48,-295,-186,-26,-88,-69,142,-162,88,-18,-12,112,136,160,-22,-163,-12,103,131,-36,-257,135,36,147,147,229,354814
-67,-13,14,-24,-12,-29,-210,77,134,-54,10,96,-174,170,-1,27,120,130,153,27,-71,33,116,130,24,-125,132,31,139,164,198,354815
58,17,-8,13,20,15,51,-20,85,14,166,99,-106,7,21,70,-7,-5,-45,56,161,67,-15,-60,103,223,-46,-126,-25,1,-149,354816
133,34,-25,4,25,27,195,-69,-51,11,169,51,-26,-50,23,107,-67,-63,-139,94,319,89,-71,-157,154,454,-118,-210,-121,-74,-246,354817
144,20,-26,-37,13,23,186,106,-100,69,298,43,71,121,-23,141,-46,-49,-121,141,433,140,-41,-157,179,594,-121,-211,-128,-63,-219,354818
90,11,-17,-38,10,4,91,-152,-47,55,326,29,18,-56,41,111,-23,-10,-91,86,334,100,-6,-110,93,454,-77,-175,-101,-30,-209,354819
-11,-3,-13,-2,-19,-28,19,-179,-32,130,33,-16,-25,-82,-59,39,16,36,5,-3,78,12,26,-6,-43,80,11,-97,-23,40,-45,354820
-38,6,-15,21,-18,-15,-6,-193,-122,50,-101,43,-19,-121,-34,18,10,12,7,-22,14,-4,-8,4,-42,-18,15,-95,-8,59,26,354821
-63,9,-8,0,-21,-4,-169,-80,-72,54,47,5,-66,-55,-73,4,7,0,21,-25,-4,-11,-36,18,-8,-85,25,-59,5,52,32,354822
-50,-6,8,-39,-15,18,-266,1,2,-28,124,7,-60,109,-13,44,33,21,59,11,58,39,7,26,63,-36,40,-25,31,67,46,354823
16,-16,19,-63,8,50,-135,-252,-35,-28,-152,68,203,174,3,61,24,16,28,38,114,54,12,-8,106,38,23,-54,13,49,-23,354824
87,-4,13,-38,45,67,43,-43,-54,10,-107,132,327,152,2,27,15,7,-16,15,90,30,-8,-33,75,15,1,-97,-16,20,-16,354825
142,21,-1,10,46,57,133,113,-34,-6,-64,-14,208,38,-20,52,-22,-21,-64,45,209,69,-26,-94,121,197,-57,-136,-68,-27,-155,354826
128,35,-39,28,12,15,160,233,-51,-68,-122,83,141,88,-2,128,-10,-8,-58,105,333,117,-20,-92,180,396,-57,-125,-62,-15,-242,354827
96,14,-45,-15,-11,-10,160,195,-78,8,149,18,-33,-34,-40,112,-57,-57,-146,84,371,92,-69,-170,151,482,-130,-186,-142,-82,-265,354828
76,8,-32,-42,-12,2,140,54,-100,131,179,19,-27,64,-28,72,-73,-72,-169,48,323,48,-84,-186,71,436,-121,-215,-177,-109,-209,354829
-16,0,-15,-21,-25,-20,44,-14,-75,151,-167,-61,-150,-46,7,-42,-55,-58,-132,-73,53,-73,-86,-133,-105,98,-77,-194,-154,-81,-82,354830
-95,-7,-16,-10,-36,-43,-6,-54,-8,13,-224,-103,-76,-82,32,-124,-53,-67,-72,-138,-146,-136,-76,-87,-181,-143,-35,-151,-108,-51,25,354831
-59,-9,7,-27,-8,-9,-15,25,23,-136,-80,-179,82,68,22,-62,-7,-36,-1,-72,-72,-73,-30,-32,-73,-61,7,-74,-45,-2,34,354832
-29,-29,17,-65,-11,2,-4,-65,10,-53,34,26,167,7,20,23,41,10,41,-1,17,4,22,8,32,41,29,-30,17,43,39,354833
11,-11,10,-34,10,9,126,52,46,14,27,-10,-18,-47,14,16,0,-39,-33,17,96,10,-27,-61,41,156,-42,-90,-26,-15,-69,354834
60,32,-2,27,22,21,257,61,30,96,106,-115,-66,-116,37,-20,-84,-121,-104,-23,121,-39,-91,-162,26,226,-141,-152,-100,-103,-139,354835
45,41,1,58,17,24,158,24,32,59,12,5,117,-89,3,-34,-80,-101,-84,-48,56,-53,-86,-132,-22,138,-103,-133,-92,-83,-86,354836
141,29,-49,6,19,8,162,-3,-32,95,121,-8,51,-47,6,156,-29,-44,-107,128,401,119,-56,-141,176,579,-94,-109,-102,-50,-251,354837
126,20,-47,-38,3,-13,91,34,55,144,157,-2,-36,128,34,269,82,81,0,217,512,231,49,-18,283,697,9,9,19,55,-122,354838
46,9,-35,-61,-12,-30,-93,-33,28,26,255,-17,83,-27,69,189,66,95,23,132,328,160,25,14,164,444,46,24,57,75,-23,354839
-7,-18,0,-92,-16,-7,-236,-98,-59,38,-151,-14,4,-124,-33,64,7,42,-14,11,105,37,-31,-30,7,158,15,-30,28,31,25,354840
51,0,24,-32,27,34,-77,177,29,50,28,-46,-111,-6,-89,46,-40,-28,-70,3,116,10,-91,-99,1,192,-63,-100,-36,-26,-86,354841
62,25,10,39,33,26,173,128,49,17,-47,12,-41,40,-31,52,-54,-57,-76,1,150,4,-87,-130,19,253,-90,-104,-73,-52,-78,354842
32,41,5,61,18,7,232,-42,-51,28,-261,28,193,-60,9,86,36,34,47,30,114,30,20,-3,43,194,46,26,36,57,50,354843
-32,21,-9,20,-10,-24,103,33,-32,-6,-302,52,-32,9,8,47,41,65,95,3,30,9,52,32,13,70,60,80,76,84,94,354844
-76,4,-2,-3,-23,-28,-47,-59,-41,-85,-257,99,-62,-47,-21,-7,27,35,86,-30,-28,-15,33,8,-36,-8,27,50,47,48,24,354845
-73,-14,-11,-35,-28,-32,-118,-156,28,-93,-68,-62,51,-75,-75,-28,37,53,87,-48,-69,-30,22,28,-76,-58,58,48,56,60,74,354846
-58,-24,0,-28,-20,-28,-110,-60,80,-119,-24,-36,23,-150,-71,-20,25,40,48,-44,-65,-33,6,-3,-63,-53,33,13,36,37,80,354847
-31,-5,14,-22,11,-11,-61,52,60,46,5,110,-5,-89,-28,14,4,1,-3,-7,-2,-9,-18,-19,2,18,17,-11,30,16,74,354848
-55,-4,-6,-31,-8,-17,-25,-82,-103,-113,110,133,38,209,-35,54,37,50,82,19,-17,24,27,63,27,-4,99,58,106,87,131,354849
-42,8,-27,2,-11,-31,30,-255,-125,-85,-187,103,60,224,-62,92,88,100,107,60,31,67,82,61,72,46,79,90,123,88,98,354850
-49,22,-10,53,0,-28,-53,-214,-49,-173,-36,-31,-62,-23,-73,5,21,41,10,-18,-57,-7,4,-16,-8,-65,12,16,46,13,70,354851
-36,16,12,60,14,-15,-24,-106,89,28,52,7,-119,55,28,-36,-34,-18,-18,-50,-88,-41,-58,-34,-20,-95,4,-27,1,-6,-14,354852
-3,16,40,43,27,14,75,72,126,50,-157,20,22,-155,41,-37,-38,-30,-35,-43,-79,-42,-70,-43,-2,-88,-18,-44,-19,-10,14,354853
15,12,18,37,8,8,176,140,72,-137,-61,137,126,-18,-22,-25,-34,-37,-57,-34,-3,-17,-46,-68,9,14,-35,-42,-43,-22,-33,354854
-59,6,4,21,-18,-23,79,17,3,-9,122,-26,190,-15,-35,-91,-11,-34,13,-79,-96,-43,-2,-31,-65,-115,-11,12,-19,-6,94,354855
-22,24,-1,20,-2,-24,26,-13,-92,113,49,-31,196,-154,-89,-32,-1,-9,20,-21,-11,0,10,-38,-21,-5,-21,11,-14,1,22,354856
-48,6,7,7,-3,-17,-91,-21,62,126,-92,-36,18,15,-12,-21,26,21,74,-32,-51,-11,38,26,-26,-82,57,56,41,53,49,354857
-43,-14,4,-12,-8,-17,-124,70,63,186,-302,61,28,-59,28,-7,25,12,44,-25,-49,-9,26,28,2,-79,37,63,49,50,67,354858
22,7,8,2,9,8,-24,163,-37,163,-105,74,234,-19,27,35,27,11,37,35,39,52,31,14,61,48,0,56,43,42,126,354859
26,13,21,5,12,7,-42,-58,-5,247,186,56,56,252,40,72,80,58,77,64,51,73,84,61,60,52,53,97,82,102,185,354860
3,-4,16,-25,10,12,-125,-137,-54,36,46,-18,91,67,-2,64,94,100,62,65,26,65,93,66,47,31,70,103,93,98,131,354861
18,-14,25,-29,14,28,-97,65,54,46,-312,-114,34,-13,74,25,24,56,8,31,34,35,12,8,33,53,28,54,36,38,8,354862
22,-19,26,-20,4,34,4,-14,80,44,78,-33,81,48,98,-20,-21,12,6,-16,-28,-16,-25,-19,-46,3,14,34,-8,5,-9,354863
1,11,0,4,-1,12,60,67,45,-154,213,23,114,30,65,-49,-36,-7,2,-45,-50,-62,-18,-53,-79,5,-5,5,-53,-38,-11,354864
-25,26,-9,39,-7,-13,45,-144,-142,-185,-92,-85,134,-138,12,-34,-44,-27,-35,-34,-11,-54,-22,-79,-48,91,-31,-14,-70,-70,3,354865
63,44,-28,50,23,-9,88,-77,-197,-25,-54,55,73,-40,7,76,-4,-20,-72,86,210,64,5,-84,104,384,-47,-5,-58,-50,-147,354866
139,49,-19,16,43,23,126,104,-102,-43,34,146,-2,92,119,151,16,-17,-78,169,397,149,40,-88,217,621,-58,13,-40,-35,-197,354867
138,22,-5,-11,34,30,34,3,6,-12,67,1,-11,62,46,103,-14,-36,-89,109,339,118,-21,-90,153,550,-73,-5,-30,-54,-179,354868
114,26,20,4,32,30,-17,80,119,-80,-48,-5,18,-29,47,73,-6,-15,-57,74,240,93,-15,-61,83,423,-50,3,-20,-33,-49,354869
30,16,33,10,5,10,-31,-2,56,-12,-16,77,119,151,98,100,87,79,101,101,144,112,80,98,74,247,107,138,109,100,211,354870
-16,9,21,-22,-16,-30,9,71,60,18,63,52,0,305,45,128,93,88,117,129,196,132,82,114,107,279,113,158,122,122,80,354871
-66,-1,17,-14,-24,-36,-27,96,55,-41,124,124,-28,97,38,15,24,0,37,18,38,32,13,38,-10,68,30,76,42,50,-7,354872
-7,25,25,37,16,12,37,18,112,-52,-286,-30,81,-116,-39,-81,-70,-94,-81,-65,1,-43,-73,-80,-85,9,-77,-50,-69,-53,-175,354873
24,21,34,36,23,32,51,-21,62,233,-108,-33,127,-168,-42,-94,-66,-55,-69,-89,-57,-71,-72,-66,-124,-89,-43,-35,-75,-49,-55,354874
5,6,25,18,18,11,-9,-7,98,84,-65,26,52,-148,32,-94,-58,-31,-56,-92,-91,-77,-61,-54,-126,-141,-32,-15,-76,-35,-81,354875
85,-2,-4,-15,19,5,49,108,13,-27,-2,-122,60,-76,17,-8,-106,-99,-164,5,175,-1,-104,-168,-4,232,-153,-96,-157,-122,-285,354876
79,1,9,-14,19,13,48,213,-36,-81,97,-47,108,-139,-17,8,-70,-75,-109,20,178,25,-72,-126,-7,245,-125,-64,-104,-97,-180,354877
72,20,-4,21,18,3,139,-28,-116,53,27,-35,-42,-268,59,38,-50,-59,-106,31,189,36,-60,-107,32,294,-96,-33,-82,-88,-106,354878
15,7,-7,9,2,-5,180,137,-96,87,-11,-43,-153,-123,-24,10,-42,-52,-55,2,131,-2,-43,-66,-3,241,-68,0,-61,-70,-46,354879
-46,20,24,36,11,-4,112,42,9,22,105,-117,-39,94,-35,-40,3,7,56,-46,-48,-50,8,43,-98,37,31,85,16,6,123,354880
-48,4,-2,18,-6,-28,-10,-88,-22,-158,117,-126,-53,-18,-14,-55,8,5,70,-50,-113,-65,20,65,-99,-9,51,103,36,22,73,354881
6,11,25,5,29,20,-21,4,-144,12,-152,-44,144,31,18,-5,67,47,98,0,-65,-8,70,99,-16,54,70,133,84,62,125,354882
53,12,27,23,37,40,50,111,-19,136,-320,35,46,-109,-16,6,64,31,66,11,-25,19,74,60,10,136,25,103,71,38,-6,354883
29,7,4,28,15,23,8,140,43,84,76,-4,-128,-18,81,-21,31,15,7,-15,-31,-3,31,23,-17,134,-5,62,41,13,55,354884
-31,-16,12,-1,1,-10,-105,-71,45,147,261,14,-50,244,68,-10,30,34,31,-11,-71,-13,30,78,-21,102,51,93,75,50,116,354885
-37,-21,27,-31,-9,-18,-144,100,113,90,156,79,121,218,101,1,21,26,7,-4,-81,-18,0,70,-15,89,54,94,69,53,57,354886
52,-1,16,-23,11,-3,-21,130,57,153,127,94,-69,103,131,99,6,7,-60,99,156,87,-22,-6,125,412,-6,53,17,13,-109,354887
74,2,-16,-14,1,-10,31,125,6,130,73,62,56,-135,89,109,-16,-12,-104,98,234,96,-63,-52,116,500,-38,-17,-39,-32,-130,354888
150,28,-1,27,41,25,97,142,36,176,105,75,82,-154,-6,114,-29,-28,-108,112,323,108,-62,-97,117,612,-100,-55,-74,-62,-179,354889
58,18,22,21,17,28,-32,148,14,280,44,112,41,-125,-3,15,-12,-10,-2,25,97,39,-21,4,3,277,-15,22,-4,0,42,354890
48,1,19,-13,6,21,-42,-36,72,204,36,20,28,268,36,30,-32,-31,-28,28,92,42,-29,2,28,235,-7,13,1,11,-71,354891
18,-14,22,-38,-6,-6,-97,-120,-2,181,-104,105,-11,2,11,46,15,29,15,33,64,62,1,60,18,121,42,66,55,58,16,354892
3,-8,6,-11,-14,-30,-33,-1,-107,56,76,42,-41,80,55,46,25,34,29,52,95,64,25,64,34,122,24,65,66,57,-20,354893
51,3,-27,15,-5,-26,95,-94,-64,140,79,-104,107,230,52,62,-46,-60,-92,62,214,58,-44,-57,71,283,-111,-36,-47,-53,-202,354894
56,0,-22,6,10,9,63,-40,-139,91,-88,-52,6,78,31,37,-93,-89,-154,17,187,18,-108,-109,18,247,-147,-99,-108,-108,-265,354895
50,-13,-26,-21,6,-3,48,18,-94,-38,-71,-45,-132,53,48,59,-60,-40,-111,50,208,35,-67,-72,40,288,-103,-44,-63,-58,-196,354896
185,26,-36,-3,26,15,208,3,-91,-41,101,126,47,139,24,200,-29,-25,-115,186,542,174,-35,-117,242,747,-153,-10,-74,-74,-365,354897
206,44,-22,25,43,27,245,73,-100,-128,133,20,68,-136,13,156,-92,-102,-199,125,543,110,-98,-197,179,811,-221,-84,-177,-162,-428,354898
123,29,15,29,29,39,176,37,-140,-155,-162,12,-67,-11,-33,26,-130,-128,-222,-9,323,-9,-146,-202,23,590,-213,-128,-209,-194,-200,354899
8,11,44,17,11,36,24,229,46,23,-94,39,9,-84,-16,-94,-112,-99,-142,-115,2,-114,-139,-100,-123,219,-117,-105,-137,-132,-9,354900
-43,-7,41,-25,-25,-1,-32,102,93,164,-195,-54,217,76,-38,-86,-43,-27,-43,-98,-78,-108,-51,-11,-127,113,-27,-39,-42,-54,-17,354901
-7,-13,21,-27,-19,-21,29,58,50,107,122,2,93,137,38,-5,-14,-3,-26,-29,26,-23,-4,-1,-46,268,-20,-16,-4,-16,-107,354902
-24,-11,-5,-9,-10,-29,-8,-61,0,111,-38,-6,-58,-157,14,-45,-43,-37,-47,-68,-37,-72,-35,-22,-107,220,-70,-47,-46,-49,-88,354903
-8,-8,6,-2,0,0,-63,72,36,-152,-31,-65,-35,-240,-14,-21,14,0,2,-40,-36,-49,-4,29,-98,218,-29,4,-2,-7,-3,354904
16,-14,8,-16,-7,10,-83,-5,-52,-155,42,-21,88,-199,9,58,57,62,110,39,52,30,51,110,16,319,42,107,85,71,27,354905
80,-2,-19,-26,0,19,29,148,-96,-78,-112,15,-82,-61,52,140,10,10,23,106,269,93,16,14,140,619,-45,47,12,-2,-138,354906
163,30,-30,-37,27,22,136,156,-25,92,-53,128,-129,154,34,198,-47,-61,-115,155,503,147,-49,-113,201,942,-138,-69,-109,-103,-337,354907
210,43,-43,-21,24,18,198,69,-41,127,-140,196,-93,334,15,287,-28,-25,-144,232,703,230,-32,-147,265,1214,-132,-78,-139,-99,-353,354908
163,49,-41,-20,5,-4,152,163,-13,-39,-71,92,-133,191,37,256,8,28,-132,210,650,203,-24,-128,202,1154,-109,-57,-118,-63,-228,354909
-7,10,20,-32,-11,-12,-101,18,-27,-167,-190,-128,-115,17,1,33,15,54,-26,-6,145,0,-7,8,-73,449,2,-11,-24,1,119,354910
21,-9,41,-31,4,24,-149,138,-61,-122,-141,-181,-186,-62,-57,3,15,28,30,-24,66,-16,14,37,-81,282,-3,10,9,10,14,354911
4,-6,31,-14,6,24,-118,72,-74,-60,-81,-316,-9,-94,-23,-19,0,14,58,-32,10,-26,13,47,-129,139,3,25,21,15,81,354912
11,16,-9,22,-3,1,40,-14,-16,-25,-18,-483,-27,61,-5,61,38,46,79,56,146,50,55,71,-29,270,23,59,48,48,61,354913
0,7,1,12,-17,-9,-6,107,-2,70,72,-25,-69,-4,11,95,64,89,118,86,155,87,83,112,48,254,65,110,98,89,57,354914
-49,-24,15,-37,-30,-27,-175,-55,9,-58,21,-5,-42,-119,-4,59,49,81,97,36,14,41,41,134,11,33,82,98,111,89,27,354915
73,9,-1,-29,-5,-6,-13,3,36,-68,44,33,-115,112,73,166,37,48,3,141,286,148,21,36,184,407,3,46,43,39,-136,354916
195,29,-48,-33,3,0,153,0,-155,95,108,51,-151,67,37,234,-61,-57,-217,211,653,217,-80,-184,303,983,-202,-134,-161,-129,-419,354917
186,36,-30,-34,17,18,67,193,-106,-33,-87,66,-46,4,6,207,-90,-64,-245,172,642,174,-107,-213,238,1041,-202,-180,-203,-155,-363,354918
125,23,-5,-39,1,16,-60,181,-58,-45,-313,84,115,38,-14,166,-41,-10,-161,117,494,132,-61,-126,162,884,-118,-123,-135,-102,-193,354919
-25,-5,7,-43,-39,-26,-144,129,-12,-48,-238,-101,102,-248,-29,16,14,36,-23,-24,121,4,-12,15,-28,402,9,-22,-22,-19,58,354920
-69,-7,11,-38,-45,-36,-62,-253,19,34,-243,10,196,-171,60,13,54,63,66,-35,19,1,44,107,-42,264,101,49,64,60,99,354921
-64,0,28,-49,-37,-31,-108,-186,0,71,10,51,104,-19,3,21,80,81,108,-16,-8,24,69,137,-51,229,130,78,101,91,168,354922
-103,-10,20,-31,-41,-58,-119,68,-50,-40,-21,-136,42,40,-67,-49,20,35,49,-85,-103,-55,5,67,-129,135,47,16,32,22,104,354923
-95,-1,-6,17,-39,-56,-7,23,-87,-117,60,-113,84,-187,-146,-92,-44,-34,-14,-130,-124,-106,-57,-6,-160,144,-19,-51,-37,-29,-111,354924
-47,15,-5,14,-28,-35,86,107,10,-75,40,-67,29,-71,-54,-50,-27,-31,-3,-89,-52,-62,-41,25,-89,222,14,-27,-5,0,-78,354925
125,45,-13,29,28,18,259,149,-63,-23,160,64,45,77,90,110,-63,-74,-124,71,337,75,-56,-103,119,741,-110,-104,-89,-77,-360,354926
401,75,-81,-8,58,41,523,79,-256,-15,433,157,80,238,142,387,-126,-157,-349,346,1118,347,-113,-348,488,1820,-343,-253,-277,-228,-817,354927
447,88,-78,-21,56,35,556,190,-175,-57,151,125,65,254,65,470,-127,-146,-395,402,1385,407,-107,-406,556,2210,-398,-277,-353,-271,-881,354928
312,63,-52,-17,19,-2,404,81,-67,25,134,69,44,17,77,310,-149,-156,-413,225,1090,239,-150,-388,314,1839,-388,-301,-371,-300,-510,354929
-50,13,53,-5,-21,-15,-20,-118,153,-146,55,-239,107,-312,-50,-87,-81,-53,-112,-165,47,-145,-94,-55,-242,438,-85,-114,-135,-107,149,354930
-88,8,70,11,-10,6,-37,94,128,-51,192,-139,302,-243,-19,-111,-17,7,62,-162,-180,-157,-26,77,-258,90,44,-5,12,25,207,354931
-72,-12,19,-14,-32,-21,-52,-96,33,-216,-63,-28,142,-24,-100,-56,-1,21,56,-93,-74,-87,-2,51,-165,186,20,2,18,18,127,354932
-114,-28,-8,-37,-58,-56,-166,-134,-8,-139,136,95,-38,272,-78,-13,28,68,110,-48,-65,-41,35,119,-117,156,95,81,78,76,146,354933
-129,-4,15,-31,-34,-39,-185,-321,14,-38,-64,-101,38,70,-58,21,101,119,187,5,-69,5,95,201,-72,102,174,139,169,158,269,354934
-76,-6,36,-22,-17,-13,-109,-219,80,54,-106,-14,30,-59,-81,74,131,146,196,57,-14,52,117,200,-15,143,180,155,192,164,263,354935
437,78,-91,-15,60,48,571,317,-18,-37,415,332,-78,224,125,524,-19,-56,-257,514,1255,483,-30,-280,667,1925,-279,-159,-171,-145,-842,354936
1182,227,-257,-19,161,121,1524,723,-255,-145,841,504,-173,520,252,1205,-299,-368,-1029,1147,3316,1100,-290,-1068,1582,4844,-1018,-686,-815,-680,-2170,354937
1230,257,-268,-53,155,101,1596,621,-327,-142,889,323,-154,517,86,1259,-407,-433,-1233,1136,3729,1115,-408,-1228,1541,5565,-1153,-853,-1035,-839,-2197,354938
822,191,-163,-98,75,29,1067,297,-265,-138,519,162,-167,140,64,921,-314,-295,-973,728,2866,735,-372,-895,929,4524,-823,-688,-854,-651,-1288,354939
-92,26,43,-124,-78,-83,-143,-305,-13,-177,-383,-249,33,-295,-87,79,-64,64,-186,-148,466,-82,-160,-40,-315,1327,-24,-186,-215,-110,417,354940
-273,2,111,-80,-83,-78,-407,-314,124,-71,-568,-209,-103,-193,-65,-77,53,168,164,-258,-179,-190,-44,254,-469,421,247,55,83,148,679,354941
-267,-10,86,-75,-91,-96,-421,-414,63,-91,-548,-81,-153,-159,-50,-83,80,148,205,-223,-250,-182,-4,246,-411,319,253,81,117,178,563,354942
-269,-16,64,-89,-87,-113,-475,-290,-19,-159,14,-213,-65,-95,-77,-51,118,149,212,-165,-208,-137,79,231,-311,335,208,106,153,166,459,354943
-253,-35,72,-80,-76,-84,-405,-309,0,63,-66,-67,-189,-48,-111,-55,70,85,137,-160,-209,-135,40,172,-271,331,141,68,119,108,359,354944
-206,-24,80,-44,-45,-44,-265,-108,104,231,-161,-57,-138,16,-135,-68,31,54,79,-150,-218,-140,-11,130,-260,302,123,22,97,99,245,354945
53,19,14,-24,10,5,6,43,45,46,72,12,-120,-60,-62,117,-80,-73,-103,37,358,44,-109,-105,52,1084,-99,-111,-64,-50,-366,354946
313,45,-45,-25,41,23,327,161,-89,-106,182,-14,107,-143,-74,274,-206,-208,-403,186,968,192,-230,-411,295,1952,-410,-309,-331,-285,-757,354947
555,114,-95,-3,69,34,699,217,-198,-113,581,75,64,87,35,563,-150,-154,-502,478,1638,463,-155,-500,638,2869,-488,-335,-398,-313,-943,354948
526,113,-118,-44,32,-6,700,187,-260,7,564,110,-190,118,50,597,-169,-158,-556,478,1814,474,-190,-532,623,3124,-501,-385,-463,-368,-828,354949
-131,-5,43,-65,-67,-82,-112,-148,43,-78,-99,-153,-10,-214,-151,-50,-89,7,-125,-204,150,-164,-156,-46,-368,900,-40,-140,-132,-101,294,354950
-236,-4,99,-28,-42,-45,-279,-241,128,-117,-291,-206,92,-433,-93,-191,-17,88,99,-305,-381,-269,-87,138,-565,151,132,3,65,62,515,354951
-160,-3,84,-20,-40,-31,-236,-372,68,79,-248,-182,33,-188,-59,-92,7,94,96,-194,-244,-168,-43,98,-400,299,90,-5,76,60,326,354952
-162,-13,87,-31,-36,-19,-323,-267,-54,84,-70,-32,76,-123,-67,-88,19,80,126,-186,-249,-151,-26,105,-347,248,106,20,90,70,320,354953
-170,-19,83,-36,-28,-19,-358,-70,-98,-242,-4,-266,77,-62,-77,-102,14,50,140,-190,-267,-148,-25,110,-319,211,95,27,86,68,279,354954
-112,-26,74,-47,-23,-11,-254,-109,-20,-90,60,-91,75,69,-33,-16,71,77,199,-88,-124,-54,44,148,-183,364,126,98,137,118,304,354955
167,24,-2,-32,24,34,164,85,-39,-23,100,194,53,130,41,240,34,2,21,182,556,204,24,-43,263,1276,-64,12,10,18,-228,354956
509,80,-102,-32,62,38,662,451,-48,-56,248,203,-70,220,100,528,-148,-187,-445,438,1522,445,-147,-478,694,2651,-451,-294,-340,-295,-885,354957
447,82,-94,-35,25,-11,586,306,8,-37,358,193,-57,214,63,474,-163,-177,-490,371,1498,392,-172,-480,568,2678,-461,-337,-386,-325,-922,354958
270,79,-42,-23,1,-27,376,7,73,-168,235,94,-33,59,-3,354,-107,-88,-356,227,1121,253,-126,-317,310,2214,-291,-261,-290,-224,-549,354959
-130,20,76,-17,-38,-46,-122,-323,127,-105,-138,-97,76,-179,-29,48,71,136,75,-77,104,-36,25,137,-181,829,142,31,71,77,349,354960
-167,-10,87,-9,-40,-45,-190,-115,94,-1,-349,-143,-25,-179,-93,-47,71,128,141,-150,-164,-109,37,152,-263,464,133,60,112,90,397,354961
-151,-19,67,9,-35,-24,-165,-175,166,-89,-50,-157,-119,-359,-103,-106,-5,51,85,-193,-236,-189,-17,79,-302,374,60,-5,43,20,315,354962
-103,0,86,28,-5,9,-154,-149,130,-154,60,-133,-84,-192,-77,-100,-21,24,56,-161,-230,-177,-56,81,-274,378,85,-9,52,42,306,354963
-63,-9,86,3,9,15,-187,-181,145,74,-139,-38,150,-95,-31,-71,-1,53,80,-129,-206,-129,-36,109,-218,371,112,16,80,74,285,354964
-67,-15,68,-18,-5,-3,-189,-39,55,-7,-363,-75,-30,-30,-59,-86,9,46,57,-135,-208,-124,-28,73,-212,353,82,-3,74,45,234,354965
-44,-2,30,-24,-25,-34,-33,-264,8,-173,-118,-53,5,123,-39,-6,42,46,50,-43,-29,-28,35,52,-100,572,61,10,78,46,189,354966
-78,6,22,-1,-35,-42,-27,-81,-71,-53,-27,-65,-12,1,-46,6,51,48,90,-44,-22,-25,62,84,-87,556,83,55,99,64,206,354967
-142,-12,24,-20,-41,-55,-130,-13,19,-99,-72,-110,-89,-105,-20,-102,-14,-23,56,-152,-191,-131,-15,58,-190,324,37,17,73,15,190,354968
-139,-28,65,-36,-21,-13,-196,-179,46,-71,-325,-43,147,-74,-24,-91,17,7,108,-153,-265,-119,18,126,-186,196,98,79,132,63,221,354969
-101,-29,68,-24,0,6,-200,-129,52,-21,-162,-79,263,-50,-59,-47,45,34,121,-113,-208,-84,42,128,-119,244,105,99,147,87,211,354970
-88,-18,53,12,11,-6,-187,-104,21,47,87,-126,203,-154,-74,-57,44,44,120,-131,-222,-81,42,117,-125,236,88,77,128,60,201,354971
-69,-10,32,18,2,-8,-105,-106,122,42,216,-62,83,-177,-49,-80,1,-1,40,-157,-201,-104,4,40,-138,302,25,-1,61,6,157,354972
-50,-18,35,-4,-3,7,-94,-42,42,-45,35,152,80,-252,-55,-75,-7,-19,12,-156,-178,-95,-11,9,-133,343,0,-27,38,-1,126,354973
-76,-23,45,-13,-7,9,-136,91,27,7,12,83,-61,-239,12,-93,4,18,55,-169,-236,-97,9,40,-181,268,45,5,54,8,209,354974
-54,-14,47,-2,13,20,-88,73,105,-58,-218,18,52,-131,14,-74,7,13,56,-150,-177,-87,13,33,-159,365,41,-6,44,10,161,354975
-175,-29,80,9,-4,12,-255,-48,183,121,-199,-62,113,-173,14,-181,45,48,175,-251,-499,-196,41,155,-327,-82,151,63,134,85,367,354976
-204,-42,67,14,-10,0,-272,-189,148,134,-162,-116,-58,-123,-70,-220,18,9,186,-248,-581,-214,30,161,-336,-207,151,64,152,88,261,354977
-180,-43,61,22,-14,-8,-212,-185,55,57,-34,-79,46,83,-12,-201,49,45,218,-215,-570,-192,62,186,-290,-248,167,111,193,122,409,354978
-153,-47,31,13,-21,-30,-149,94,100,119,102,-93,129,-24,16,-165,67,47,189,-158,-509,-160,65,174,-231,-215,153,105,194,129,355,354979
-10,-7,11,33,10,-14,19,13,-29,-91,196,62,206,110,-9,-29,14,-17,55,-24,-142,-39,22,53,-36,260,18,37,82,44,77,354980
1,8,24,45,26,2,-7,152,-89,-61,514,75,126,-120,20,-22,-16,-38,16,-19,-94,-44,-19,11,-38,298,0,7,38,13,70,354981
-19,-12,10,38,14,8,-31,-11,-51,-115,-12,-21,194,-214,-84,-52,-30,-27,-28,-50,-146,-84,-49,-3,-89,220,-15,-28,2,-11,122,354982
-14,-16,20,35,8,26,-14,-88,32,23,24,-4,189,-17,28,-46,-27,0,-15,-39,-155,-61,-60,28,-107,181,40,-18,39,19,130,354983
-39,-17,21,12,-3,1,-49,19,23,202,-7,-7,20,94,36,-21,-10,24,41,-17,-166,-35,-34,62,-114,153,80,13,74,53,103,354984
-63,-27,22,1,-8,-6,-105,101,114,145,-153,-19,1,69,-61,-88,-53,-38,-24,-97,-255,-122,-67,-7,-215,46,17,-45,-11,-16,126,354985
-141,-38,62,12,-13,-9,-195,-71,190,86,-119,1,94,-36,-84,-213,0,18,67,-215,-549,-248,-20,84,-367,-376,101,16,50,41,370,354986
-260,-53,73,26,-37,-30,-308,-177,78,14,-153,-43,34,-133,-41,-242,104,132,234,-243,-773,-268,110,269,-374,-735,241,167,218,172,572,354987
-403,-73,75,-1,-64,-55,-491,-318,36,29,-184,-138,73,-66,3,-380,105,137,346,-368,-1133,-383,110,357,-519,-1240,312,233,297,222,688,354988
-426,-81,96,27,-45,-23,-540,-313,142,46,-488,-216,-31,-241,-20,-413,143,172,499,-396,-1322,-391,173,476,-539,-1547,416,328,414,314,652,354989
-81,-33,5,32,3,8,-103,-34,62,61,-167,-3,-53,-55,87,-46,100,94,265,-25,-423,-26,123,214,0,-358,182,195,247,174,60,354990
-59,-39,-40,1,-23,-29,-11,-189,-17,38,-80,148,-122,132,48,57,113,118,168,58,-155,73,116,156,131,29,147,145,196,147,126,354991
-87,-20,-25,1,-18,-37,-24,62,-10,7,-109,209,-24,34,57,52,145,126,175,37,-178,69,142,188,131,53,168,165,226,155,128,354992
-81,-26,7,-17,-9,-21,-36,58,-46,-27,-223,303,-133,-115,18,-19,85,54,129,-30,-241,15,105,138,53,30,112,117,153,90,93,354993
-92,-27,1,7,-3,-6,-70,-61,9,1,-229,59,-89,-146,-65,-114,20,-14,49,-127,-365,-83,22,67,-79,-91,48,37,70,15,120,354994
-66,0,-14,62,12,-13,-74,0,-45,2,-188,-68,-4,-215,-87,-159,-34,-56,0,-156,-363,-114,-16,4,-115,-50,-2,-23,28,-24,56,354995
-234,-21,18,57,-24,-56,-284,-33,-22,94,-297,-138,67,-259,-131,-299,25,14,158,-286,-725,-240,57,151,-349,-597,128,69,136,64,356,354996
-610,-103,119,46,-86,-89,-724,-190,149,-21,-403,-182,246,-213,-116,-567,198,212,592,-540,-1674,-508,225,592,-764,-1981,545,393,485,376,1147,354997
-643,-128,159,26,-69,-32,-817,-355,216,-13,-420,-187,164,-235,-75,-615,245,241,710,-557,-1923,-549,264,693,-769,-2421,628,492,612,474,1196,354998
-446,-106,123,33,-20,8,-606,-376,220,49,-15,-138,6,-103,-49,-468,195,173,581,-364,-1543,-382,234,545,-480,-2001,483,407,531,398,736,354999
19,-35,-6,47,44,44,10,-63,13,29,188,71,-55,74,30,-55,51,-21,157,66,-353,16,113,94,140,-446,56,112,191,106,-232,355000
95,-8,-37,58,57,49,179,199,7,-3,16,47,-59,78,-12,-26,-30,-99,-25,70,-93,12,27,-74,152,-106,-111,-24,22,-47,-310,355001
76,11,-36,79,59,49,239,346,-19,-10,-17,-30,13,169,-50,-64,-61,-111,-57,19,-111,-41,2,-92,97,-134,-143,-48,-21,-90,-195,355002
90,18,-34,78,50,53,236,108,-63,28,-35,89,74,254,10,-9,-36,-57,-21,44,-62,0,20,-31,140,-93,-58,-7,27,-38,-92,355003
70,16,-20,59,37,41,154,-54,-4,63,-393,52,115,229,37,7,-14,-31,18,49,-58,9,22,5,163,-114,5,34,50,-17,-68,355004
38,-2,-22,31,21,26,41,-212,-5,24,-74,-41,34,172,42,-24,-22,-28,-2,6,-125,-28,2,-29,92,-220,-16,4,15,-35,-43,355005
-143,-44,-3,1,-22,-20,-160,-156,58,41,-97,-77,-28,129,-35,-158,69,83,146,-121,-531,-132,102,152,-124,-800,145,109,143,102,353,355006
-376,-79,53,22,-51,-47,-421,-239,147,-20,-33,-119,-123,14,-60,-344,154,183,372,-310,-1136,-306,184,393,-412,-1645,385,251,332,269,738,355007
-472,-95,83,43,-56,-33,-581,-259,251,22,-161,-105,-70,-44,-149,-466,181,203,463,-412,-1505,-407,201,491,-553,-2164,463,300,422,326,958,355008
-428,-91,70,46,-38,-18,-507,-6,133,-75,-115,-99,86,-64,-162,-456,164,161,460,-358,-1474,-377,197,457,-463,-2119,425,306,426,323,656,355009
-12,-28,-35,40,20,19,-3,191,-25,120,132,125,-76,152,2,-52,54,-6,133,51,-361,20,99,76,138,-587,71,95,147,91,-89,355010
42,-4,-44,38,16,16,-5,101,-115,153,-12,169,83,287,-27,7,8,-61,-12,90,-56,74,55,-36,215,-124,-41,17,24,-24,-112,355011
5,-10,-29,26,16,13,-141,180,-100,132,23,75,12,240,-3,-43,-8,-58,-26,33,-123,22,24,-24,116,-148,-26,5,7,-32,-42,355012
-9,-15,-23,19,15,10,-121,109,100,-65,68,-13,-108,110,89,-52,-12,-32,-52,16,-139,7,15,-42,72,-104,-46,-23,2,-42,-7,355013
2,-22,-9,27,14,18,68,157,183,6,73,253,-56,40,109,-34,14,11,3,37,-147,19,58,4,68,-82,-14,13,44,-19,-16,355014
11,7,-19,48,15,13,224,118,30,39,78,128,45,193,90,-47,-13,-19,-40,23,-143,0,10,-25,46,-36,-30,-30,5,-40,39,355015
-309,-38,36,51,-36,-47,-211,-246,-32,-31,-87,-182,-21,103,-41,-320,56,92,191,-267,-909,-277,49,246,-388,-1117,238,114,189,142,655,355016
-831,-133,142,12,-123,-107,-977,-611,60,26,-575,-316,-155,19,-96,-771,236,289,699,-697,-2274,-692,211,769,-1019,-3059,730,459,598,494,1556,355017
-919,-175,140,-19,-124,-93,-1190,-552,70,-106,-854,-232,-117,-78,-57,-828,337,365,907,-717,-2637,-724,330,926,-1037,-3693,867,620,782,630,1621,355018
-561,-121,72,16,-56,-26,-793,-215,117,11,-424,-152,-109,9,-5,-482,316,314,763,-348,-1863,-370,337,724,-502,-2787,674,563,687,549,911,355019
11,-47,-32,63,35,50,-18,117,65,149,263,109,-81,325,78,-47,76,23,223,94,-469,36,128,145,170,-958,140,184,218,164,-260,355020
134,-20,-56,81,55,68,261,129,-51,106,359,217,45,255,17,-36,-92,-134,-97,72,-115,6,-17,-149,190,-444,-133,-70,-78,-97,-454,355021
152,18,-55,103,76,72,370,209,-58,-10,501,126,-65,2,-33,-28,-116,-150,-128,64,-6,25,-42,-171,207,-311,-155,-93,-105,-131,-438,355022
150,34,-47,82,68,66,397,229,-66,-4,385,60,-101,4,3,2,-79,-106,-118,79,79,61,-18,-170,255,-234,-172,-66,-94,-137,-341,355023
122,32,-58,54,47,43,339,227,-78,2,359,-1,16,94,2,47,4,-20,-51,112,91,96,60,-85,272,-230,-128,4,-10,-55,-228,355024
111,22,-69,40,28,31,258,128,-75,-140,359,84,-128,55,84,67,29,-10,-13,114,103,116,100,-40,271,-235,-104,39,17,-28,-173,355025
-123,-21,10,46,2,32,-73,-53,46,91,21,-20,-182,-241,-20,-171,56,39,136,-130,-521,-114,86,142,-96,-1072,80,114,123,50,288,355026
-351,-63,44,44,-33,1,-348,-157,146,50,-316,-103,-146,-81,-40,-388,100,116,343,-321,-1156,-314,96,349,-400,-1950,298,223,290,204,618,355027
-421,-99,69,38,-38,0,-469,-383,127,-61,-332,-100,-83,16,-92,-486,98,115,384,-400,-1437,-396,109,401,-538,-2341,363,240,333,252,722,355028
-390,-85,56,49,-25,3,-391,-157,147,62,-107,-5,83,128,-80,-464,117,112,381,-349,-1414,-347,149,388,-463,-2324,348,244,350,258,643,355029
51,6,-60,46,43,47,220,106,-11,66,333,145,127,235,119,-39,28,-39,35,114,-242,87,80,-2,210,-695,-18,41,64,21,-257,355030
147,14,-74,20,36,55,355,143,26,94,8,240,-20,39,86,56,-29,-90,-107,189,107,141,28,-132,321,-174,-129,-50,-71,-88,-367,355031
167,14,-51,21,67,78,262,135,-29,2,-134,290,17,20,25,17,-68,-109,-143,138,121,81,-18,-168,265,-71,-152,-93,-127,-132,-265,355032
136,3,-42,39,61,66,79,149,115,-42,-125,-132,-7,-120,-27,-53,-93,-107,-186,63,-31,-24,-66,-171,161,-183,-164,-120,-136,-159,-150,355033
159,9,-58,21,26,33,105,180,59,12,59,44,-157,-7,-31,51,-59,-86,-187,155,159,73,-31,-146,286,105,-148,-100,-91,-118,-280,355034
91,-2,-59,-10,-9,0,87,194,-102,104,218,100,-71,285,-2,58,-49,-68,-160,152,159,85,-24,-125,233,156,-118,-95,-77,-101,-260,355035
-170,-28,45,41,-20,7,-110,-105,5,51,129,-28,82,74,-78,-218,3,26,62,-136,-582,-182,31,110,-244,-858,98,25,77,31,318,355036
-315,-52,106,97,2,42,-254,-148,42,11,-41,-210,14,-261,-60,-454,45,71,256,-357,-1212,-389,71,277,-557,-1759,239,117,206,135,608,355037
-272,-59,67,88,6,38,-176,-206,12,28,14,-193,97,-324,-111,-459,17,27,250,-346,-1168,-381,60,225,-481,-1779,198,106,174,111,436,355038
-97,-23,13,101,28,36,82,56,-17,104,115,-35,-112,-60,-2,-267,3,-16,134,-163,-687,-198,49,95,-178,-1217,68,63,84,43,29,355039
115,13,-90,44,16,28,307,387,-61,216,414,78,-204,126,29,-3,-56,-101,-98,74,44,55,5,-158,201,-285,-172,-73,-98,-114,-369,355040
126,18,-113,-5,9,11,201,87,-51,45,689,129,-116,295,61,121,37,-7,-53,197,287,194,77,-69,342,-23,-73,9,-29,-25,-285,355041
74,7,-98,-54,-15,-34,54,-127,-113,38,23,181,-65,443,134,155,105,76,21,209,253,214,113,42,331,-97,41,98,70,67,-113,355042
63,-3,-97,-58,-22,-59,16,110,-120,-32,17,129,-215,284,116,129,62,46,13,155,226,156,79,20,285,-155,21,65,29,44,-162,355043
35,-8,-75,-20,-8,-39,23,49,-136,-98,192,48,-181,166,-10,54,48,22,-2,84,103,83,61,31,188,-343,20,42,10,43,-52,355044
53,9,-51,9,12,7,87,-121,-96,-29,69,145,19,-193,17,30,28,-11,-37,80,85,80,56,2,174,-372,-40,15,-1,17,-87,355045
-4,7,-25,10,19,35,4,-95,-111,-102,37,-9,-73,-219,-17,-9,49,35,58,29,-85,42,57,94,98,-613,41,83,80,83,26,355046
-81,-6,13,18,13,32,-79,-150,60,-182,92,-102,-57,-85,-44,-107,60,64,157,-50,-315,-33,42,170,-9,-909,128,135,150,140,146,355047
-9,-7,-9,36,9,30,49,-12,-30,-125,162,11,-57,-109,3,-60,32,8,41,13,-158,12,27,52,100,-667,30,41,61,65,-27,355048
112,16,-81,37,14,12,214,-53,-103,-109,93,45,-78,90,-9,48,-32,-76,-148,117,191,96,-28,-126,240,-156,-142,-94,-88,-75,-278,355049
72,20,-41,28,18,31,128,-127,-78,28,59,0,-246,66,-114,-23,-68,-99,-152,36,59,17,-38,-123,122,-263,-126,-114,-102,-104,-217,355050
86,10,-20,8,23,48,109,-21,-100,-54,165,-65,-184,-44,-68,-61,-104,-126,-175,26,30,-17,-77,-166,72,-201,-141,-152,-148,-153,-230,355051
93,-4,-2,12,27,58,101,198,-24,-177,79,-148,-38,-22,1,-49,-92,-98,-157,49,20,-7,-62,-139,44,-147,-99,-125,-134,-126,-201,355052
83,2,-12,27,26,46,170,157,9,53,176,-190,39,182,-16,-24,-68,-79,-115,73,48,18,-44,-117,37,-49,-79,-95,-108,-107,-159,355053
23,6,-20,31,3,6,119,-103,34,5,46,-91,106,240,-30,-42,-18,-25,-32,48,-38,-7,-5,-60,10,-132,-33,-38,-56,-59,-148,355054
-5,-4,-12,14,-23,-4,67,-202,45,-46,141,44,42,54,-8,-27,12,8,-13,57,-72,-3,9,-13,42,-178,1,-3,-17,-25,-93,355055
92,4,-23,-4,6,19,106,131,29,-43,247,96,-127,-64,50,53,-14,-20,-103,119,140,77,-19,-78,196,103,-70,-37,-58,-77,-158,355056
-138,-23,43,7,-14,10,-182,8,166,74,53,38,44,-154,-11,-151,82,110,107,-111,-467,-130,60,162,-102,-789,145,119,137,79,341,355057
-193,-28,48,37,-19,3,-164,7,205,265,26,-8,-47,-162,-65,-238,66,84,145,-186,-686,-187,51,191,-205,-1113,180,104,159,109,342,355058
-127,-34,7,31,-12,2,-49,-176,17,15,-23,5,5,17,-94,-213,-6,-3,78,-169,-558,-168,11,84,-154,-975,77,36,76,25,105,355059
-10,-6,-47,11,9,10,70,-5,-79,-53,-150,78,-85,-48,3,-78,-23,-48,-3,-36,-193,-32,11,-40,26,-553,-43,-19,-8,-43,-65,355060
14,-1,-32,-5,7,9,0,-162,65,103,-230,-4,-80,137,4,-38,-3,-25,-13,-7,-99,14,13,-32,59,-467,-44,-12,-9,-40,-43,355061
7,-24,-13,-30,-3,15,-103,-228,-5,114,-104,-28,-208,172,87,-15,32,2,29,17,-74,48,48,-2,67,-486,10,31,21,5,-73,355062
8,-25,-6,-37,6,20,-97,92,22,91,-155,74,-111,-53,9,13,50,21,61,53,-32,70,83,24,95,-463,27,62,43,39,-57,355063
50,-6,0,-24,20,34,-8,213,105,-7,17,126,-44,82,83,44,38,4,27,83,87,104,73,-6,157,-338,-1,38,10,21,-39,355064
23,-8,-10,-17,-1,22,-23,47,51,65,39,107,4,29,87,57,74,63,88,86,85,117,95,59,154,-355,73,72,54,63,-20,355065
-16,-8,-8,-8,-5,1,-64,182,72,44,-18,9,179,162,66,-6,7,13,27,23,0,50,23,0,40,-443,32,12,-2,17,-9,355066
-92,-17,17,3,-8,-2,-162,176,50,44,-139,-30,121,33,7,-179,-56,-56,-18,-145,-301,-130,-44,-31,-174,-817,-7,-49,-44,-42,74,355067
-175,-29,60,24,1,21,-239,64,52,139,-184,-97,30,-135,7,-233,37,34,184,-184,-572,-177,57,163,-233,-1201,164,113,130,101,268,355068
-175,-46,51,27,2,16,-250,-76,162,181,94,-14,-87,-72,-3,-227,71,65,225,-160,-632,-172,86,194,-212,-1281,201,155,180,138,315,355069
40,-17,-29,39,11,21,55,-8,-77,83,353,105,-38,201,47,-39,-17,-31,-38,47,-104,-10,1,-43,65,-518,-29,-24,0,-16,-140,355070
88,14,-26,44,24,32,153,115,-7,-9,229,44,-11,175,117,-4,-33,-42,-106,79,22,23,-15,-86,102,-289,-78,-58,-38,-56,-213,355071
85,25,-19,55,21,37,245,4,5,22,160,64,93,31,61,35,17,4,-48,127,76,77,33,-33,159,-180,-29,5,18,-12,-120,355072
70,20,-36,27,4,20,258,-149,-38,42,163,79,198,128,44,77,37,43,-10,162,103,108,39,-2,196,-112,8,22,37,11,-76,355073
84,20,-33,10,18,13,156,-125,-99,9,131,-33,116,143,14,93,20,30,-41,171,157,119,32,-35,223,2,-13,-5,6,-10,-142,355074
75,12,-16,-17,23,25,85,-107,98,26,15,22,-85,-1,12,74,8,5,-63,144,168,83,19,-63,200,37,-39,-22,-37,-46,-138,355075
-488,-113,100,-59,-94,-42,-656,-548,301,-47,-407,-177,68,-151,-165,-495,78,137,314,-460,-1274,-468,78,350,-594,-1919,359,226,230,184,978,355076
-1067,-211,236,-13,-167,-103,-1335,-777,388,113,-678,-326,313,-304,-219,-1038,321,413,996,-961,-2982,-946,340,1007,-1317,-4359,963,680,798,649,1930,355077
-978,-183,201,70,-127,-94,-1084,-665,374,262,-528,-164,249,-23,-73,-932,386,437,1100,-813,-2952,-810,437,1056,-1102,-4464,995,752,919,735,1755,355078
-721,-143,106,104,-68,-71,-707,-373,146,253,-439,-63,202,16,-32,-777,290,265,857,-618,-2459,-624,360,784,-769,-3893,716,586,743,556,1169,355079
77,-1,-82,140,81,53,221,346,-42,303,123,242,50,116,91,-125,-15,-102,79,45,-500,7,69,-24,218,-1253,-34,68,136,25,-372,355080
268,30,-111,82,78,66,350,415,-106,99,448,112,-17,146,151,86,-114,-177,-189,194,186,188,-49,-258,415,-317,-224,-110,-116,-171,-601,355081
200,12,-74,21,46,37,218,319,-71,134,427,136,23,80,111,78,-48,-108,-159,167,194,188,7,-202,334,-321,-178,-82,-109,-135,-422,355082
158,-6,-57,3,32,36,181,109,33,232,-158,232,77,104,41,60,-33,-93,-131,138,191,171,5,-165,261,-315,-144,-86,-127,-103,-406,355083
149,4,-64,0,38,39,205,195,-21,50,375,179,39,-29,105,58,-60,-103,-165,122,241,149,-32,-194,244,-219,-164,-116,-160,-128,-410,355084
92,7,-54,-7,23,23,167,143,-123,103,140,80,99,106,59,25,-34,-46,-101,89,162,118,-15,-117,203,-308,-91,-60,-105,-78,-238,355085
-312,-59,34,-13,-53,-49,-331,-199,5,-9,-281,-123,318,-13,-59,-352,34,65,190,-295,-828,-262,44,185,-336,-1643,199,120,115,88,541,355086
-737,-138,141,20,-96,-67,-915,-570,249,177,-824,-272,255,-303,-126,-779,187,235,650,-693,-2128,-655,194,638,-904,-3459,597,409,495,397,1287,355087
-791,-164,155,50,-90,-54,-964,-587,225,259,-708,-294,136,-290,-7,-870,220,244,776,-740,-2479,-726,234,737,-945,-4001,685,506,614,487,1335,355088
-589,-134,111,89,-58,-20,-640,-370,185,252,-284,-165,98,4,71,-679,200,189,668,-515,-2064,-527,227,601,-608,-3491,564,452,554,421,942,355089
85,-10,-71,109,54,33,216,296,-65,38,216,330,2,234,169,9,76,-3,140,190,-285,131,144,39,353,-1106,44,119,161,83,-312,355090
203,20,-119,74,64,27,389,391,-83,-76,329,250,-33,137,189,164,51,-17,-25,315,210,250,110,-86,506,-420,-74,31,21,-18,-448,355091
169,33,-101,61,41,13,422,254,-93,48,340,-58,-200,189,126,161,69,5,-35,304,218,214,114,-64,471,-346,-56,33,20,-15,-348,355092
174,35,-86,40,48,24,440,7,-221,183,180,365,-71,137,54,165,73,8,-44,299,238,216,113,-59,445,-290,-37,9,3,-28,-350,355093
191,25,-90,27,53,50,306,44,-297,161,95,157,-279,127,27,91,-33,-77,-174,205,197,128,-15,-166,334,-299,-120,-100,-105,-121,-337,355094
161,6,-88,16,43,35,194,130,-160,-57,115,74,-137,24,76,50,-65,-99,-182,161,158,94,-35,-168,264,-348,-132,-107,-126,-133,-314,355095
-360,-83,39,-15,-61,-33,-466,-343,98,-283,-493,-229,73,-189,-13,-401,95,113,275,-320,-1102,-343,120,295,-424,-2061,310,200,203,147,778,355096
-949,-187,190,27,-131,-94,-1153,-699,349,-10,-998,-378,317,-302,-159,-993,284,336,867,-888,-2805,-876,300,879,-1182,-4450,836,575,680,551,1791,355097
-912,-184,181,93,-96,-64,-1038,-595,388,-23,-596,-256,241,-176,-136,-1011,287,315,887,-841,-2947,-850,315,895,-1090,-4748,834,610,761,598,1595,355098
-620,-134,116,120,-30,0,-653,-441,198,162,-362,-87,189,-84,-61,-784,196,181,680,-565,-2322,-589,254,638,-662,-3979,579,454,596,433,961,355099
157,-12,-89,87,89,90,237,150,-41,-103,162,209,-129,169,96,-29,27,-77,58,193,-251,158,134,-53,412,-1210,-72,60,91,2,-543,355100
328,21,-136,40,96,87,326,332,-116,-37,44,248,-91,122,175,233,14,-70,-117,388,452,384,110,-185,639,-263,-157,-17,-55,-82,-664,355101
213,20,-117,5,51,48,109,328,-121,-4,297,217,83,388,163,184,36,-28,-69,309,355,319,101,-107,492,-368,-87,11,-43,-44,-414,355102
129,29,-106,2,25,23,-31,80,-118,-155,221,293,171,364,121,181,75,32,4,282,284,295,115,-10,383,-445,28,52,22,37,-225,355103
113,12,-86,-20,15,11,30,-98,-173,-105,-83,344,-5,235,105,178,73,38,23,265,292,288,104,-11,338,-400,35,40,13,22,-234,355104
137,7,-73,-14,34,31,199,169,-189,-163,-21,107,-132,272,-12,100,-15,-34,-110,194,261,201,15,-144,257,-382,-95,-90,-119,-98,-297,355105
-11,-30,-8,-1,21,44,-12,127,-134,-16,-203,-63,-67,-1,-65,-113,17,20,18,-23,-252,-14,58,14,-20,-1057,32,3,-4,-19,184,355106
-381,-90,93,27,-37,-3,-401,-205,11,40,-220,-101,272,-65,-17,-481,104,127,317,-379,-1280,-372,149,337,-503,-2451,324,198,245,180,883,355107
-515,-81,106,74,-47,-22,-450,-227,163,154,-312,-141,281,-309,-103,-599,127,153,477,-491,-1699,-501,168,459,-620,-3042,439,302,369,274,946,355108
-423,-68,46,86,-29,-25,-334,-46,42,45,-249,-127,114,-306,-56,-523,108,105,440,-385,-1537,-430,149,398,-415,-2859,384,300,359,250,645,355109
108,-6,-72,74,59,39,223,309,-112,-78,38,111,-201,155,35,-31,-4,-61,41,134,-211,63,54,-24,317,-1097,-20,74,62,0,-322,355110
215,11,-92,32,63,46,292,166,-99,82,187,225,-87,375,64,90,-61,-119,-175,219,208,155,1,-207,414,-514,-209,-78,-116,-149,-460,355111
156,-3,-108,-17,31,23,243,187,-119,73,258,263,-98,344,74,86,-37,-82,-168,209,199,139,7,-162,358,-544,-166,-69,-100,-131,-307,355112
159,11,-90,-12,33,18,266,59,-106,20,161,265,-164,272,157,135,23,-14,-94,240,259,195,64,-78,376,-508,-78,-1,-44,-53,-273,355113
110,10,-84,19,13,7,272,-24,-99,-104,-100,147,36,51,203,81,10,-11,-64,183,167,146,42,-62,254,-645,-50,-4,-48,-44,-74,355114
59,15,-60,40,16,-1,229,161,-71,85,-95,5,-28,159,36,24,25,14,7,130,22,92,47,-8,167,-864,-9,38,-5,-5,-10,355115
-130,-30,-28,8,-18,-25,-83,-29,-108,267,-252,-2,-114,39,-18,-163,54,60,106,-70,-444,-92,46,112,-92,-1497,117,83,81,72,334,355116
-501,-75,58,20,-77,-56,-533,-300,18,52,-506,-126,5,23,0,-498,130,184,393,-405,-1427,-419,137,428,-551,-2829,411,254,326,283,967,355117
-463,-90,43,49,-48,-33,-499,-133,31,65,-351,-106,-57,-100,-22,-487,134,155,423,-370,-1477,-387,171,414,-459,-2909,367,277,370,286,778,355118
-192,-50,20,61,24,34,-239,-13,-91,-2,-43,-9,-58,-73,14,-308,54,32,224,-163,-937,-191,98,188,-138,-2179,133,151,223,136,267,355119
161,-5,-41,62,79,88,186,-25,-111,-116,131,131,-128,253,73,1,-19,-76,-57,162,-54,117,12,-84,298,-943,-99,-16,4,-41,-320,355120
232,0,-60,32,75,85,401,-14,-104,0,183,166,-186,102,79,77,-73,-122,-205,206,229,173,-53,-201,350,-485,-204,-112,-114,-141,-407,355121
223,23,-41,33,74,96,449,206,87,77,202,92,-152,-144,-8,47,-97,-119,-231,156,236,147,-74,-207,283,-426,-220,-145,-152,-170,-399,355122
174,12,-46,28,55,87,347,17,54,140,-71,-4,-58,-37,-32,-55,-156,-184,-300,54,143,50,-132,-279,168,-464,-285,-226,-246,-271,-371,355123
166,29,-51,53,55,82,200,118,20,-58,-131,-152,24,-10,-18,-95,-178,-205,-306,28,131,13,-147,-322,106,-414,-304,-249,-283,-305,-353,355124
151,29,-69,35,36,50,169,129,153,21,432,-85,-102,146,113,39,-45,-64,-158,145,259,137,-31,-164,216,-245,-126,-107,-146,-135,-233,355125
138,12,-61,4,9,16,213,173,64,99,348,68,-140,142,110,75,-37,-40,-164,164,298,154,-35,-141,252,-169,-100,-103,-135,-111,-230,355126
181,30,-60,12,28,26,296,197,54,5,183,139,-134,-35,83,104,-54,-45,-189,182,365,161,-35,-174,254,-54,-130,-114,-157,-140,-249,355127
123,30,-56,1,18,6,205,64,57,66,146,86,-19,23,44,110,15,26,-64,163,269,147,20,-54,168,-185,-13,-22,-68,-39,-92,355128
104,26,-31,-1,25,11,137,70,-42,33,1,28,-89,42,51,79,1,-3,-50,139,212,114,16,-46,144,-263,-25,-17,-66,-34,-201,355129
124,20,-57,-4,33,16,165,239,-29,-84,-95,79,-175,44,38,101,4,-10,-90,149,265,128,1,-81,190,-230,-54,-42,-89,-59,-292,355130
94,10,-84,-33,4,-10,123,127,-140,-115,-139,48,-145,75,7,170,32,31,-59,193,320,190,17,-20,261,-229,-2,12,-27,16,-123,355131
70,12,-76,-32,1,-4,22,-102,-22,-78,-128,123,-150,168,9,165,36,40,-8,178,303,195,21,7,245,-339,12,38,-7,30,-150,355132
52,2,-64,-56,-4,-8,-142,130,-55,-213,-112,16,-222,175,37,74,-18,-2,-61,85,201,88,-21,-60,149,-511,-65,-29,-77,-33,-210,355133
92,2,-41,-67,10,20,-119,140,81,-4,26,103,-93,125,-11,90,-26,-27,-88,113,268,110,-23,-76,189,-470,-91,-43,-84,-36,-200,355134
187,19,-41,-15,49,46,103,200,-71,35,152,101,5,-57,85,170,5,-7,-74,202,429,200,16,-74,283,-261,-95,-28,-68,-26,-212,355135
351,73,-71,54,88,55,445,308,-141,132,164,46,-12,-71,109,277,-69,-98,-236,315,799,294,-52,-254,433,286,-277,-154,-216,-154,-553,355136
569,92,-144,26,98,66,750,445,-207,-98,368,122,-127,-21,43,433,-226,-268,-563,466,1449,455,-206,-591,669,1274,-568,-392,-505,-392,-1013,355137
545,89,-148,-13,73,58,702,369,-162,-202,281,106,-201,56,87,459,-237,-268,-618,468,1577,455,-247,-630,643,1551,-579,-437,-574,-443,-970,355138
386,75,-104,-49,27,24,457,194,-56,-52,88,3,-110,80,109,366,-179,-188,-495,346,1279,344,-207,-483,434,1242,-409,-353,-479,-363,-673,355139
43,8,1,-69,-28,-33,0,-188,-1,31,55,-164,38,103,4,85,-24,13,-108,70,377,79,-74,-67,10,94,-4,-82,-141,-76,122,355140
-3,-1,8,-30,-12,-17,-43,56,-23,-95,-375,-102,36,-176,-47,4,-10,30,-26,18,128,-7,-52,7,-68,-206,44,-50,-69,-15,129,355141
51,13,-16,15,10,7,147,154,22,-76,-195,16,141,-235,-51,-2,-73,-47,-119,8,171,-24,-118,-97,-42,-90,-59,-141,-143,-90,-37,355142
86,20,-1,29,11,25,297,1,40,-27,106,-98,-51,-224,10,12,-81,-63,-166,20,187,-14,-135,-132,-21,-27,-111,-169,-158,-118,-104,355143
70,11,-4,16,-3,4,261,50,-47,-16,65,-47,-195,-167,-51,49,-27,-11,-84,53,157,21,-75,-41,-19,-33,-28,-88,-82,-39,-12,355144
79,29,3,37,19,-5,179,47,-140,-44,-22,32,-67,-159,12,65,-16,-17,-33,79,190,24,-40,-12,3,29,-7,-33,-49,-25,-3,355145
169,36,-44,14,13,-7,213,21,-159,31,112,49,-137,-84,43,129,-73,-95,-148,148,462,100,-86,-152,130,419,-153,-112,-166,-128,-318,355146
334,57,-69,-11,27,25,338,4,-153,110,269,7,-147,0,25,319,-67,-92,-255,323,931,283,-76,-261,380,1051,-247,-145,-252,-178,-541,355147
420,61,-99,-54,28,24,425,225,-99,-173,332,128,-184,146,78,411,-126,-141,-415,401,1251,375,-131,-415,514,1503,-382,-251,-375,-289,-723,355148
398,72,-76,-60,38,28,415,233,-24,-242,157,172,-85,-5,126,438,-101,-97,-419,391,1302,398,-122,-381,510,1554,-353,-257,-359,-265,-580,355149
77,28,20,-62,-11,-13,40,-98,0,-1,-258,-7,33,-222,64,149,6,56,-85,88,498,123,-31,-51,55,432,-45,-52,-120,-50,113,355150
22,-4,10,-42,-19,-23,-25,-136,-43,45,-282,-50,-114,-136,-41,50,-10,24,-12,-9,253,32,-45,-13,-71,57,-1,-35,-91,-22,62,355151
50,1,20,-12,0,-5,-12,63,-13,132,-89,-212,-141,-192,-20,16,-65,-49,-82,-59,188,-9,-115,-54,-105,-106,-37,-89,-119,-47,-25,355152
78,19,13,11,8,0,70,309,65,66,59,-330,-74,-287,-18,8,-93,-91,-124,-39,262,9,-137,-95,-33,-51,-88,-123,-133,-80,-63,355153
77,22,2,9,11,2,118,235,25,208,127,-126,62,-260,60,4,-108,-107,-156,-28,308,12,-133,-149,8,0,-149,-140,-170,-128,-122,355154
47,12,-14,-26,-7,-5,35,37,-28,160,102,-115,-24,-59,3,37,-59,-53,-124,-7,298,40,-97,-107,12,-20,-113,-100,-124,-80,-73,355155
400,86,-88,-17,48,33,465,385,-154,176,313,158,-174,125,75,396,-107,-134,-367,370,1188,382,-143,-372,502,1209,-358,-266,-297,-222,-807,355156
937,185,-206,-29,119,86,1098,592,-303,92,803,372,-145,233,177,910,-292,-349,-893,857,2688,843,-323,-904,1156,3341,-845,-620,-744,-590,-1706,355157
922,194,-172,-69,115,90,993,651,-288,-79,510,234,-88,214,130,925,-293,-321,-941,822,2803,824,-360,-897,1063,3630,-829,-645,-791,-611,-1513,355158
630,142,-100,-97,39,41,619,277,-86,-189,289,63,-71,71,86,763,-150,-118,-641,629,2239,642,-234,-565,727,2956,-504,-415,-544,-364,-802,355159
-28,22,42,-124,-82,-59,-134,-218,-69,-110,-166,-201,-24,-196,-26,221,70,168,-42,79,617,111,-36,69,-77,820,76,-17,-62,37,360,355160
-168,-13,78,-89,-87,-73,-240,-203,-125,-108,-151,-94,-115,-22,-113,17,112,172,118,-64,68,-55,26,184,-250,106,170,67,74,119,476,355161
-84,-9,53,-42,-42,-29,-111,-122,-89,2,-77,-135,-50,-80,-39,0,-1,36,-6,-56,93,-83,-79,38,-208,192,32,-48,-19,8,152,355162
-38,4,35,-12,-23,-14,-16,99,-101,30,454,-111,-20,-172,-24,-13,-48,-16,-47,-57,90,-88,-108,-22,-166,205,-31,-80,-53,-37,75,355163
-31,14,36,-3,-28,-19,-10,104,-45,150,170,-119,114,-95,16,-1,-17,0,-16,-49,69,-67,-67,14,-126,164,-11,-33,-17,-1,107,355164
-53,12,21,-9,-38,-56,-62,73,86,-5,-46,-77,-21,-262,-17,24,-9,-6,14,-22,88,-42,-61,27,-87,191,9,-9,17,14,97,355165
172,77,-42,13,3,-38,257,83,-19,19,324,90,-150,-12,109,281,-42,-66,-152,243,755,216,-75,-155,275,1085,-154,-100,-117,-83,-388,355166
486,124,-129,-30,25,-14,630,159,-171,-85,440,265,-226,210,39,646,-103,-151,-447,571,1751,543,-145,-445,750,2454,-418,-281,-354,-269,-947,355167
550,114,-132,-87,28,2,617,513,-290,-288,353,198,-285,229,55,716,-132,-165,-559,620,2030,612,-176,-541,788,2865,-505,-372,-446,-352,-980,355168
449,85,-62,-111,32,24,384,229,-257,-165,117,24,-58,100,37,537,-142,-135,-514,420,1684,441,-201,-470,480,2450,-438,-371,-443,-324,-685,355169
-49,12,55,-92,-53,-26,-207,-323,27,-61,-64,-245,55,-172,-127,29,-37,36,-92,-96,338,-58,-112,-29,-252,620,-28,-95,-121,-43,195,355170
-116,-3,80,-54,-44,-38,-244,-300,98,-101,-146,-161,-80,-125,-138,-73,-29,30,38,-182,18,-135,-105,56,-335,135,58,-26,-25,31,274,355171
-95,-8,74,-37,-34,-30,-189,-243,59,6,-105,-26,-2,-122,-137,-74,-57,6,30,-192,-13,-126,-116,28,-319,49,25,-43,-40,11,174,355172
-105,-9,52,-34,-43,-46,-113,63,56,101,-43,-198,-25,-105,-119,-24,-35,16,55,-144,24,-93,-87,38,-264,64,31,-12,-24,33,183,355173
-129,4,55,-41,-41,-53,-132,115,21,-116,-136,-143,144,-2,-76,-5,32,70,107,-118,-27,-70,-13,106,-227,-61,109,48,44,88,204,355174
-105,-10,45,-60,-35,-35,-248,-118,43,-229,-379,-138,3,2,-85,-30,23,45,58,-140,-66,-91,-19,70,-214,-127,82,2,22,53,136,355175
290,39,-61,-69,23,17,193,185,-28,-29,91,80,-54,258,-7,381,-27,-52,-224,296,955,315,-48,-224,366,1252,-195,-169,-162,-98,-656,355176
677,107,-137,-110,58,40,695,373,-161,-97,537,314,-156,218,-3,819,-108,-154,-528,727,2153,726,-142,-538,939,2921,-485,-332,-408,-309,-1238,355177
670,115,-116,-144,40,23,650,341,-252,-110,483,331,23,148,2,776,-184,-217,-615,662,2281,677,-233,-623,869,3198,-546,-405,-519,-398,-1134,355178
447,86,-71,-142,-5,-19,387,325,-104,-161,172,138,-70,15,7,565,-146,-135,-538,431,1787,461,-220,-479,517,2624,-402,-354,-439,-319,-633,355179
-57,37,51,-65,-54,-69,-132,180,92,55,-370,-54,46,-221,-48,60,-40,28,-148,-76,417,-40,-136,-47,-214,814,-12,-118,-131,-55,308,355180
-193,8,65,-27,-74,-81,-215,107,128,21,-137,-119,7,-138,-136,-98,-13,40,21,-202,-74,-180,-106,73,-365,165,76,-30,-9,29,406,355181
-135,5,55,-12,-56,-66,-143,-60,12,-5,-122,-99,-22,-387,-131,-21,56,91,101,-108,-35,-100,-5,126,-249,184,119,53,75,91,357,355182
-93,6,67,-13,-32,-43,-98,84,-17,18,-21,-142,71,-290,-47,-9,63,83,124,-81,-37,-75,29,121,-193,172,112,72,87,91,273,355183
-98,3,68,-13,-24,-25,-137,-57,103,53,-219,-145,7,-184,-32,-65,-8,7,47,-119,-86,-123,-31,40,-215,112,5,-1,16,14,220,355184
-91,-5,61,-25,-32,-10,-253,-163,91,45,-288,-80,154,-159,-58,-61,-20,-14,51,-116,-96,-121,-63,20,-214,97,-12,-16,14,-8,123,355185
63,26,4,-43,-11,-17,-128,-49,118,-92,-53,9,113,-17,-7,189,23,26,-8,127,385,120,-26,-40,65,708,-37,-22,-9,9,-116,355186
309,68,-80,-78,15,-9,133,426,-90,-148,221,117,-44,130,-13,498,-13,-38,-245,417,1188,412,-83,-258,453,1793,-218,-154,-177,-120,-537,355187
374,73,-69,-75,25,6,152,325,-127,-165,143,133,109,243,95,507,-87,-99,-378,409,1363,417,-146,-372,433,2080,-316,-275,-302,-222,-704,355188
313,45,-44,-91,1,-5,129,182,-87,-16,195,89,133,-3,58,442,-96,-67,-325,314,1238,327,-155,-321,296,1932,-277,-252,-294,-205,-526,355189
-27,-7,61,-77,-43,-22,-150,-94,71,44,18,-165,206,-171,27,77,-19,43,-46,-66,290,-26,-93,-23,-198,666,-12,-76,-83,-22,283,355190
-83,10,95,-1,-21,0,-89,5,15,58,169,-182,88,-315,20,-59,-23,32,44,-186,-47,-148,-91,35,-302,220,35,-41,-27,14,206,355191
-67,23,70,35,-26,-16,23,-170,55,94,83,-121,152,-459,-45,-105,-77,-53,-27,-218,-50,-188,-109,-72,-283,240,-70,-97,-109,-70,28,355192
-93,14,73,40,-20,-15,12,-65,90,93,-145,-51,241,-303,-120,-92,-32,7,44,-215,-115,-173,-60,5,-265,142,12,-25,-30,-9,187,355193
-68,3,74,26,-7,-1,-30,49,4,49,-54,-49,-41,-212,-88,-30,18,66,72,-164,-100,-107,-35,79,-205,141,87,28,44,58,188,355194
-49,6,62,-6,-14,4,-15,-78,31,-5,-108,-86,-148,-200,-13,-1,-3,16,-17,-129,2,-62,-58,3,-169,282,21,-35,-17,0,67,355195
120,31,2,-19,4,8,177,122,-1,-228,138,-97,-9,13,106,196,-29,-44,-80,87,482,134,-60,-93,121,937,-62,-47,-70,-41,-257,355196
421,85,-58,-29,67,48,461,146,-66,-42,443,1,-89,254,108,486,-78,-123,-327,380,1299,400,-114,-358,514,2053,-311,-197,-268,-213,-782,355197
434,92,-40,-40,50,37,411,78,-164,-109,333,17,-76,372,51,493,-96,-121,-416,374,1388,399,-158,-401,484,2203,-351,-261,-334,-260,-769,355198
231,66,-8,-39,7,-4,202,160,8,-79,-30,39,-14,329,-59,302,-96,-72,-309,168,955,186,-151,-296,182,1633,-245,-228,-294,-202,-346,355199
-97,7,49,-42,-50,-36,-138,114,109,-51,-140,-131,241,-104,-130,-33,-49,-4,-65,-147,109,-128,-91,-52,-264,486,-47,-100,-116,-62,260,355200
-154,-7,76,-30,-55,-33,-214,-116,95,27,-175,-173,328,-180,2,-107,-27,4,47,-197,-135,-179,-53,35,-319,136,29,-22,-26,3,239,355201
-121,-3,84,-30,-39,-22,-243,-273,-4,-80,-311,-143,185,48,63,-70,-14,6,75,-146,-117,-145,-21,41,-248,114,48,16,5,23,165,355202
-87,-4,50,-42,-25,-32,-248,-157,101,-95,-91,-46,125,-61,20,9,45,71,128,-57,-33,-65,44,97,-158,172,99,80,69,88,159,355203
-85,-19,38,-53,-38,-40,-187,-123,73,104,80,62,-26,-99,-18,61,84,122,132,0,13,-3,51,133,-80,183,123,110,122,123,153,355204
-63,-9,56,-43,-24,-19,-128,-62,64,-50,-97,53,250,111,-62,50,55,81,75,-14,-14,-11,29,82,-76,129,72,70,86,80,95,355205
-15,-10,30,-29,-2,-11,-29,-94,53,-36,25,54,102,22,-76,70,47,53,47,5,70,11,32,34,-28,228,29,24,47,42,23,355206
17,2,12,-4,10,-6,61,23,19,28,-122,-52,82,72,27,51,26,28,45,-6,70,7,21,21,-25,245,18,9,24,40,-8,355207
73,22,-9,6,10,1,164,-104,-22,-40,-229,-51,25,-83,-63,73,-33,-31,-54,12,203,24,-38,-68,19,431,-76,-65,-58,-35,-133,355208
35,25,-25,7,-24,-34,116,-142,-78,-82,165,-15,35,86,-177,68,-43,-34,-69,-10,205,8,-46,-95,-42,454,-72,-83,-92,-62,-18,355209
-109,9,20,0,-42,-49,-139,-251,68,-33,42,-77,163,-137,-119,-57,-36,-7,30,-158,-102,-110,-25,5,-248,60,18,-30,-18,-7,194,355210
-143,5,63,3,-30,-15,-219,-69,192,145,53,-57,114,-168,-4,-91,12,41,113,-179,-236,-138,18,88,-273,-98,87,42,62,47,159,355211
-109,-11,35,-31,-35,-33,-140,41,69,-59,-24,124,132,23,106,-17,53,65,121,-115,-138,-76,53,95,-180,60,95,66,83,74,180,355212
-58,-4,32,-10,-19,-19,-57,-268,8,-45,-55,95,141,157,87,35,65,62,131,-87,-111,-27,75,106,-145,120,107,71,103,88,156,355213
-31,2,20,5,-10,-17,-17,-111,-59,-91,43,25,80,71,10,61,53,63,109,-70,-44,-5,47,74,-101,232,81,44,90,68,21,355214
-37,11,32,3,-4,-5,-115,-43,17,-162,-16,-13,105,-119,-37,-2,-20,8,43,-124,-62,-63,-25,13,-88,233,26,-18,31,-1,-71,355215
-48,-11,34,-18,-13,2,-171,-174,17,-174,-74,14,34,-55,-57,-10,6,30,34,-109,-40,-34,-12,33,-44,244,51,0,48,28,2,355216
65,30,14,3,5,24,-19,-17,110,-178,-114,-52,-152,-65,53,81,-17,-14,-69,2,239,61,-27,-62,75,612,-34,-61,-35,-26,-163,355217
83,23,13,1,9,16,-19,129,32,32,29,-92,-43,8,26,85,-66,-54,-127,-15,257,23,-70,-117,25,632,-94,-117,-111,-80,-223,355218
56,2,33,-7,18,21,-6,209,-136,21,118,37,57,-124,24,83,-27,-7,-69,-16,193,12,-32,-52,-6,526,-43,-67,-71,-28,-176,355219
14,10,35,17,7,17,23,-152,-21,-83,116,12,111,-220,-25,25,-15,-10,-24,-60,79,-33,4,-35,-81,338,-46,-38,-56,-23,-122,355220
-10,25,30,16,1,-3,40,-159,35,9,183,-13,21,-5,-3,25,-1,8,14,-39,55,-20,17,-16,-63,281,-43,-2,-24,-4,-23,355221
-23,16,28,-9,-17,-16,-8,69,17,-30,175,9,76,137,-18,47,25,39,51,-19,59,3,25,36,-28,254,7,52,32,44,45,355222
-58,0,41,-3,-16,-16,-79,-75,170,-50,-229,-90,16,15,-34,39,30,51,64,-44,-2,-25,24,61,-39,164,36,76,50,66,132,355223
-48,7,30,6,-16,-18,-84,-329,130,-9,31,-139,237,78,-47,-31,-47,-22,-28,-102,-45,-96,-47,-37,-92,117,-51,-35,-52,-21,41,355224
-21,5,30,15,-3,-3,-15,-196,157,191,232,-92,79,150,-2,-72,-86,-66,-108,-142,-67,-115,-94,-95,-111,74,-110,-106,-94,-64,-14,355225
14,16,37,23,22,29,79,-55,40,74,-60,-34,34,103,-35,-7,-41,-23,-64,-71,12,-48,-57,-45,-25,158,-73,-59,-20,-23,-66,355226
70,8,6,-10,14,18,135,-82,-81,-39,-36,5,19,2,45,53,-48,-39,-58,-17,157,13,-52,-64,70,361,-80,-56,-19,-44,-169,355227
128,24,-3,-4,31,5,185,-31,77,184,72,82,83,85,24,110,-21,-15,-37,34,275,69,-21,-52,143,523,-49,-25,-18,-30,-82,355228
29,21,4,-17,3,-19,97,-14,108,96,99,57,-52,135,-2,41,-26,-6,-35,-28,140,9,-31,-42,37,367,-18,-33,-30,-53,-17,355229
-95,-7,43,-34,-15,-16,-106,-160,36,47,-11,36,-75,6,-34,-68,-2,0,8,-147,-126,-87,-9,24,-106,23,50,-9,4,-18,126,355230
-118,-13,56,-31,-11,-8,-230,-127,178,-25,-128,-121,173,54,-35,-87,37,51,67,-151,-231,-89,42,82,-160,-127,89,34,62,40,268,355231
-86,-14,39,-22,5,8,-256,-187,48,-262,-153,-52,132,107,-74,-70,30,48,88,-119,-205,-72,48,71,-159,-73,72,34,70,39,168,355232
-26,4,48,-1,24,44,-233,-177,-38,-187,-25,39,64,-21,-68,-36,11,24,73,-96,-119,-38,33,38,-115,25,33,25,40,25,63,355233
-33,-8,48,1,-2,22,-158,-19,24,-38,-22,-17,59,-14,-34,-13,23,24,66,-87,-77,-35,30,46,-99,70,51,25,37,35,72,355234
-50,7,39,23,-13,-19,39,48,55,110,419,60,124,-26,40,18,30,25,90,-45,-13,-11,40,72,-24,157,81,58,54,58,38,355235
-14,28,14,29,7,-19,131,-72,15,113,421,140,137,93,23,38,-2,-8,65,-21,86,6,16,18,30,295,8,40,14,12,-47,355236
-13,13,-28,17,1,-22,83,-55,-97,76,116,53,95,104,34,15,-49,-67,-30,-47,105,-16,-20,-70,17,343,-77,-43,-61,-64,-130,355237
-18,-1,-46,3,-6,-19,41,-127,-69,-130,42,-57,-197,-154,53,13,-28,-30,-14,-41,76,-12,12,-41,0,294,-39,-30,-46,-33,-40,355238
12,-1,-42,-11,6,-6,-28,-116,-43,-104,150,-3,-332,-63,-31,7,-42,-42,-27,-52,69,-23,-10,-52,-48,269,-59,-52,-74,-50,-74,355239
-8,-5,-3,-48,8,-12,-114,-129,111,-232,23,49,-191,150,-81,19,-1,15,15,-55,33,-15,14,3,-64,203,11,-9,-26,-3,-28,355240
25,-2,27,-22,30,24,-111,-132,109,-173,57,-20,43,35,-18,29,3,22,21,-47,31,-6,1,18,-54,195,49,1,-4,27,1,355241
38,9,38,13,35,33,-86,-76,67,5,74,-93,-13,-95,26,7,-16,4,-8,-73,11,-11,-22,-5,-55,174,17,-22,-17,3,41,355242
-29,-12,27,-8,-2,-15,-137,-60,-50,-219,-155,-97,-75,-90,-35,-12,16,27,2,-77,-41,-26,-1,44,-70,78,56,4,30,35,93,355243
-50,-3,21,-24,-3,-28,-145,-132,5,-309,-339,-71,-152,-117,-42,16,48,74,78,-45,-40,-8,52,99,-55,81,121,62,85,74,144,355244
-42,-5,18,-20,3,-19,-155,-72,-46,-73,-137,-19,-66,-62,-35,34,74,102,124,-34,-36,21,95,128,-35,78,141,104,109,107,150,355245
22,-14,16,-39,6,3,-106,108,-34,-184,-206,49,69,-8,-4,55,53,68,70,-7,46,56,72,66,25,204,67,69,70,60,38,355246
90,6,21,-8,38,42,76,6,46,-28,-19,-17,251,-18,5,31,-55,-35,-90,-16,142,30,-20,-97,26,371,-93,-62,-71,-76,-185,355247
89,11,26,43,41,53,210,-63,6,-33,74,-41,142,-43,-70,-26,-102,-79,-145,-71,97,-37,-90,-138,-30,343,-150,-122,-130,-123,-219,355248
39,22,30,59,39,45,136,-43,47,39,48,0,4,-3,-46,-12,-43,-32,-65,-69,28,-36,-40,-48,-44,233,-77,-50,-44,-45,-64,355249
-29,11,25,33,20,10,-10,-65,129,49,-116,-53,64,105,-46,-9,15,18,14,-74,-75,-44,8,32,-65,79,13,17,36,23,97,355250
-37,-6,11,10,-6,-15,-85,-185,46,71,-212,-46,157,-161,-38,8,57,73,65,-40,-84,-12,65,82,-42,41,75,61,90,66,191,355251
-39,-7,26,-2,1,-17,-142,64,-5,-3,-5,-46,12,-247,0,23,109,118,134,1,-76,27,116,150,2,21,149,119,147,132,295,355252
-51,-17,20,-12,-10,-1,-154,-54,77,-8,97,89,-63,-76,33,-26,49,47,69,-28,-86,-20,65,81,-28,3,85,67,83,76,126,355253
-67,-13,22,4,-15,7,-136,-269,108,-51,126,5,-200,-2,38,-82,-5,-18,41,-77,-152,-90,26,22,-95,-81,22,26,18,18,123,355254
-24,5,22,26,0,2,-3,-62,-48,124,15,70,-82,66,33,-47,7,-3,76,-54,-128,-66,49,37,-82,-73,37,42,37,44,92,355255
44,23,6,40,23,2,121,14,-35,-51,41,64,144,10,-21,-21,-60,-52,-13,-44,-12,-60,-20,-68,-48,95,-68,-33,-48,-56,-85,355256
73,27,6,38,35,3,174,138,-58,30,89,-23,53,-14,-3,17,-62,-50,-29,-12,73,-16,-14,-75,-1,222,-100,-41,-53,-70,-142,355257
66,29,-10,35,32,15,189,-20,63,92,-97,-85,91,-124,19,38,-46,-59,-13,-1,90,8,13,-47,3,263,-61,-35,-37,-41,-146,355258
0,11,-18,19,3,-10,98,-44,48,-8,-24,37,218,-161,-5,1,-37,-66,-17,-39,31,-16,-4,-33,-49,196,-50,-37,-27,-39,-62,355259
-58,-16,13,-19,-18,-26,-67,-138,-7,158,-148,-34,-10,-84,-24,-36,10,7,42,-86,-102,-35,24,32,-108,16,29,21,42,22,110,355260
-46,-9,13,-18,-5,-14,-87,-61,28,101,-193,-2,48,-8,-36,12,40,53,92,-45,-69,-2,71,91,-79,48,83,67,95,75,56,355261
-88,-13,-3,-18,-27,-32,-90,-79,77,-65,-256,-22,60,240,29,-24,23,27,92,-73,-98,-32,43,72,-118,22,65,51,75,46,76,355262
-51,3,4,5,-6,0,-29,-44,-54,68,-55,2,17,269,23,-43,-16,-3,21,-81,-65,-25,-6,11,-94,103,7,-7,23,-1,19,355263
-18,-6,6,9,6,19,42,174,-67,-86,87,15,87,124,1,-10,16,24,41,-59,-36,8,35,37,-22,142,41,16,46,18,-22,355264
-1,-1,9,30,21,20,130,160,-40,-25,28,7,-220,9,-9,6,47,52,48,-34,-33,25,59,80,14,126,75,43,81,57,104,355265
-4,0,16,42,22,29,128,54,-65,14,83,-109,29,0,-8,-60,-9,-9,1,-89,-93,-36,15,28,-39,79,19,9,26,12,53,355266
-35,-11,10,13,-6,4,48,96,-1,78,102,-99,-142,45,-29,-83,-52,-40,-12,-113,-104,-70,-6,-17,-64,73,-31,-33,-12,-28,-49,355267
-29,-3,-3,-17,-16,3,32,29,14,64,101,-45,-168,86,24,-44,-40,-31,-12,-58,5,-28,-2,-21,1,206,-42,-22,-8,-25,-73,355268
-10,-5,-2,-28,-10,10,25,-13,-114,-59,-97,-54,24,96,48,-3,8,7,24,-12,36,12,36,29,44,235,-2,29,40,37,14,355269
-32,-3,-7,-15,-3,-4,-48,129,-140,-55,-10,-24,77,123,-12,-7,17,17,52,-13,-33,-8,47,63,27,126,31,51,57,49,8,355270
-38,-20,-15,-29,-7,-23,-133,40,-183,-99,-113,28,-10,45,-68,-21,5,8,55,-20,-81,-18,33,61,-10,39,33,35,45,44,68,355271
-14,-20,2,-16,3,-8,-113,12,-40,61,-184,-41,-90,57,-12,26,46,65,76,24,-55,20,56,100,5,15,94,76,96,94,126,355272
18,-7,-17,-8,-7,-19,-14,47,-7,10,-167,-528,-115,141,0,58,22,42,16,79,58,48,35,56,55,164,62,35,47,57,8,355273
55,1,-15,-14,1,-6,1,35,45,-33,26,-317,-6,203,-7,45,-29,-18,-20,79,110,40,9,-10,54,250,4,-15,-14,4,-79,355274
61,0,-24,-22,8,-3,21,-40,32,-126,11,-70,11,348,-58,49,-35,-37,-31,70,136,29,5,-46,33,287,-49,-39,-49,-16,-73,355275
-29,-9,15,-17,1,2,-50,-45,-18,-82,-50,-32,40,87,-13,-28,-31,-7,-1,-25,-55,-56,19,-9,-105,29,-22,-31,-42,-18,75,355276
-9,-25,13,-16,-6,-5,-20,125,-5,-89,-217,61,75,-49,-31,-22,-38,-14,-5,-17,-20,-45,11,-16,-91,64,-17,-34,-54,-16,9,355277
-26,-3,6,2,-1,-18,32,154,93,80,-145,112,179,-124,-1,-6,13,34,39,-10,4,-7,55,28,-51,98,9,31,-3,6,32,355278
-42,21,17,20,-7,-18,14,-6,71,39,-14,41,159,-122,54,16,43,69,94,6,0,31,92,78,7,85,49,98,71,48,135,355279
-27,10,11,12,9,-10,-32,-68,29,59,-101,77,54,-27,108,68,67,110,117,43,40,67,92,130,67,126,109,129,111,102,107,355280
-45,1,-14,-14,-17,-27,-48,-60,80,-72,-8,14,-63,19,6,75,62,97,77,45,67,64,88,97,82,186,83,95,79,79,102,355281
-48,-4,-28,-36,-32,-27,-63,-6,152,-20,157,52,-174,71,-62,71,70,99,82,46,48,63,101,88,69,208,79,77,71,72,154,355282
-22,-1,-23,-36,-23,-10,-67,80,-24,55,12,22,11,272,-89,54,66,83,104,46,41,66,100,101,59,203,94,83,90,78,209,355283
-17,7,1,-23,2,9,-58,103,-8,-56,-153,59,-39,196,25,54,80,87,108,42,22,76,96,128,31,169,123,100,120,108,229,355284
-46,-9,-24,-33,-32,-23,-38,-92,-142,-231,-156,0,-163,23,-18,24,51,63,72,17,-15,33,54,89,-22,156,84,62,64,69,174,355285
-78,0,-19,-12,-38,-39,-16,-77,-63,-75,-139,-71,-243,26,14,-41,-2,20,42,-36,-98,-32,-2,50,-88,73,56,12,11,25,131,355286
-66,16,14,19,-4,-13,-59,-123,-24,-29,-16,-22,-164,153,-88,-41,-13,8,-8,-44,-94,-34,-31,27,-92,65,35,-19,-7,19,90,355287
-51,3,25,11,14,8,-144,-44,-182,-66,-73,86,-54,116,-45,-2,23,40,21,-4,-63,-8,17,53,-48,92,36,14,35,51,103,355288
-34,1,12,-15,14,14,-161,16,-80,-103,-421,-1,48,-32,50,21,38,45,74,25,-27,16,51,96,14,116,45,59,78,72,84,355289
6,2,-4,-18,6,2,-98,109,-89,-84,-159,37,10,97,70,85,62,77,115,90,55,78,71,130,111,197,83,106,114,112,67,355290
-14,-2,-3,-18,-8,-10,-48,79,58,-46,-93,94,-17,223,22,71,52,65,76,81,56,60,75,94,106,170,79,89,92,90,59,355291
-26,-8,15,-9,-6,18,-21,62,-5,-22,-181,-35,-5,54,-36,-23,-51,-30,-39,5,-8,-30,-22,-21,31,81,-44,-18,-31,-25,-39,355292
-39,-10,38,-1,20,37,7,-37,44,-32,-70,-52,102,-231,3,-116,-111,-93,-122,-77,-85,-117,-108,-91,-58,-14,-116,-93,-107,-94,-60,355293
-23,-23,2,-6,5,16,12,-50,133,56,27,46,123,-260,0,-125,-118,-95,-112,-89,-98,-128,-89,-94,-77,-39,-113,-92,-117,-106,30,355294
-3,-11,5,21,7,10,4,-104,82,248,81,128,13,-19,69,-50,-4,18,39,-8,-97,-53,27,44,-51,-98,27,42,13,21,210,355295
99,20,-17,24,28,10,90,172,81,127,115,114,15,54,31,48,-27,-37,-37,95,153,50,10,-36,91,222,-60,-1,-26,-25,-103,355296
115,26,-8,10,30,21,34,172,-57,-34,281,100,31,8,9,70,-49,-60,-169,82,228,54,-53,-123,99,341,-132,-90,-92,-88,-217,355297
98,21,-16,-13,14,8,-35,-15,8,-120,48,180,-27,29,-2,118,-18,-8,-128,123,305,107,-30,-87,144,478,-93,-57,-56,-60,-126,355298
73,26,-11,-13,7,2,-87,-185,-60,-61,-98,-27,20,130,34,108,-6,20,-35,116,269,112,-10,-24,127,446,-22,-8,-6,-13,-5,355299
22,5,3,-11,7,9,-94,4,-94,88,36,-54,12,135,54,5,-36,1,-4,9,43,-4,-40,-12,-16,198,12,-28,-4,-16,121,355300
-23,-4,31,1,10,23,-83,211,1,238,104,91,-7,-44,83,-49,-14,11,18,-51,-84,-62,-25,19,-106,39,31,-29,-6,-1,158,355301
-21,1,30,8,14,15,-42,168,-33,234,-129,76,82,-55,71,-18,25,57,102,-19,-74,-26,62,69,-94,62,69,33,28,45,174,355302
-29,14,-16,14,0,-12,84,26,-108,128,5,-39,25,-164,35,-17,5,33,117,-28,-73,-31,66,43,-86,83,37,50,6,19,87,355303
-37,-1,-12,28,-7,-6,153,35,-81,89,4,-91,123,-112,-30,-62,-39,-30,49,-49,-79,-66,3,-11,-85,83,-30,25,-39,-26,-16,355304
-34,-4,0,7,-10,3,134,11,-16,2,-159,-103,120,-141,-36,-58,-38,-45,39,-39,-67,-50,15,4,-53,109,-26,32,-20,-26,-23,355305
32,6,5,1,9,10,138,-45,-5,-1,-3,30,-31,-69,19,33,-38,-48,-4,42,113,14,6,-41,41,343,-53,-8,-49,-37,-163,355306
87,22,-20,-17,11,7,125,109,-36,-64,-6,173,-23,114,53,141,-20,-24,-56,152,352,119,4,-80,164,670,-79,-36,-68,-51,-168,355307
32,19,-6,-5,6,-1,-59,68,-103,4,132,12,-33,67,-35,88,0,-5,-40,97,246,86,18,-46,79,506,-47,-22,-38,-30,-109,355308
-9,-1,3,-11,-15,-18,-43,154,14,57,54,-60,-133,-105,-9,36,-13,-22,-60,44,143,38,-8,-42,16,363,-43,-43,-49,-27,-125,355309
-51,6,31,32,-18,-12,17,194,63,20,-146,-134,47,-240,26,-35,-35,-34,-38,-23,-29,-57,-23,-29,-99,133,-47,-41,-45,-37,-3,355310
-44,6,14,43,-7,-4,108,-33,64,-67,-11,-39,121,-106,-26,-59,-83,-77,-67,-53,-62,-99,-95,-70,-106,100,-85,-76,-91,-69,-91,355311
-5,12,8,31,-2,-8,86,14,91,169,106,49,148,8,-28,-55,-61,-51,-50,-48,-69,-98,-74,-41,-69,84,-48,-57,-69,-50,-82,355312
-5,14,2,29,-7,-36,37,124,-55,96,-33,214,4,-74,-43,-23,26,28,34,1,-93,-60,17,44,-38,40,42,24,33,30,65,355313
-35,7,11,26,5,-28,-18,62,-88,-3,-107,78,166,85,-36,-17,59,44,85,13,-150,-38,41,102,-39,-51,80,85,88,78,137,355314
-58,-5,32,17,6,15,-115,-38,-59,-125,-179,-89,157,-140,-78,-65,26,30,47,-26,-218,-71,-7,73,-88,-160,53,53,70,49,166,355315
-23,2,33,15,17,36,-58,-62,16,-96,-182,-65,-99,-177,-13,-31,5,8,-1,9,-112,-31,-30,33,-51,-13,18,2,26,28,58,355316
-101,-11,33,15,-14,-1,-90,68,33,83,-167,-45,-111,-120,27,-109,36,43,130,-71,-303,-104,16,132,-155,-301,119,76,91,99,210,355317
-103,-14,34,17,-16,-27,-43,185,-38,226,115,15,-15,-111,-27,-117,78,74,178,-76,-357,-96,66,171,-136,-395,135,115,152,125,227,355318
-94,-8,50,13,-2,-12,12,82,65,156,-104,-82,158,-3,32,-107,46,39,112,-76,-334,-87,33,123,-96,-366,86,78,116,86,151,355319
-39,2,21,10,1,7,21,139,-43,168,-76,-38,145,-29,19,-44,13,-19,37,-6,-147,-21,6,51,14,-111,15,27,49,41,27,355320
-28,-8,-2,5,-6,-11,-135,-145,-197,16,-286,68,-21,-105,-6,-57,-3,-32,9,-25,-120,-19,-8,12,5,-88,-35,-2,12,5,8,355321
-25,-13,0,5,8,-11,-182,-76,-18,-42,-45,83,-34,27,-53,-49,1,-13,18,-20,-106,0,-5,19,30,-88,-2,3,24,22,5,355322
1,-18,30,5,18,12,-126,20,162,174,110,197,-99,53,106,9,36,33,64,20,-45,43,31,59,74,-10,53,50,56,57,-12,355323
23,-20,30,15,18,27,-35,130,169,327,4,50,-44,24,48,-26,-20,-22,18,-16,-56,-2,-33,-5,-32,7,-6,-25,-21,-20,-27,355324
8,-4,23,46,20,33,18,104,116,125,-11,-92,197,-164,30,-131,-126,-134,-95,-131,-142,-139,-126,-123,-204,-77,-119,-140,-150,-139,-101,355325
-147,-20,62,67,1,15,-144,-45,170,230,32,-171,189,-131,-35,-294,-106,-93,1,-294,-531,-301,-105,-22,-430,-621,-19,-79,-78,-64,174,355326
-374,-70,119,57,-52,-21,-456,-102,223,190,-325,-161,87,-435,-16,-480,46,49,290,-465,-1145,-455,25,274,-626,-1516,259,147,170,153,692,355327
-416,-89,114,31,-62,-40,-516,-52,178,189,-170,-170,-19,-339,7,-442,164,151,452,-415,-1295,-390,154,449,-539,-1793,429,305,361,298,813,355328
-280,-60,75,57,-17,-14,-376,-72,153,178,157,-42,-31,-110,0,-334,122,115,362,-276,-1048,-269,132,355,-344,-1486,337,256,311,244,491,355329
1,-28,-4,36,20,13,-28,28,18,182,128,131,-180,56,-2,-105,7,-28,41,-32,-314,-40,28,11,10,-477,6,25,47,8,-58,355330
103,1,-8,26,43,48,116,223,7,106,192,174,-141,173,93,14,-14,-57,-53,69,16,54,0,-63,148,-22,-58,-14,-28,-39,-189,355331
71,13,3,29,32,53,125,-17,21,69,195,31,-41,215,93,1,-17,-54,-28,42,-9,13,8,-44,106,-27,-34,-14,-32,-38,-151,355332
32,15,-2,23,30,25,96,-78,-72,117,-25,336,87,65,72,0,5,-14,14,15,-52,4,19,-10,65,-79,-9,10,-1,-27,-113,355333
30,19,-13,13,27,8,124,11,-55,-31,-98,201,38,104,68,34,28,13,2,34,16,42,15,-7,93,16,-19,10,2,-26,-132,355334
63,3,-16,2,23,23,120,189,21,-126,112,71,-48,94,24,59,-4,-8,-64,58,118,68,-36,-48,136,174,-46,-43,-36,-50,-178,355335
-136,-48,30,-5,-15,1,-160,120,-51,110,-125,-94,-133,-74,-65,-127,61,71,99,-139,-405,-118,24,138,-131,-532,152,74,95,76,286,355336
-295,-59,67,27,-36,-1,-324,-120,-5,74,-355,-123,29,-96,-45,-307,90,126,267,-309,-910,-279,64,295,-335,-1236,302,177,237,196,575,355337
-280,-53,61,48,-31,-6,-250,-142,130,-43,-137,-102,58,22,-14,-306,68,119,244,-295,-930,-273,45,254,-308,-1297,264,151,218,178,494,355338
-152,-33,35,63,1,15,-59,-57,44,78,115,-23,-128,53,-51,-204,52,40,157,-175,-643,-164,51,149,-144,-940,156,91,138,106,103,355339
48,3,-23,57,29,23,170,143,-13,-36,352,93,-67,58,-18,-39,-31,-86,-36,-19,-117,-1,-11,-54,98,-245,-43,-38,-12,-45,-286,355340
77,6,-42,37,22,14,224,130,51,68,113,-46,-51,76,4,4,-30,-91,-83,15,39,54,-18,-85,161,-62,-88,-51,-49,-78,-152,355341
77,27,-18,32,27,21,204,10,-49,100,-276,-33,-213,-113,17,47,-7,-43,-74,44,100,94,-22,-51,196,0,-51,-20,-14,-38,-152,355342
46,15,-15,-5,20,10,-11,-223,4,-203,5,-8,-74,31,-37,36,-18,-39,-98,24,86,73,-58,-65,139,-5,-73,-49,-49,-52,-124,355343
0,-7,-10,-23,12,-3,-249,-190,-92,-15,153,-72,-161,43,-111,-34,-30,-45,-82,-50,-27,2,-75,-69,35,-156,-65,-65,-56,-52,-86,355344
35,6,6,-9,34,10,-226,-66,-39,163,22,43,174,132,5,-3,14,2,-25,-20,17,22,-17,-36,72,-109,-25,-25,-30,-10,-22,355345
-44,-14,14,12,7,-4,-150,-185,-25,37,-157,61,61,-6,32,-62,54,45,72,-89,-190,-50,45,77,-18,-402,69,51,61,51,190,355346
-105,-11,42,58,19,21,-95,-214,81,-88,-133,19,176,-146,-6,-118,130,106,262,-118,-446,-72,135,247,-104,-773,209,204,200,176,411,355347
-117,-19,25,42,7,11,-42,-81,106,42,34,-41,197,-40,50,-106,128,103,264,-115,-472,-77,127,230,-109,-817,201,191,191,166,351,355348
-80,-8,29,65,29,23,2,-13,55,233,13,113,139,-7,31,-122,74,61,179,-120,-450,-104,76,136,-122,-776,135,112,107,100,222,355349
44,10,-3,61,46,35,142,-69,196,97,89,183,-37,7,29,-63,-9,-34,11,-44,-164,-45,1,-18,-32,-366,-2,-5,-18,-13,-7,355350
60,19,-18,57,37,28,178,40,-9,-45,269,76,-21,154,80,-43,-46,-86,-71,-36,-60,-37,-52,-87,1,-171,-70,-56,-77,-76,-132,355351
9,24,-46,30,13,-12,131,90,-35,73,201,73,-168,215,99,-16,-31,-77,-73,-24,-18,-6,-51,-69,16,-74,-49,-53,-75,-63,-160,355352
-17,12,-32,11,9,-7,23,85,12,52,282,393,-273,102,49,-6,-1,-26,-23,-19,-38,4,-3,-22,20,-107,1,-2,-27,-13,-102,355353
-22,-3,-22,-9,-1,2,-22,-110,-123,-43,-2,271,-200,-228,45,30,65,46,27,14,-32,33,49,33,61,-108,35,55,27,43,-14,355354
-21,-12,-15,-33,3,21,-33,-16,-120,-104,-155,5,-113,-133,68,3,59,33,41,-9,-75,22,43,50,67,-146,47,76,40,39,-19,355355
66,1,-23,-19,20,31,52,-79,30,-98,17,-53,-105,28,3,50,41,23,1,36,48,66,17,20,146,25,28,50,17,28,-138,355356
26,11,-28,-9,12,10,51,-49,-32,12,199,-5,-55,15,-14,50,58,55,49,30,-7,64,40,62,113,-48,72,83,59,61,35,355357
-1,9,-7,5,25,26,49,-169,-141,0,56,-74,-21,130,-82,9,24,18,49,-11,-79,15,22,49,54,-165,62,52,43,48,13,355358
38,-6,-35,4,26,30,94,-6,-5,-1,-27,26,77,84,-65,-1,-34,-42,-45,-10,8,11,-40,-60,69,-53,-46,-39,-47,-26,-135,355359
45,10,-23,11,20,31,75,33,-45,-124,107,-30,10,45,3,29,-14,-33,-42,1,43,38,-19,-58,75,-34,-59,-21,-37,-32,-124,355360
28,10,-14,11,15,15,90,72,-58,-128,160,-114,5,63,-30,64,28,7,17,36,62,67,17,22,97,-49,23,48,36,27,-108,355361
7,2,-3,21,12,-6,110,-100,-101,-170,163,-37,58,18,-21,14,6,-25,-44,-5,2,23,-20,-4,48,-130,8,0,4,1,-132,355362
24,6,18,43,24,11,104,-45,-56,-78,75,47,-35,-67,35,-34,-43,-77,-124,-48,-12,-20,-77,-100,-8,-166,-88,-99,-85,-82,-179,355363
39,25,13,45,33,38,117,53,35,35,201,152,20,-92,-15,-39,-62,-79,-116,-48,15,-21,-68,-133,23,-132,-108,-115,-100,-107,-159,355364
24,12,20,23,36,46,59,62,45,119,159,57,-49,-25,-16,-52,-59,-65,-83,-46,25,-3,-79,-112,45,-124,-59,-97,-77,-71,-140,355365
113,13,8,-13,50,72,34,182,16,63,82,82,69,-27,-1,68,-20,-31,-83,63,239,106,-31,-113,159,153,-90,-79,-72,-65,-175,355366
148,5,-15,-33,35,61,48,212,-32,98,181,24,105,9,83,117,-19,-8,-136,95,334,128,-38,-127,167,288,-119,-93,-90,-83,-157,355367
100,8,-14,-20,10,25,105,173,130,68,-3,38,38,81,49,63,-66,-27,-138,21,228,53,-68,-131,89,176,-105,-96,-112,-103,-100,355368
42,13,-5,-9,-7,-7,92,74,47,-39,68,-31,107,-10,-4,4,-41,-4,-117,-42,73,-12,-62,-103,-1,5,-71,-65,-90,-78,19,355369
8,1,-15,3,-12,-13,52,35,56,9,98,-58,18,168,35,-5,-3,35,-53,-48,-11,-21,-25,-32,-14,-96,4,-23,-27,-16,-88,355370
-12,9,-4,-4,-14,-10,4,6,-28,123,118,-109,-88,32,33,15,60,86,51,-32,-63,1,40,62,-17,-144,89,26,52,57,95,355371
16,26,-7,-6,4,10,31,15,36,8,169,-66,-87,-66,18,117,129,110,110,68,80,96,135,95,97,64,123,91,116,97,144,355372
-22,4,-2,-20,-23,-18,-54,9,71,-39,49,-81,7,101,2,90,111,93,122,29,8,76,125,115,67,-18,133,111,122,101,213,355373
-42,0,0,-14,-26,-21,-91,-5,47,-77,-243,-20,-24,126,-32,47,94,75,125,7,-59,47,108,118,42,-92,129,116,125,101,162,355374
-67,8,-8,-13,-28,-33,-90,3,55,-84,-263,23,113,121,-37,9,61,51,86,-19,-76,30,89,92,21,-103,104,78,101,74,36,355375
-29,14,-22,-17,-19,-20,-48,-31,-24,31,-131,119,-5,75,54,68,53,52,32,33,62,82,60,37,89,100,67,42,59,51,28,355376
0,0,-42,-41,-22,-23,-58,-269,-45,-112,-109,103,-30,169,6,79,35,58,50,50,101,88,54,26,94,160,65,48,44,35,61,355377
38,-12,-37,-35,-7,1,-24,5,-122,-55,-145,56,44,273,61,54,-18,-16,-18,32,135,53,-9,-43,76,192,-9,-5,-43,-29,-66,355378
45,-12,-28,-26,-3,-3,57,169,-43,93,-30,65,-116,72,12,46,-11,-13,-46,24,147,41,-4,-46,61,174,-14,-21,-54,-32,-96,355379
-1,25,-8,18,-6,-22,86,-10,18,0,-6,45,-223,-45,19,25,46,62,33,9,43,19,41,38,30,-22,64,48,14,40,-33,355380
8,26,-13,23,-9,-23,125,-106,6,-173,168,66,-87,2,108,63,81,90,97,56,65,64,77,80,82,-13,124,117,79,89,35,355381
-22,5,-15,3,-23,-11,61,-188,23,-89,222,4,7,30,-5,22,81,74,71,29,9,28,70,67,46,-138,73,104,74,65,96,355382
-22,14,-23,10,-27,-25,44,-120,15,109,-11,-29,1,38,-34,-17,10,20,-13,-3,-10,-11,15,0,9,-179,4,24,13,12,-15,355383
-24,25,-28,5,-25,-43,45,-148,-48,-96,-126,79,-33,21,101,41,39,47,12,36,52,48,50,25,67,-150,36,44,52,48,-71,355384
-21,13,-5,0,-23,-34,-14,-70,0,-188,28,155,-196,119,67,95,79,96,61,74,64,95,70,76,98,-162,91,93,110,95,-34,355385
-14,2,-14,-21,-15,-21,-74,-52,-5,-65,219,121,-90,102,-43,98,85,88,60,69,59,112,80,85,97,-170,105,103,107,92,57,355386
11,4,-24,-18,-13,-26,-14,5,-95,-87,388,43,-194,12,-28,61,19,7,-9,45,80,68,29,-10,55,-112,22,15,16,16,-104,355387
51,29,-11,10,8,-3,106,37,7,-184,40,41,32,-193,39,60,-34,-39,-56,47,129,57,-22,-61,46,-12,-30,-52,-38,-20,-136,355388
60,21,-12,20,10,7,112,-82,-83,-137,-115,-89,-141,-165,19,50,-64,-76,-87,21,149,48,-46,-103,31,61,-89,-97,-83,-64,-147,355389
49,19,1,-14,9,4,65,121,-187,-128,-11,-93,-19,-41,-34,63,-18,-32,-11,23,139,64,-15,-47,50,78,-18,-49,-37,-16,-131,355390
-31,0,18,-38,-15,-18,-57,58,-139,-65,-167,-56,13,-50,-23,11,24,31,61,-27,-23,21,46,41,-26,-102,63,14,40,40,22,355391
-64,-23,-1,-50,-34,-38,-117,21,-72,-57,-266,-75,184,63,-65,24,18,24,20,-12,0,35,18,32,4,-22,42,9,35,39,13,355392
-92,-37,-7,-64,-44,-32,-244,-38,0,73,-75,-292,109,226,-25,11,32,34,27,-22,-23,28,20,54,16,-5,60,36,46,53,119,355393
-6,-5,8,-51,-14,-1,-255,1,120,249,125,-57,178,40,-41,20,18,41,13,-9,50,46,32,24,54,133,44,14,22,30,25,355394
111,-11,-16,-52,-6,-9,-85,94,93,229,-72,48,341,-59,43,104,15,25,-43,77,258,119,34,-32,149,437,-3,-11,-17,-7,-141,355395
22,-12,9,-5,-9,-9,33,198,78,151,71,28,258,-10,-18,3,19,26,-4,-24,7,12,33,23,-8,101,37,12,18,13,82,355396
97,11,-2,23,26,32,233,115,233,82,227,-52,45,61,-68,30,-66,-81,-170,25,202,47,-64,-143,69,381,-123,-115,-121,-111,-178,355397
76,12,-4,-9,12,26,184,-32,60,63,142,-72,-121,-36,-45,14,-102,-116,-191,5,208,25,-98,-170,-7,369,-149,-143,-169,-142,-228,355398
39,0,6,-18,1,16,72,-130,16,89,123,18,-163,-141,-49,3,-56,-48,-81,2,119,10,-54,-76,-88,209,-47,-60,-99,-65,-64,355399
11,-2,13,-2,9,30,-10,-220,26,25,-141,-65,-162,-138,-44,-67,-75,-63,-69,-59,-16,-67,-64,-101,-160,9,-67,-78,-115,-92,14,355400
45,21,0,21,25,40,34,27,32,2,25,-51,-118,-60,-98,-75,-103,-100,-107,-53,7,-82,-87,-137,-105,17,-105,-119,-143,-120,-125,355401
55,14,9,22,18,34,125,88,-54,-112,230,64,-1,37,-16,-23,-58,-62,-66,-11,43,-41,-39,-75,-43,21,-40,-70,-93,-54,-72,355402
32,8,11,5,0,32,146,131,-38,-72,-16,6,-106,-4,-27,-12,-52,-54,-69,-2,32,-43,-41,-76,-30,-23,-47,-66,-91,-50,-76,355403
25,7,5,-9,-1,10,131,-24,3,-75,-78,-14,-30,-35,-40,34,-6,-12,-23,46,66,-12,1,-31,52,-19,0,-4,-48,10,-28,355404
-9,-2,-26,-35,-31,-32,62,20,-61,-41,-16,101,-163,72,-53,128,95,97,87,134,113,88,122,85,175,-4,100,122,58,108,40,355405
27,17,-39,-37,-26,-33,-6,41,-82,-54,-141,90,-158,28,35,186,95,102,49,192,237,156,100,53,254,154,73,93,24,86,-6,355406
-2,5,-35,-62,-47,-51,-80,49,-57,-24,26,67,-73,369,78,155,45,78,-15,142,236,117,49,6,189,156,43,10,-38,45,-95,355407
41,-12,-32,-97,-31,-24,-117,-21,-145,-20,-19,135,-79,253,-3,155,27,55,-30,149,310,135,41,-23,185,286,9,-10,-83,17,-147,355408
73,-15,-14,-72,-15,3,-50,-43,-31,-48,-59,53,-129,111,-33,86,-25,-22,-67,83,251,71,-18,-73,105,248,-40,-59,-153,-44,-125,355409
30,5,-1,20,3,20,28,44,-28,-74,-23,-79,-46,-166,-66,-46,-75,-85,-88,-68,10,-57,-81,-83,-57,-26,-67,-103,-185,-75,-30,355410
-11,-3,-10,39,-4,8,39,9,71,-95,-109,-126,-53,-80,-94,-70,-46,-36,-47,-96,-101,-72,-56,-41,-124,-136,-25,-73,-144,-41,75,355411
2,-8,3,41,-10,1,69,-30,-16,-300,-270,11,-14,-153,-85,-85,-42,-19,-43,-98,-96,-74,-59,-35,-130,-92,-19,-63,-157,-36,22,355412
54,-1,0,19,1,25,154,-57,-45,-321,-341,-178,60,-236,-72,-67,-69,-61,-91,-69,17,-47,-73,-88,-72,101,-73,-94,-200,-79,-106,355413
37,3,13,27,5,31,139,169,-44,12,-71,-280,-65,-103,-155,-59,-68,-65,-72,-67,11,-36,-58,-75,-55,95,-80,-80,-177,-78,-30,355414
-48,18,22,47,-14,-19,44,71,-51,196,22,-48,-71,-130,-39,-53,-1,-2,8,-65,-89,-44,0,3,-68,-32,-6,-15,-111,-13,125,355415
-42,22,16,21,-15,-24,-53,16,29,131,10,73,26,-3,132,-10,6,7,25,-14,-19,-6,18,14,-18,60,-6,5,-97,15,32,355416
10,-1,24,-14,-1,-16,-69,-32,74,244,59,80,103,-1,80,55,37,18,40,60,107,52,45,28,50,189,9,28,-84,38,-68,355417
47,-9,34,-11,7,3,-18,164,72,197,-84,87,156,2,86,103,79,53,67,116,163,104,77,65,113,241,68,69,-42,85,1,355418
50,11,36,18,14,22,-18,185,9,-30,-13,-71,137,27,31,57,41,34,19,71,97,56,36,23,99,151,10,38,-86,27,83,355419
26,-3,38,12,11,37,-22,108,21,68,-145,-75,138,126,-12,30,16,17,-13,61,59,34,4,0,62,93,-21,5,-119,6,65,355420
15,-19,22,-16,-9,22,-36,-156,-14,42,-105,23,81,-2,23,17,-9,8,-55,51,29,14,-40,-29,11,55,-14,-39,-138,-13,9,355421
12,-16,8,-8,0,22,-29,-7,38,-32,105,41,135,-161,-15,-65,-90,-76,-147,-32,-18,-73,-107,-142,-78,-7,-97,-157,-247,-125,-100,355422
9,-12,15,33,10,29,39,150,-11,168,-13,5,280,-127,19,-112,-97,-80,-121,-74,-100,-117,-104,-106,-117,-125,-54,-138,-213,-94,-4,355423
47,15,31,51,23,42,160,63,-14,96,-22,-42,231,15,89,-60,-84,-65,-102,-29,-22,-74,-91,-68,-63,-24,-63,-90,-181,-68,26,355424
39,8,16,38,14,30,125,83,41,-25,86,-102,93,-120,-22,-73,-93,-79,-108,-46,-59,-82,-107,-84,-102,-70,-92,-112,-190,-87,36,355425
77,2,-25,7,1,7,135,111,61,-82,135,-101,52,-96,-17,6,-77,-61,-84,39,103,2,-87,-96,3,128,-107,-107,-180,-84,-141,355426
164,19,-50,-7,20,5,262,-64,-38,142,111,-33,-94,18,-13,155,-66,-44,-134,162,443,120,-71,-163,175,600,-154,-118,-219,-115,-320,355427
174,47,-42,8,21,2,278,-128,-23,256,121,23,-72,25,-69,197,-38,-31,-124,189,510,154,-37,-146,163,707,-122,-93,-213,-102,-237,355428
91,33,-32,-24,-18,-7,138,-102,27,91,19,32,-31,162,-28,167,2,10,-43,155,432,145,21,-64,113,603,-46,-29,-150,-57,-41,355429
-68,-27,16,-63,-44,-20,-193,-170,-169,-48,-86,31,-13,-131,26,29,53,80,73,22,48,18,48,84,-25,88,99,61,-37,54,274,355430
-73,-32,26,-42,-27,-12,-209,-91,-14,6,-161,115,-28,-174,15,-2,53,78,106,-1,-42,0,40,113,-25,-36,118,81,0,80,202,355431
-11,-9,46,2,-1,21,-40,-135,31,1,38,122,138,-82,30,-8,42,58,88,-3,-62,-5,33,79,-21,-65,69,62,-19,55,130,355432
32,-12,13,8,9,25,80,-93,29,43,128,-103,231,-37,-4,-52,-32,-31,-47,-39,-49,-46,-57,-47,-68,-11,-43,-75,-129,-57,44,355433
9,13,19,38,25,26,144,-48,0,-3,136,-34,49,98,44,-102,-84,-74,-87,-86,-93,-93,-119,-78,-134,-53,-44,-121,-174,-92,2,355434
-15,4,6,50,2,5,138,4,30,-96,135,46,-136,22,-66,-97,-98,-90,-88,-97,-84,-104,-121,-85,-146,-44,-56,-118,-187,-99,28,355435
85,18,-20,32,7,8,184,6,-81,-48,189,-16,-92,20,-93,23,-74,-82,-113,35,191,16,-80,-129,26,331,-107,-110,-207,-112,-136,355436
100,23,-10,16,16,16,153,-74,-44,-33,112,-56,35,-186,-2,76,-44,-51,-115,84,273,55,-56,-102,100,432,-104,-86,-173,-95,-116,355437
75,19,-15,-6,-7,1,73,-2,46,-36,181,-3,-88,-244,18,76,-23,-32,-100,76,263,62,-48,-88,123,435,-87,-70,-147,-77,-71,355438
20,19,9,-10,-21,-5,-21,-4,22,-5,-38,-17,-12,-151,73,46,14,0,-56,42,146,36,-29,-16,73,269,-16,-24,-91,-27,28,355439
-28,-15,-5,-22,-38,-40,-34,25,13,-56,-80,54,66,137,-1,2,10,12,-22,16,53,9,-24,24,14,147,31,-13,-60,0,59,355440
-27,-3,11,1,-19,-22,-9,83,11,88,-158,-10,72,217,-27,-26,-17,-8,-24,-16,2,-31,-44,-16,-42,81,-19,-44,-86,-21,78,355441
-23,8,17,8,-12,-1,-74,101,26,236,-248,-145,66,36,-20,-43,-36,-13,0,-36,-40,-60,-59,-23,-86,23,-15,-43,-97,-30,61,355442
0,2,7,-8,2,7,-107,-144,27,-125,-81,-63,67,-81,-105,33,39,43,82,34,6,22,24,75,0,78,74,56,3,63,88,355443
-8,-33,-6,-41,-17,-16,-125,119,26,-125,111,-47,-11,-137,-57,56,73,63,108,61,9,58,63,123,6,63,93,89,46,96,93,355444
9,-19,-9,-26,-15,-23,-66,18,80,-63,53,-74,64,-78,-27,34,49,29,58,41,9,24,40,66,-17,60,47,40,-2,41,98,355445
-15,-17,-1,5,-16,-30,-6,0,-40,56,208,-89,69,-16,-56,-52,-15,-42,-5,-34,-89,-66,-48,14,-88,-37,12,-18,-52,-14,-23,355446
1,2,11,33,7,-6,47,0,51,-105,81,-62,168,-62,-84,-44,-24,-44,6,-26,-67,-43,-49,7,-39,-1,1,-11,-40,-10,-25,355447
-6,10,14,46,7,0,47,14,28,30,226,-86,113,-145,25,-36,4,-9,14,-14,-52,-26,-21,10,-28,12,0,-8,-26,-1,13,355448
-15,-7,-6,9,-9,2,18,3,111,31,136,45,114,6,-21,-18,11,7,6,8,-8,-16,-29,-1,-3,65,-1,-19,-33,-5,-38,355449
-47,-4,13,-27,-17,-12,-30,-197,55,93,58,41,53,-44,-38,7,30,45,40,31,-9,-5,5,40,6,48,37,30,10,21,221,355450
-4,4,5,-27,-3,-5,-73,-114,24,118,-36,9,36,-56,-48,31,4,6,5,54,82,33,-16,1,64,154,-2,29,-11,-5,66,355451
-26,-10,5,-51,-7,-23,-196,-2,61,-26,86,-12,-19,2,-17,2,5,32,15,18,5,-2,-40,36,8,26,24,32,16,6,98,355452
2,-14,-13,-57,-13,-25,-121,96,-26,-56,117,215,-32,-58,6,69,29,54,-9,78,94,46,-23,20,61,138,22,-10,21,14,-21,355453
22,-22,-8,-51,1,4,-11,-72,-55,-130,115,73,31,-54,39,60,-2,0,-66,52,93,20,-27,-35,22,155,-17,-67,-32,-30,-163,355454
64,3,18,8,37,44,111,-210,38,41,103,-48,-108,-70,18,30,-35,-37,-67,23,75,-5,-40,-59,-16,129,-48,-84,-57,-58,-122,355455
31,2,7,19,15,16,71,-163,108,100,-183,-16,37,-87,-43,21,20,10,28,24,25,-4,10,17,-26,34,11,-9,12,-9,-11,355456
9,19,6,26,-4,-10,74,78,-19,11,-68,27,7,-49,-11,49,40,8,49,55,75,32,41,37,27,91,21,27,36,10,-29,355457
-4,33,25,40,1,-6,51,-50,103,-102,23,21,160,-92,-4,49,26,-3,17,43,66,17,17,11,29,102,9,-3,19,-6,-12,355458
-68,7,-3,20,-23,-31,-18,-133,53,-116,239,-27,158,-3,35,24,25,15,5,23,9,-5,1,17,11,47,26,-11,22,-1,86,355459
-62,11,0,0,-16,-21,-29,-53,9,-143,220,17,1,44,26,7,4,1,3,6,-15,-15,-6,16,4,26,31,-15,20,6,51,355460
-64,-1,13,-20,-11,-14,-57,53,48,45,-137,11,-24,90,-97,-21,14,-20,27,-10,-50,-22,-1,14,-27,-14,-2,-6,4,-2,38,355461
-28,-3,3,-27,2,-5,-57,-16,16,54,-310,-39,-129,-98,-46,24,25,-12,58,34,24,29,17,35,10,99,11,22,24,27,60,355462
45,-2,3,-27,13,5,-59,-92,-59,46,-135,61,11,99,52,74,60,26,99,78,76,74,52,72,37,182,67,70,60,54,83,355463
48,12,-3,14,11,-9,-48,-31,28,220,74,38,171,6,35,59,68,39,82,64,41,49,52,77,-19,155,71,56,50,46,173,355464
39,26,-4,22,12,-12,27,6,192,186,25,-7,135,-7,99,13,20,-9,11,36,48,11,-6,11,-57,175,16,-10,-9,12,91,355465
59,33,2,23,15,-10,114,82,91,-9,-43,70,-52,106,96,24,8,-14,-9,64,108,38,-13,-9,-10,280,-9,-27,2,8,-46,355466
155,45,-19,31,34,18,211,193,35,-45,-177,68,18,9,51,95,-5,-46,-85,141,317,112,-22,-85,113,568,-105,-69,-34,-61,-174,355467
148,19,-45,-3,11,-6,199,-11,-46,-181,-39,50,-32,33,37,106,-38,-78,-174,131,415,104,-74,-168,143,704,-181,-133,-103,-140,-278,355468
99,21,-46,-30,0,-18,105,-91,-49,-208,-50,39,-11,17,-32,129,-1,-45,-119,136,410,101,-42,-113,142,693,-117,-98,-57,-87,-257,355469
-19,-1,1,-48,-19,-19,-105,-136,94,-147,-256,-14,13,68,-49,47,66,40,-6,57,116,22,12,44,20,283,27,6,86,18,-47,355470
21,-2,8,-46,9,7,-64,-57,-19,-170,-58,-6,33,-120,-30,39,21,9,-51,60,126,22,-21,-6,51,280,-2,-22,56,-28,-97,355471
57,7,35,-29,39,54,22,130,27,-79,178,22,-72,-154,13,31,-8,-15,-33,35,90,6,-25,-24,20,200,2,-36,43,-36,-58,355472
135,41,35,36,60,62,219,228,-15,-7,75,72,-170,-202,72,111,-13,-31,-48,113,253,78,-21,-54,102,403,-43,-50,18,-36,-196,355473
47,35,3,37,6,5,165,93,13,-16,6,25,-108,-72,68,80,1,-6,-31,73,140,26,-40,-17,19,244,-12,-30,26,-16,-28,355474
-54,22,3,20,-10,-23,2,6,71,-161,197,-115,-112,15,23,10,19,18,28,-2,-43,-45,-22,36,-78,-18,32,0,57,10,131,355475
-16,-2,-13,-14,-9,-28,-39,-271,-87,-124,-1,-98,-105,-51,39,31,-14,-27,-19,14,55,-17,-43,-27,-21,110,-15,-47,18,-33,25,355476
16,7,-21,-23,-6,-24,-45,-12,-189,-189,-215,-32,-68,75,86,59,15,9,-3,58,128,34,-7,-12,33,208,1,-14,31,-14,-12,355477
35,21,-12,-5,2,0,-48,39,-127,-164,-53,44,-10,45,-3,50,27,28,-3,65,134,32,-3,-5,47,223,-8,-19,39,-13,26,355478
28,4,-8,-10,2,-5,-61,50,-103,-94,23,86,-2,-132,-41,17,9,-3,-32,39,97,9,-26,-32,10,200,-38,-64,19,-26,-64,355479
20,-3,11,-10,6,-5,-54,123,105,-141,152,-3,251,-346,45,47,42,41,35,46,63,27,24,36,-23,159,27,0,75,32,7,355480
-23,0,42,-8,6,-6,-85,76,107,-134,108,-34,288,-239,73,10,50,55,47,0,-47,-11,40,57,-93,38,43,12,89,51,84,355481
-24,6,18,-12,-10,-21,-89,130,76,44,91,-41,176,11,79,-5,22,25,23,4,-60,-18,4,32,-70,66,1,6,85,20,66,355482
-29,3,0,-17,-6,-19,-92,173,118,-124,112,-124,57,-73,44,26,49,48,67,39,-23,18,39,66,-32,105,41,49,117,51,43,355483
-22,-3,7,-16,1,6,-96,88,-41,-88,-205,-6,-102,57,28,26,28,34,43,35,-6,15,27,38,-32,135,27,11,89,18,-22,355484
4,-5,6,-14,-4,18,-66,54,-150,101,-19,58,-76,-24,29,-3,-44,-41,-35,5,24,-16,-50,-34,-46,191,-47,-56,23,-47,-160,355485
84,22,-1,3,26,33,74,105,-32,51,62,81,46,153,15,35,-75,-96,-129,54,208,20,-77,-125,46,438,-127,-106,-56,-106,-257,355486
312,54,-71,5,58,37,361,247,-146,-26,68,151,72,77,-4,240,-131,-180,-339,257,818,212,-140,-340,344,1312,-324,-227,-227,-237,-626,355487
405,73,-88,-1,56,41,436,330,-98,-127,-13,170,16,226,68,342,-155,-180,-431,349,1124,295,-172,-423,448,1761,-402,-291,-308,-293,-727,355488
371,92,-54,4,59,44,293,457,-130,-150,97,125,58,47,109,328,-145,-146,-400,312,1087,272,-173,-376,378,1726,-356,-277,-282,-264,-539,355489
33,32,38,-27,2,-2,-182,-81,125,17,-65,82,108,0,45,81,4,49,-42,48,272,26,-48,4,-57,614,13,-22,10,-3,56,355490
-21,17,37,-28,-18,-21,-150,-269,76,-13,102,60,80,-40,108,64,97,120,97,59,104,24,54,123,-79,343,103,74,138,104,160,355491
-26,5,-7,-17,-24,-40,-2,-136,-12,79,108,-71,37,41,-27,31,2,31,-21,22,106,-5,-22,1,-101,349,-17,-43,43,-8,34,355492
-52,15,-3,-3,-17,-43,-19,-57,-6,135,215,-51,-7,231,-52,41,41,82,62,34,34,-4,27,71,-57,224,54,18,123,51,153,355493
-106,13,6,-32,-45,-67,-96,-109,8,-26,90,78,-82,99,78,67,139,190,187,50,-71,28,96,204,-16,30,201,127,257,175,310,355494
-112,-16,-11,-80,-57,-75,-114,-200,-39,-248,-17,23,-46,44,17,66,134,180,174,67,-77,40,91,185,20,11,190,118,250,168,219,355495
388,70,-119,-48,39,3,530,136,-218,-227,399,114,-103,146,2,489,-28,-72,-275,521,1188,458,-45,-303,653,1736,-260,-199,-114,-139,-853,355496
1136,223,-291,-45,157,109,1377,629,-448,-122,610,332,-312,387,135,1144,-317,-422,-1053,1138,3232,1070,-331,-1071,1532,4615,-977,-722,-756,-674,-2200,355497
1225,243,-291,-85,156,109,1361,557,-507,-64,608,277,-353,291,119,1206,-427,-493,-1292,1141,3669,1088,-461,-1248,1483,5341,-1140,-877,-983,-861,-2160,355498
872,169,-155,-128,87,56,879,412,-238,3,224,279,-138,127,118,881,-355,-362,-1027,750,2898,737,-413,-957,917,4399,-858,-736,-826,-691,-1314,355499
-3,15,69,-127,-69,-73,-193,-193,87,105,-221,-94,82,-372,-42,53,-125,-54,-309,-110,617,-77,-227,-186,-263,1379,-169,-300,-264,-210,250,355500
-244,-19,126,-86,-79,-74,-449,-337,132,-2,-154,-271,191,-433,-45,-169,-7,63,63,-282,-197,-264,-73,129,-483,276,83,-50,49,39,529,355501
-234,-25,101,-86,-78,-81,-398,-149,145,-106,-147,-179,49,3,-92,-103,34,109,204,-198,-226,-186,-2,202,-366,198,147,65,165,134,505,355502
-236,-16,76,-66,-84,-89,-367,86,144,-24,-55,-94,-138,-185,-61,-47,110,154,267,-127,-203,-111,64,244,-279,155,190,125,236,182,476,355503
-213,-32,50,-30,-63,-63,-359,-107,-22,-102,-5,-104,-90,-207,-57,-75,59,81,190,-139,-235,-135,7,165,-264,117,142,41,180,114,300,355504
-151,-21,73,-7,-26,-17,-345,-100,-96,-142,-254,-110,130,-136,5,-36,59,97,186,-108,-209,-98,43,164,-211,145,156,54,200,116,236,355505
60,5,32,-1,8,15,-71,72,-90,26,-164,31,56,-1,15,144,10,9,31,92,288,81,6,-9,75,821,-4,-52,60,10,-173,355506
445,75,-61,-13,59,62,458,309,-160,70,206,140,-2,196,44,462,-146,-169,-360,423,1306,382,-149,-396,542,2229,-369,-330,-280,-264,-872,355507
494,97,-54,13,81,70,580,460,-51,-139,240,-45,-35,75,-19,433,-242,-241,-549,374,1434,332,-291,-524,466,2471,-489,-473,-426,-378,-943,355508
382,84,-33,-5,55,32,523,447,-78,71,286,-16,128,-60,25,388,-191,-166,-443,293,1243,275,-246,-411,320,2253,-391,-391,-342,-302,-633,355509
-33,38,56,10,-13,-25,133,167,109,-81,85,-194,172,-31,0,-18,-107,-61,-143,-107,224,-87,-167,-105,-242,884,-124,-218,-129,-125,141,355510
-143,16,69,35,-29,-48,-30,-70,154,-134,-135,-310,29,50,-61,-160,-63,-41,-14,-228,-209,-222,-115,9,-381,299,-18,-159,-34,-32,277,355511
-121,5,55,8,-26,-45,-159,-1,11,71,-476,-202,53,-133,-39,-135,-22,3,35,-186,-239,-204,-65,64,-299,228,47,-101,31,21,270,355512
-162,-7,68,11,-36,-56,-265,-157,140,32,-422,-133,79,9,-15,-130,21,55,134,-180,-326,-208,-15,141,-293,55,118,-5,112,80,321,355513
-118,-14,57,7,-29,-59,-305,-115,175,102,-241,-132,44,-8,-90,-85,1,22,95,-130,-223,-163,-24,90,-221,172,53,-47,83,50,198,355514
-95,-26,45,-36,-27,-43,-386,23,83,287,-278,-148,19,-13,-30,-68,-26,-9,38,-88,-173,-136,-61,52,-199,258,26,-77,54,26,88,355515
-87,-35,70,-45,-15,-10,-375,170,185,119,-152,-62,109,100,107,-76,2,31,89,-95,-212,-124,-42,95,-200,183,73,-60,93,53,101,355516
101,-5,39,-38,10,15,-29,211,138,-6,65,91,61,231,101,106,-4,19,-4,69,225,41,-44,-31,30,746,-29,-122,9,-10,-130,355517
138,26,12,-12,23,-10,178,46,-23,-47,61,12,-52,178,37,168,11,46,-23,115,359,87,-6,-53,70,924,-58,-131,-32,-26,-134,355518
60,31,11,4,15,-22,113,-131,57,-64,-58,-57,20,105,-67,112,34,82,57,59,185,45,40,26,-24,685,2,-85,30,13,82,355519
-76,-1,34,-4,-10,-27,-88,-157,33,81,-177,-106,28,-38,-138,-43,24,74,131,-78,-147,-80,25,92,-189,236,77,-53,94,40,187,355520
-87,-16,17,-5,-24,-35,-121,-353,58,87,-24,13,-14,-226,-67,-80,-1,39,91,-95,-222,-103,-27,97,-204,140,117,-99,102,48,198,355521
-72,-13,12,15,-15,-33,-74,-208,-13,-46,-126,118,-70,-276,7,-58,18,50,56,-61,-180,-80,-9,82,-177,174,103,-131,110,61,156,355522
-64,-11,15,15,-15,-34,-22,-69,-32,33,-249,-29,89,-39,44,-69,-28,-11,-8,-77,-123,-92,-50,-6,-171,257,-11,-201,26,-26,73,355523
-95,1,47,8,-8,-17,-38,-342,111,62,52,-105,-62,80,-12,-84,-7,17,52,-90,-181,-97,-17,30,-170,183,8,-162,64,-5,104,355524
-123,-1,44,-8,-17,-25,-42,-181,-8,45,-65,-107,-11,129,-129,-88,27,45,94,-92,-220,-98,43,57,-158,123,13,-120,95,15,106,355525
-165,-12,41,-19,-28,-43,-107,-146,13,-22,-207,-89,-14,-58,-73,-105,49,68,123,-112,-319,-134,68,95,-221,-26,53,-94,109,52,279,355526
-252,-26,60,-10,-37,-43,-238,-121,63,99,-231,-10,-133,-66,-15,-161,84,100,222,-179,-582,-193,86,211,-316,-406,178,-24,194,136,443,355527
-173,-36,41,-11,-6,-5,-223,-28,-10,95,-273,46,-92,5,-79,-143,34,23,153,-136,-477,-150,47,140,-203,-286,117,-84,144,83,247,355528
-133,-41,62,-1,4,21,-177,-9,-91,7,-223,-51,-101,-48,-21,-143,26,28,122,-121,-455,-136,39,133,-167,-288,118,-101,145,75,227,355529
-59,-28,34,29,4,19,13,175,-126,-60,-7,-103,-67,-120,-17,-60,42,43,144,-52,-291,-58,78,124,-73,-86,104,-94,146,71,103,355530
-72,-15,23,53,-4,1,19,157,-95,-71,-25,-265,40,-40,-78,-108,-5,-6,110,-93,-312,-116,24,69,-123,-112,36,-169,104,35,43,355531
-51,-7,18,50,-7,-10,-3,-145,-20,50,-75,-206,-63,31,-26,-64,9,-2,112,-40,-206,-71,37,51,-69,14,17,-167,119,29,20,355532
-50,14,25,56,10,11,-24,-190,75,154,-34,-106,-128,-2,57,-83,11,1,115,-47,-227,-76,50,64,-109,-11,32,-153,116,24,51,355533
3,19,18,51,25,13,42,-122,-12,-14,135,66,138,30,16,-54,-22,-24,31,-10,-89,-49,5,-5,-68,166,-33,-230,50,-33,-16,355534
19,14,27,37,31,28,24,63,-57,-56,93,94,294,-97,-6,-40,-25,-25,13,-12,-59,-43,7,-21,-59,201,-39,-247,49,-38,17,355535
-222,-26,90,25,-5,16,-274,46,68,-67,-37,-83,221,-191,-16,-271,10,48,145,-264,-684,-280,25,150,-388,-641,122,-178,169,67,452,355536
-463,-83,149,17,-40,-5,-592,-158,193,51,-229,-127,136,-257,-28,-484,82,155,362,-454,-1340,-468,82,364,-668,-1570,315,-57,360,216,847,355537
-515,-112,109,-7,-70,-45,-596,-247,143,80,-351,-63,41,101,-41,-458,136,179,448,-405,-1415,-435,144,436,-604,-1727,388,15,457,285,790,355538
-372,-71,65,10,-49,-31,-384,-268,45,74,-291,-99,-25,241,-81,-282,159,155,410,-220,-1058,-257,175,381,-328,-1296,343,25,464,274,536,355539
-19,-3,-15,26,21,25,-6,45,-6,110,45,6,-109,127,-1,18,105,77,183,97,-264,41,118,150,100,-245,121,-115,306,132,81,355540
116,0,-63,28,36,15,98,172,-140,-103,199,57,-102,167,53,102,43,40,30,170,45,108,42,26,200,170,12,-242,185,32,-142,355541
72,11,-38,25,24,13,68,-24,-71,-70,321,-53,-103,83,39,39,-12,-12,-62,103,34,45,-12,-39,113,177,-41,-338,98,-42,-204,355542
-24,4,5,17,13,11,22,-61,16,18,220,85,-44,62,-47,-23,-15,-19,-53,34,-87,-14,-19,-24,28,52,-26,-360,98,-35,-82,355543
-31,-13,0,-13,-6,5,-5,48,24,-69,114,133,-9,31,-79,-21,20,18,1,45,-110,-3,11,27,29,25,33,-329,128,19,2,355544
-23,-3,-1,19,8,11,-5,-6,-1,-117,-59,94,-142,91,-31,-61,25,13,30,11,-192,-40,30,38,-15,-90,29,-335,134,17,63,355545
-129,-18,13,34,-9,-4,-115,-70,107,-173,-192,-73,-4,-124,-54,-188,-17,0,58,-134,-487,-182,1,71,-235,-485,48,-355,148,15,232,355546
-330,-56,64,25,-38,-30,-371,-284,98,92,-53,-183,-59,-198,-34,-358,36,69,238,-310,-1015,-350,51,252,-542,-1229,232,-258,274,140,576,355547
-400,-56,97,33,-37,-43,-453,-284,216,208,-40,-97,39,28,10,-383,137,157,412,-314,-1211,-343,171,413,-549,-1558,383,-134,430,268,760,355548
-376,-52,84,37,-30,-48,-377,-228,164,125,-56,18,-101,102,21,-353,197,210,512,-258,-1200,-297,248,475,-421,-1610,434,-31,518,332,745,355549
-20,-10,-16,42,19,8,57,-81,-51,115,110,111,-34,150,63,-48,85,64,222,50,-352,-13,162,135,55,-488,109,-252,260,120,59,355550
-6,-19,-35,17,9,2,72,-52,64,194,61,140,-49,15,-29,-12,39,20,91,45,-203,-1,111,41,78,-290,15,-367,148,33,-27,355551
17,-7,-26,25,9,5,32,-148,68,117,-121,32,1,-22,-30,-16,6,-35,7,54,-112,14,69,-21,108,-137,-45,-412,94,-19,-117,355552
-39,-26,5,14,7,21,-121,-168,31,-20,-79,-55,37,-60,-79,-129,-27,-59,-6,-49,-283,-81,8,-14,-14,-352,-24,-437,80,-33,-51,355553
-3,-35,-3,8,18,29,-40,-40,-1,-100,-2,-89,51,-105,-51,-135,-74,-106,-55,-41,-206,-75,-31,-67,-1,-236,-72,-489,35,-75,-153,355554
45,6,6,45,39,54,64,28,-95,110,-52,78,65,84,-6,-90,-64,-87,-65,-11,-119,-43,-40,-70,28,-112,-71,-506,23,-74,-208,355555
-239,-35,73,36,-18,14,-345,5,32,151,-102,-67,113,70,-96,-333,30,63,174,-268,-828,-291,49,190,-359,-1086,171,-339,208,86,515,355556
-956,-185,226,19,-144,-97,-1313,-497,290,143,-374,-409,346,-218,-239,-977,233,318,822,-898,-2750,-905,247,852,-1252,-3748,775,87,740,522,1761,355557
-1074,-233,244,23,-146,-92,-1482,-524,360,148,-596,-379,243,-276,-166,-1077,323,374,1069,-955,-3251,-960,360,1068,-1296,-4547,962,269,987,710,1782,355558
-722,-163,148,55,-65,-20,-985,-320,233,148,-387,-231,-87,-31,-95,-761,274,271,874,-588,-2528,-639,340,832,-795,-3654,747,156,862,592,1040,355559
-11,-29,-64,96,50,66,113,94,-235,141,-67,126,-246,414,10,-48,112,43,277,151,-589,49,208,187,230,-1071,165,-224,378,199,-199,355560
187,17,-109,91,61,58,474,278,-144,195,-38,174,-246,513,31,142,15,-44,-22,300,127,224,97,-91,437,-81,-71,-430,102,-26,-466,355561
149,7,-72,78,53,51,341,10,-23,84,61,180,-151,264,64,58,15,-36,-50,187,49,130,84,-81,274,-174,-59,-453,57,-50,-282,355562
153,7,-49,57,53,65,275,-24,-49,60,59,137,-171,168,41,15,-24,-60,-99,147,33,70,28,-116,207,-158,-89,-496,-6,-80,-251,355563
124,14,-49,30,38,39,246,66,-38,-68,-155,94,46,116,52,-13,-63,-91,-144,105,47,40,-28,-147,167,-111,-114,-524,-55,-109,-267,355564
70,15,-40,29,29,22,197,-19,-16,45,90,19,66,92,71,-31,-57,-66,-133,75,1,11,-47,-111,121,-166,-84,-514,-38,-87,-201,355565
-146,-21,16,22,-10,2,-110,-273,-2,9,-142,-37,63,-128,28,-185,41,59,93,-104,-531,-136,57,119,-141,-898,113,-348,163,73,329,355566
-644,-119,131,31,-89,-66,-742,-513,273,-136,-453,-260,79,-366,-24,-599,258,318,637,-508,-1869,-523,296,668,-721,-2784,603,45,613,433,1333,355567
-837,-164,151,37,-116,-94,-935,-633,273,-3,-377,-226,105,-374,-59,-780,322,360,871,-655,-2499,-675,383,861,-893,-3720,778,208,820,575,1553,355568
-648,-147,100,74,-76,-46,-673,-639,277,21,-309,-213,80,-266,-118,-700,222,208,682,-531,-2237,-587,279,656,-679,-3411,587,60,671,446,970,355569
34,-37,-62,85,38,42,144,84,-152,18,47,11,-131,41,40,-83,40,-28,117,97,-537,3,136,46,205,-1146,13,-314,213,59,-285,355570
177,6,-63,66,63,67,274,279,-192,209,223,266,-69,172,56,99,12,-39,-19,235,12,157,104,-82,373,-411,-78,-373,77,-45,-355,355571
131,21,-37,65,53,76,194,226,-80,179,458,258,-2,70,91,61,31,-24,-7,215,15,132,99,-36,321,-383,-43,-347,70,-23,-214,355572
117,9,-37,36,43,63,192,249,-64,-2,237,194,-27,136,60,18,-18,-71,-93,172,50,106,37,-100,259,-286,-95,-408,-15,-74,-199,355573
138,-7,-54,14,34,64,229,295,-86,102,60,51,-144,170,-5,14,-52,-97,-125,164,142,108,23,-147,251,-131,-160,-419,-59,-127,-258,355574
185,19,-61,44,50,64,323,218,-85,26,152,75,-217,265,50,70,-41,-77,-108,209,288,163,28,-144,313,56,-158,-387,-56,-118,-317,355575
-142,-24,28,54,-3,14,-48,-287,-52,13,-123,75,-159,-96,-17,-230,44,45,146,-120,-565,-143,78,168,-152,-1096,137,-194,155,71,443,355576
-659,-111,141,79,-73,-41,-636,-465,282,13,-553,-154,38,-163,-192,-722,213,230,631,-596,-2016,-603,259,664,-838,-3096,600,126,554,397,1367,355577
-699,-140,137,89,-80,-40,-700,-373,376,94,-376,-169,32,-234,-114,-801,237,244,715,-632,-2313,-648,298,710,-881,-3550,652,177,639,472,1341,355578
-451,-96,66,100,-28,-5,-424,-35,78,-39,-101,-123,-2,-110,25,-582,166,156,525,-385,-1761,-442,221,512,-545,-2867,471,74,492,357,657,355579
47,-7,-82,57,43,43,152,204,-70,-144,155,120,-204,212,116,-65,25,-35,84,119,-343,45,111,42,186,-984,36,-175,132,66,-324,355580
171,14,-99,19,37,54,285,343,-31,-40,148,285,-211,335,61,118,-22,-87,-97,263,211,199,52,-120,380,-225,-111,-259,-28,-63,-430,355581
155,14,-88,29,36,29,288,302,-45,137,175,124,-41,148,37,114,-14,-63,-107,233,243,185,51,-107,353,-152,-98,-263,-50,-59,-320,355582
150,28,-93,52,48,37,270,79,-82,20,125,106,-38,222,47,60,-44,-83,-151,175,205,134,36,-144,280,-174,-122,-300,-92,-88,-288,355583
146,42,-75,40,45,40,270,201,-130,36,19,140,-140,270,59,102,12,-24,-112,198,253,164,91,-108,294,-114,-96,-244,-60,-45,-210,355584
94,22,-73,3,18,28,218,106,-95,41,199,138,-146,215,24,116,27,-10,-60,205,254,171,80,-58,277,-93,-52,-196,-40,-18,-122,355585
-53,7,-21,6,0,32,-59,-222,-3,9,-27,43,-200,138,-28,-46,33,31,17,38,-131,30,57,57,76,-595,48,-138,42,27,182,355586
-314,-42,58,32,-35,10,-503,-190,20,-101,-299,-45,5,-60,-60,-330,83,112,208,-252,-908,-237,94,276,-279,-1656,252,-19,228,175,532,355587
-331,-60,61,-15,-45,11,-582,-342,14,-50,-246,38,-14,-14,40,-306,141,167,345,-213,-1006,-218,162,379,-246,-1825,350,86,327,261,573,355588
-212,-70,31,-57,-20,22,-362,-272,27,9,-141,63,45,176,82,-207,151,147,308,-93,-775,-125,186,313,-110,-1562,302,61,282,214,410,355589
61,-10,-47,-27,32,42,105,90,65,236,51,210,-8,356,90,17,58,17,18,150,-90,96,113,18,199,-628,23,-127,58,33,-190,355590
75,-8,-76,-29,19,18,88,176,12,158,45,240,41,165,65,44,-19,-31,-135,160,60,111,14,-92,186,-388,-72,-221,-48,-63,-247,355591
75,-1,-68,18,28,18,53,43,-61,-27,67,317,-21,29,70,56,-11,-23,-74,171,58,122,16,-45,179,-369,-44,-188,-16,-22,-186,355592
109,-8,-78,14,11,7,168,215,-114,-102,139,225,56,-186,36,113,13,8,-17,222,168,170,43,-15,272,-213,-19,-144,9,14,-167,355593
107,7,-70,31,6,-2,257,350,-40,21,129,124,-190,-1,84,131,46,32,-5,220,178,165,71,-1,285,-198,-9,-116,15,10,-103,355594
92,15,-70,41,8,-11,289,126,-22,23,221,-18,-187,56,31,114,35,24,-40,201,159,139,67,-27,265,-210,-35,-140,-16,-11,-181,355595
116,31,-51,53,22,27,320,-33,-56,-69,36,-23,-174,17,-61,78,-31,-39,-118,174,195,126,-9,-97,241,-132,-110,-205,-94,-82,-259,355596
99,32,-24,64,36,57,261,-54,-107,6,64,49,-105,-150,-87,-27,-95,-105,-173,66,93,23,-70,-152,109,-237,-145,-265,-165,-142,-169,355597
73,32,-24,54,32,58,181,169,27,-10,112,15,-5,-121,71,-68,-98,-121,-132,3,13,-19,-63,-122,47,-325,-101,-230,-154,-136,-114,355598
85,17,-25,36,24,51,158,270,-21,81,128,51,38,-6,99,-40,-75,-99,-96,15,54,20,-32,-95,101,-268,-69,-182,-127,-90,-174,355599
116,4,-16,25,31,48,136,117,12,48,103,81,112,104,99,10,-62,-87,-119,52,167,63,-16,-113,162,-132,-103,-179,-140,-83,-198,355600
125,16,16,21,53,80,89,125,-68,8,-52,-9,-60,19,149,44,-33,-67,-86,63,199,66,25,-106,180,-101,-107,-136,-128,-77,-203,355601
142,9,9,-2,45,78,89,202,-86,11,5,-4,88,189,73,73,-31,-54,-93,76,271,90,17,-109,196,-5,-111,-110,-136,-85,-258,355602
116,11,-3,-15,19,48,57,125,5,44,139,30,4,144,77,31,-45,-47,-110,49,221,68,-10,-103,143,-61,-100,-108,-130,-85,-196,355603
76,16,-11,-12,11,38,31,161,41,74,272,53,-3,87,78,40,-29,-28,-58,31,169,68,0,-54,112,-126,-43,-58,-84,-48,-99,355604
74,10,-17,-5,10,24,26,-57,-5,57,278,33,15,-66,111,66,9,10,-9,52,173,94,16,2,121,-123,29,-19,-42,9,32,355605
108,11,-15,18,16,34,121,60,4,64,346,25,-29,21,115,85,23,26,-6,82,214,121,17,10,168,-71,48,-11,-41,18,1,355606
97,8,-14,2,17,30,166,63,11,-45,196,57,76,20,76,76,20,29,-37,80,229,114,28,-15,184,-35,12,-13,-63,-1,-9,355607
55,7,-19,16,4,10,162,44,-7,21,17,-94,-1,-84,24,25,-5,6,-54,34,132,51,8,-38,108,-143,-31,-31,-89,-31,-84,355608
10,25,-17,67,2,-1,120,76,50,80,35,-78,-21,-32,-52,-25,-38,-31,-94,-4,56,-1,-36,-60,28,-219,-75,-72,-119,-50,-74,355609
31,30,-18,66,20,2,37,-7,93,114,266,49,71,-74,-46,-32,-60,-67,-161,2,62,-4,-87,-98,48,-180,-99,-88,-140,-84,-72,355610
79,12,-13,22,27,21,67,-74,-37,48,71,33,217,45,27,42,-16,-21,-134,87,165,72,-34,-73,117,-33,-62,-39,-124,-71,-53,355611
21,5,-9,-14,-1,15,54,-11,-77,-68,85,53,21,-8,-37,31,9,20,-113,60,71,51,-2,-43,82,-166,-28,-23,-113,-48,-26,355612
19,-7,-25,-14,-3,1,42,-65,-74,-20,-107,30,-171,-56,-68,76,10,21,-109,97,112,77,-2,-39,123,-125,-32,-14,-91,-40,-36,355613
7,11,-13,5,0,20,-10,-96,-56,96,-122,7,-105,37,31,99,54,55,-16,128,84,90,43,37,136,-149,49,76,-13,23,14,355614
-42,2,-10,-14,-19,-9,-39,43,15,8,8,28,75,67,14,52,40,13,23,84,28,50,46,51,75,-225,55,98,-15,19,6,355615
104,-1,-62,-45,-8,-11,188,122,-49,-53,74,133,95,252,4,227,3,-47,-92,252,483,229,21,-88,294,376,-77,37,-114,-50,-351,355616
167,21,-105,-42,-2,-15,353,126,-154,-6,220,169,-91,246,59,268,-37,-83,-207,273,695,262,-41,-174,366,689,-150,-40,-205,-118,-495,355617
217,46,-96,1,35,5,349,61,-157,21,208,5,-72,9,20,150,-137,-154,-304,150,629,156,-135,-275,256,658,-255,-140,-318,-206,-497,355618
236,43,-56,17,63,40,256,-20,-130,-80,240,-6,60,-262,-33,101,-156,-157,-298,84,550,92,-155,-292,177,580,-294,-141,-346,-235,-346,355619
76,6,12,-10,23,39,62,39,8,-46,82,-57,121,-160,-76,14,-64,-68,-152,-20,268,9,-73,-146,41,193,-171,-24,-235,-142,-45,355620
-7,12,30,-13,-2,28,-35,-87,26,-122,-55,-31,69,-147,-25,-15,9,7,-21,-49,101,-3,11,-18,13,-45,-36,89,-126,-33,118,355621
19,30,19,13,10,21,-42,-8,42,-31,-243,25,44,-104,-46,27,49,53,38,-6,91,34,43,50,71,-62,37,170,-50,29,113,355622
27,1,-6,-1,-5,-10,-82,4,14,35,-302,-95,83,-198,-45,61,63,70,52,23,105,54,43,75,91,-67,57,212,-12,54,50,355623
27,-13,1,-13,-5,1,-147,-182,71,124,-323,-52,47,-129,8,50,25,28,9,12,106,30,6,28,52,-74,2,169,-52,14,16,355624
51,-10,11,-35,-5,2,-80,125,82,24,-3,47,103,-13,44,78,31,34,3,43,176,70,7,25,70,27,17,180,-53,17,-78,355625
151,16,-19,-20,12,2,190,286,-113,132,274,45,21,150,16,150,-3,-25,-82,116,417,148,-17,-81,227,366,-62,125,-134,-47,-322,355626
394,67,-101,-5,59,37,591,166,-183,22,239,108,65,249,0,317,-153,-194,-420,277,1063,305,-181,-423,518,1311,-376,-122,-408,-290,-786,355627
449,95,-92,-2,67,65,613,210,-276,-41,274,88,40,80,-53,382,-165,-200,-503,329,1266,358,-206,-474,563,1634,-428,-171,-467,-326,-780,355628
361,86,-75,-14,35,37,397,159,-256,53,413,28,50,18,9,346,-153,-171,-450,273,1175,324,-182,-412,435,1557,-379,-133,-436,-286,-672,355629
-10,9,-6,-44,-42,-33,-142,-60,42,-129,-29,-111,-63,-326,-103,34,-71,-44,-137,-36,314,25,-109,-90,-36,410,-72,90,-202,-91,-35,355630
-27,18,31,-23,-15,-10,-138,-84,6,-198,53,-83,-185,-126,25,7,-4,13,-7,-20,157,26,-50,30,-40,180,44,198,-79,18,116,355631
-23,10,22,-24,-15,-18,-7,-42,-12,-185,32,-183,-242,109,59,39,31,58,18,-1,137,26,-20,50,-43,125,71,212,-60,30,159,355632
-51,19,17,-5,-10,-15,22,44,3,86,94,-194,69,165,27,1,29,48,37,-42,32,-28,12,46,-108,-35,42,225,-74,8,132,355633
-15,20,16,-3,8,1,-8,49,82,-45,-180,-106,121,14,-41,22,13,30,20,-26,69,-3,17,17,-55,21,-13,218,-84,-9,40,355634
13,8,11,-22,0,12,-2,11,71,-126,-115,-93,26,-16,-74,41,16,15,1,1,123,25,-2,-8,23,88,-25,222,-65,-25,116,355635
282,45,-89,-24,32,17,371,408,-39,-98,243,142,-118,-54,57,298,-62,-97,-243,274,850,272,-74,-268,439,1093,-264,71,-239,-167,-557,355636
821,158,-189,-19,128,79,1057,636,-87,-100,562,411,-180,227,212,858,-169,-225,-679,804,2371,797,-185,-690,1165,3189,-664,-184,-576,-431,-1510,355637
918,186,-197,-57,120,74,1189,600,-227,-120,706,395,-103,381,153,1044,-191,-225,-833,935,2894,935,-226,-811,1295,3975,-768,-265,-705,-519,-1600,355638
637,147,-129,-77,50,7,832,348,-167,-78,402,208,31,142,82,783,-167,-159,-732,630,2327,677,-217,-662,864,3306,-617,-219,-634,-457,-1055,355639
-7,45,30,-69,-58,-84,-59,-151,62,-280,23,-92,138,-313,-50,78,-63,6,-240,-83,535,-1,-150,-122,-122,960,-96,66,-257,-146,189,355640
-197,4,52,-51,-61,-84,-340,-280,26,-217,-93,-110,302,-194,-134,-79,54,126,76,-202,-105,-136,-16,157,-329,55,156,290,16,91,463,355641
-164,18,40,-36,-35,-52,-187,-188,-46,-250,-172,-159,206,34,-42,3,56,103,104,-116,-38,-60,15,135,-195,123,124,304,34,85,281,355642
-157,1,38,-51,-44,-50,-122,-268,-33,-190,-308,-197,23,-41,-93,-3,11,61,74,-132,-61,-80,-21,92,-177,90,87,264,0,52,183,355643
-105,-2,49,-17,-28,-25,-79,-41,61,-145,67,-166,85,-114,-113,-30,-16,20,40,-143,-95,-105,-46,53,-171,54,41,235,-28,16,130,355644
-58,-9,48,-11,-14,-16,-81,-154,60,-101,-261,-111,100,-120,-155,-96,-83,-53,-55,-192,-139,-154,-104,-44,-216,1,-48,158,-106,-70,78,355645
160,8,-1,-26,23,2,103,109,-79,112,47,-44,181,-102,-80,93,-94,-106,-170,26,382,45,-94,-186,56,694,-185,86,-201,-142,-375,355646
597,103,-92,-26,94,53,665,447,-171,68,538,146,-2,122,0,534,-165,-240,-483,471,1619,468,-168,-539,628,2367,-510,-112,-482,-362,-1102,355647
723,148,-123,-26,100,56,870,592,-177,-16,533,186,-108,157,65,715,-209,-256,-668,612,2157,621,-219,-694,811,3170,-636,-218,-620,-448,-1200,355648
555,131,-113,-57,41,8,657,368,-188,-118,349,69,-88,-24,76,616,-197,-192,-618,480,1939,522,-237,-597,635,2950,-550,-170,-565,-401,-911,355649
-77,20,46,-70,-59,-59,-154,-196,10,-59,-247,-179,32,-243,-85,16,-66,-1,-145,-129,358,-49,-144,-76,-189,833,-45,135,-187,-101,245,355650
-189,4,89,-36,-52,-50,-271,-151,125,104,-184,-151,-29,-147,-28,-131,-17,27,37,-229,-117,-168,-78,72,-313,166,68,246,-36,24,367,355651
-169,-9,79,-39,-47,-54,-233,11,127,0,-130,-175,202,109,-62,-111,-12,17,48,-207,-120,-150,-55,55,-270,126,51,245,-27,9,287,355652
-116,-3,62,-39,-41,-38,-222,-79,89,-47,106,-177,103,87,-15,-55,9,12,44,-128,-37,-83,-25,47,-201,207,48,242,-10,13,180,355653
-114,-12,57,-56,-34,-30,-248,-273,42,1,3,-38,232,-239,-30,-67,11,20,67,-128,-70,-70,-24,64,-191,129,78,249,11,40,226,355654
-98,-16,46,-47,-25,-21,-250,-151,41,2,-136,15,185,-225,-1,-70,16,44,48,-130,-82,-69,-19,67,-175,107,67,251,18,47,274,355655
142,56,-25,-7,25,-6,66,146,50,-89,34,9,53,71,96,194,-3,10,-75,125,510,169,-20,-95,189,902,-93,185,-72,-35,-255,355656
599,126,-144,-34,62,24,608,286,-202,-106,549,142,6,257,171,654,-145,-164,-490,568,1800,564,-157,-548,795,2694,-516,-91,-436,-340,-1136,355657
610,123,-120,-60,67,31,643,160,-297,24,426,215,-5,234,78,719,-159,-163,-568,589,2029,596,-195,-588,802,3068,-558,-151,-516,-394,-1069,355658
378,95,-54,-79,21,0,396,47,-95,-94,124,108,-81,240,33,536,-94,-62,-412,383,1545,405,-149,-395,488,2476,-367,-57,-389,-275,-494,355659
-30,30,52,-60,-43,-58,-135,-170,-2,52,-165,-87,104,-12,10,112,-12,57,-63,-43,389,2,-78,-17,-135,941,0,167,-111,-51,263,355660
-142,6,83,-31,-43,-61,-288,-155,6,201,0,-183,8,-81,-30,-70,-21,27,50,-214,-111,-170,-94,78,-338,292,79,213,-14,21,320,355661
-107,0,71,-33,-29,-32,-228,-322,69,48,6,-113,102,-265,-24,-69,-40,-12,36,-185,-114,-152,-114,41,-287,300,41,194,-18,0,197,355662
-94,-13,65,-31,-24,-23,-153,-182,82,64,155,-171,218,-250,15,-52,-44,-5,8,-170,-116,-150,-119,24,-265,285,20,172,-34,-14,145,355663
-121,-21,53,-18,-29,-33,-107,-29,56,-95,-25,-188,153,-188,-21,-38,1,43,63,-153,-155,-141,-45,84,-235,198,71,220,22,30,225,355664
-105,-3,51,5,-17,-24,-102,-79,96,-14,-174,-173,11,-37,-46,-16,47,72,84,-119,-148,-106,17,102,-185,166,94,255,71,57,260,355665
-17,6,33,-17,-4,-6,-52,-12,12,-68,-84,6,171,-97,2,87,63,77,66,8,76,13,40,56,-43,447,54,256,54,56,65,355666
128,17,-4,-44,6,0,140,-5,-15,56,198,40,-84,108,49,226,26,40,-45,170,493,163,-4,-72,153,1008,-56,189,-49,-28,-193,355667
136,29,-25,-27,3,-17,203,142,-137,32,329,109,-61,131,-12,237,18,24,-93,167,587,176,-27,-107,165,1147,-86,169,-79,-63,-172,355668
31,30,4,0,2,-18,38,179,-32,-32,-83,-26,37,-17,-2,134,12,12,-30,54,332,77,-6,-29,24,814,-14,213,-37,-23,79,355669
-89,17,63,-3,-12,-19,-163,1,80,-158,-298,-157,91,12,-46,0,34,32,97,-73,-21,-44,26,100,-135,322,107,277,56,67,244,355670
-158,-4,54,-11,-41,-36,-179,-176,110,-105,-239,-107,55,-120,-77,-74,40,25,164,-140,-190,-118,41,134,-200,56,121,315,88,88,222,355671
-83,-8,31,-17,-27,-23,-88,84,3,-37,-241,-185,84,-32,-19,-39,-4,-14,85,-99,-40,-82,5,37,-142,249,22,254,18,12,70,355672
-64,0,47,-26,-13,-12,-137,60,-49,-71,-144,-93,51,230,14,-58,-20,-28,33,-110,-49,-83,-27,4,-171,241,6,229,-5,-10,69,355673
-63,5,57,-18,1,4,-216,-24,54,55,50,-44,6,161,-87,-73,-25,-23,55,-135,-106,-95,-34,27,-194,144,33,239,10,8,110,355674
-96,-22,60,-34,-13,-6,-321,-198,1,22,-257,11,-43,-66,-70,-117,-20,-19,58,-166,-201,-131,-25,39,-243,10,37,231,2,13,157,355675
-145,-38,57,-68,-23,-38,-442,-189,-30,105,-272,-86,-14,-5,-13,-146,17,26,74,-183,-288,-154,8,81,-283,-107,82,251,33,39,287,355676
-345,-72,100,-73,-62,-64,-686,-268,15,103,-338,-209,41,-90,-5,-250,125,166,343,-304,-776,-258,113,339,-483,-810,325,463,267,237,689,355677
-337,-54,113,-20,-52,-51,-599,-265,138,39,-159,-113,129,-191,-61,-201,188,215,466,-231,-820,-220,173,432,-410,-935,398,556,378,328,724,355678
-240,-47,63,10,-44,-39,-309,-123,136,12,-45,67,91,18,-49,-177,98,93,299,-183,-629,-182,95,258,-310,-674,227,425,247,180,406,355679
-26,22,25,65,19,13,90,-53,-48,148,-147,91,-110,129,-19,-32,11,-6,98,-35,-177,-52,9,46,-79,-49,48,274,77,37,-54,355680
-34,2,-6,36,6,-20,106,-93,-18,106,-113,9,-41,-128,-38,-56,-47,-41,-27,-66,-144,-88,-62,-27,-118,27,-22,180,-28,-39,-10,355681
-103,-20,-2,2,-20,-50,6,33,-12,59,-154,36,-168,-153,-63,-101,-23,-6,5,-110,-271,-131,-37,18,-187,-140,29,201,14,1,74,355682
-79,-6,19,20,3,-18,25,6,114,-10,-25,66,-72,-85,-53,-51,25,24,91,-53,-216,-68,25,69,-99,-81,71,281,83,43,100,355683
-29,-7,24,23,16,8,61,87,68,56,11,-79,-30,-127,12,-69,-16,-45,31,-43,-156,-53,-23,15,-58,23,5,236,26,-17,-20,355684
-35,2,9,22,5,9,14,130,-61,-48,-119,-77,-35,-149,27,-88,-45,-68,-15,-68,-148,-84,-30,-16,-56,25,-49,197,-12,-53,-84,355685
-145,-15,4,-6,-30,-40,-166,-93,71,-121,-252,-42,-97,-21,-43,-109,1,1,57,-104,-293,-128,15,76,-131,-167,56,266,71,20,169,355686
-213,-18,34,-4,-35,-50,-298,-54,55,24,-254,-18,-37,26,-30,-127,85,80,218,-127,-488,-147,93,231,-194,-462,205,392,213,142,307,355687
-257,-47,65,-11,-33,-48,-332,-100,150,-14,-169,48,218,158,-44,-136,141,143,349,-136,-611,-159,156,339,-221,-680,309,494,303,235,437,355688
-224,-51,75,-23,-6,-10,-237,-162,137,-131,-222,88,125,136,-69,-113,152,166,337,-102,-574,-135,160,320,-173,-665,296,490,294,222,408,355689
-62,-23,19,0,27,21,46,-108,-50,-112,-44,47,-14,172,20,-16,44,56,137,-22,-209,-43,70,104,-21,-188,72,335,121,74,117,355690
-30,3,5,32,30,25,60,-155,-32,-132,-110,36,-126,131,-12,-37,-17,-11,35,-59,-164,-68,9,3,-66,-114,-22,246,25,-13,40,355691
29,12,-18,31,39,19,-25,-194,-28,43,9,136,39,-63,11,21,-26,-29,12,-3,1,-7,-13,-20,-17,113,-25,230,-4,-15,-60,355692
5,6,-18,-18,15,-4,-137,-84,63,-159,-83,204,120,-10,17,28,-18,-5,30,-11,40,3,-6,-16,-21,153,-8,252,5,4,-104,355693
-57,-15,-7,-57,-8,-29,-194,-128,1,-121,-44,201,190,117,140,-30,-23,-19,26,-72,-74,-54,-6,-10,-97,0,-6,244,10,11,-31,355694
48,-18,-15,-73,11,1,13,-57,75,-5,-68,194,23,198,118,88,38,53,42,46,82,54,53,34,30,192,40,278,54,68,-47,355695
-72,-11,52,0,21,14,-18,-177,188,55,-84,-134,-44,22,-31,-130,60,79,181,-164,-420,-146,87,172,-264,-477,147,338,124,109,348,355696
-291,-42,103,73,8,1,-335,-231,125,-66,-387,-312,59,-322,-64,-450,14,24,273,-455,-1104,-432,43,236,-642,-1384,209,341,155,109,569,355697
-341,-65,119,85,-6,7,-404,-60,45,16,-562,-211,152,-398,-44,-468,67,68,368,-451,-1277,-447,90,317,-656,-1666,290,410,241,180,635,355698
-270,-47,94,93,-12,7,-250,-30,100,169,-236,-35,59,-178,28,-324,116,111,397,-289,-1051,-295,152,347,-408,-1424,317,476,306,231,450,355699
-31,-10,17,58,22,25,2,24,142,87,-89,58,97,16,102,-86,41,20,154,-28,-412,-62,74,117,-35,-559,101,331,154,97,-63,355700
95,5,4,40,42,44,131,164,118,74,-101,-56,120,-95,82,15,-13,-33,-11,74,-46,40,3,-27,109,-53,-40,208,38,-24,-215,355701
45,-6,14,35,28,37,69,70,30,50,49,-81,168,38,86,-49,-12,-47,12,15,-122,-8,4,-9,22,-148,-18,204,24,-21,-61,355702
58,21,4,49,36,27,105,225,-81,58,-16,106,9,100,108,-1,44,-7,67,66,-36,55,70,41,90,-28,26,253,81,22,42,355703
39,31,-14,25,27,4,127,169,-80,60,29,206,4,140,44,43,69,48,70,104,30,95,105,56,142,66,62,288,107,49,-12,355704
0,5,-12,-9,11,4,60,216,44,111,72,197,20,32,68,47,65,55,82,92,7,81,92,53,127,48,63,294,105,56,2,355705
-181,-24,53,-3,-12,7,-207,62,230,61,-117,38,-74,53,36,-180,34,53,161,-150,-534,-161,62,156,-212,-673,155,318,142,80,324,355706
-670,-105,164,20,-94,-45,-800,-312,316,90,-506,-246,-13,-218,-131,-665,146,216,585,-632,-1895,-632,170,605,-880,-2561,566,599,480,369,1205,355707
-763,-132,140,41,-103,-80,-876,-459,266,133,-647,-220,-60,-129,-107,-770,200,247,742,-695,-2284,-704,232,750,-964,-3173,691,705,623,486,1286,355708
-599,-129,85,59,-65,-56,-686,-522,194,-33,-421,-41,-71,27,-50,-624,188,200,678,-529,-1997,-558,235,635,-730,-2873,562,669,571,424,903,355709
11,-20,-41,83,50,36,69,-52,-33,-39,199,107,-185,249,59,-91,22,-25,143,6,-476,-36,88,52,51,-840,17,305,140,63,-274,355710
152,1,-73,82,59,60,276,219,-78,-14,159,-30,115,-30,23,-1,-71,-117,-76,67,-32,59,-19,-127,160,-225,-129,160,-46,-92,-389,355711
169,8,-56,64,61,68,309,311,10,135,60,177,121,-94,-7,8,-62,-121,-96,70,68,93,3,-128,203,-88,-134,166,-62,-85,-346,355712
138,8,-30,44,46,45,261,91,-61,90,28,95,-80,-119,14,-28,-72,-102,-113,14,16,53,-22,-127,147,-136,-127,142,-82,-79,-237,355713
135,31,-26,73,34,38,308,206,-115,-63,152,75,-144,-94,-12,0,-49,-70,-116,35,66,68,-37,-100,138,-75,-84,141,-70,-56,-173,355714
90,29,-10,85,40,31,231,70,-84,62,95,97,-107,-109,42,-1,-31,-51,-66,31,37,54,-30,-57,94,-109,-62,172,-47,-27,-121,355715
-282,-54,61,50,-37,-24,-268,-365,21,85,-108,28,151,-243,24,-322,31,64,212,-306,-833,-268,40,241,-382,-1308,214,352,150,153,493,355716
-730,-122,146,68,-111,-81,-737,-388,161,86,-488,-165,28,-376,-113,-740,193,250,663,-693,-2087,-649,199,688,-911,-3062,637,661,525,457,1315,355717
-822,-137,145,92,-115,-84,-809,-397,161,178,-507,-227,18,-88,-139,-884,197,226,748,-780,-2492,-758,220,748,-1009,-3645,686,717,603,498,1357,355718
-607,-112,101,87,-58,-40,-645,-258,140,192,-433,-164,52,-31,-72,-672,207,190,664,-524,-2053,-546,242,625,-680,-3121,567,691,558,444,978,355719
-36,-29,-38,56,44,37,-4,227,-20,164,24,136,26,200,71,-76,101,31,241,84,-524,19,185,150,147,-1090,111,443,236,159,-119,355720
212,-5,-80,14,67,68,234,241,-39,129,82,215,-53,294,112,110,-18,-75,-64,248,161,191,63,-137,379,-125,-129,213,-31,-87,-491,355721
210,1,-45,23,63,75,140,345,-108,248,275,217,-181,6,33,51,-21,-75,-90,183,126,138,37,-123,265,-131,-105,181,-55,-102,-324,355722
175,1,-28,32,59,69,134,437,-30,224,240,256,49,76,110,46,12,-41,-37,171,110,141,57,-68,237,-145,-50,224,-14,-45,-246,355723
142,4,-41,14,49,27,151,161,-33,240,188,268,17,77,95,45,2,-21,-36,164,129,123,29,-45,219,-127,-22,237,-15,-33,-164,355724
108,19,-54,29,34,-2,178,264,-161,117,315,216,-182,-60,17,92,45,34,25,199,148,158,65,32,253,-94,53,310,54,39,-99,355725
-119,-9,-1,53,11,-12,-42,88,1,-28,170,-19,-88,-24,37,-128,40,58,121,-47,-398,-71,56,134,-67,-803,140,370,110,81,339,355726
-494,-91,92,57,-34,-18,-550,-330,120,-59,-372,-262,25,-49,-19,-588,60,106,383,-513,-1546,-502,78,383,-656,-2343,350,503,283,203,908,355727
-561,-105,121,80,-19,2,-665,-387,134,-136,-311,-343,64,-266,-49,-739,52,90,468,-639,-1954,-643,88,439,-812,-2928,394,535,333,236,893,355728
-379,-81,92,109,21,19,-445,-199,129,53,3,-107,56,-192,-18,-571,97,106,428,-449,-1648,-473,139,393,-577,-2603,367,538,341,250,632,355729
99,-9,-25,83,85,63,157,64,-8,199,338,292,136,178,150,-32,74,46,156,91,-351,49,131,90,156,-908,80,407,148,96,-180,355730
220,12,-70,27,78,48,273,279,-7,75,198,142,103,207,181,172,49,33,35,236,184,229,102,-21,367,-191,-14,355,39,29,-387,355731
152,16,-70,9,55,15,255,83,10,0,200,127,-280,148,92,125,34,10,22,177,152,177,76,-20,291,-226,-21,353,11,18,-266,355732
124,6,-63,17,58,18,275,-129,0,42,25,105,-106,5,-15,94,28,-4,2,133,144,141,65,-17,263,-234,-27,355,4,10,-198,355733
138,21,-54,45,64,27,280,-29,-94,25,-54,6,-143,13,39,126,62,18,17,154,187,173,103,7,287,-171,-14,384,22,38,-207,355734
129,40,-53,71,61,28,236,167,-64,-63,240,-54,-115,-5,-8,86,-10,-68,-59,117,207,144,25,-82,248,-115,-86,304,-54,-41,-265,355735
-17,6,-9,39,22,11,10,105,-33,12,63,114,-17,5,21,-19,18,-23,19,9,-71,40,42,18,77,-490,19,362,21,16,71,355736
-244,-52,66,14,-9,-14,-215,-65,83,-29,-40,123,10,75,18,-191,151,136,275,-155,-699,-121,167,307,-187,-1366,293,556,264,232,594,355737
-287,-67,35,15,-25,-32,-201,-34,152,-133,-76,35,-115,-7,4,-294,107,108,242,-220,-916,-200,119,289,-249,-1652,266,529,255,213,508,355738
-160,-58,-20,10,15,-8,-102,-64,14,-7,-124,-17,25,-140,-70,-256,7,-13,83,-149,-677,-155,7,113,-129,-1308,100,396,107,72,210,355739
77,-17,-61,8,47,38,131,157,-63,-118,133,115,-42,67,-9,-37,-14,-69,-41,78,-79,47,14,-65,172,-497,-45,328,-23,-43,-227,355740
159,1,-49,9,61,62,223,352,-97,-129,259,144,-88,-18,-16,56,-26,-72,-101,158,170,121,8,-133,274,-145,-102,315,-88,-85,-343,355741
120,-5,-52,0,38,40,205,164,25,-35,183,137,2,143,41,60,-38,-59,-96,140,158,100,-8,-113,231,-143,-95,345,-94,-64,-249,355742
75,-4,-49,1,17,17,128,-70,-153,-110,252,72,-106,126,-62,43,-17,-27,-53,130,103,80,12,-64,171,-195,-44,387,-64,-33,-144,355743
65,10,-55,15,12,7,93,-36,-112,-31,-110,17,-152,118,-39,14,-47,-60,-84,100,76,47,-28,-112,107,-198,-88,350,-113,-70,-153,355744
64,9,-40,16,26,10,112,12,13,-11,120,1,-15,16,-7,2,-49,-65,-96,81,67,41,-35,-128,90,-185,-102,344,-130,-86,-124,355745
105,13,-29,22,31,21,159,197,-139,49,330,79,102,-14,88,37,-12,-51,-63,122,165,93,-6,-76,152,-73,-62,389,-88,-46,-147,355746
