148,34,-39,47,50,56,246,270,-5,-143,230,80,-9,-78,66,78,-44,-64,-71,143,155,107,8,-79,282,-268,-91,-38,-23,-30,-234,380980
117,47,-73,46,24,-7,229,-79,-41,-29,-253,99,-99,100,3,138,50,56,4,194,214,153,79,11,306,-249,15,59,57,51,-62,380981
93,41,-86,5,8,-22,227,-62,-82,102,-227,77,-55,-28,-28,150,48,74,-16,200,269,160,65,-7,319,-176,13,54,25,48,-89,380982
120,47,-41,19,31,8,248,180,-85,10,9,67,0,185,-6,111,24,50,-38,162,235,135,45,-30,263,-214,-9,28,1,30,-117,380983
165,60,-9,41,67,54,269,139,-13,126,77,31,-66,84,80,137,22,29,-57,175,263,150,44,-26,256,-178,-11,11,-6,23,-129,380984
127,39,-12,17,46,50,154,171,3,7,-24,11,92,187,65,83,-30,-28,-125,116,203,87,-11,-96,176,-222,-69,-56,-85,-40,-164,380985
-23,-1,-2,-6,-2,12,-88,142,45,-19,-206,-89,-12,83,-30,-82,-48,-25,-76,-38,-137,-65,-31,-34,-45,-651,-17,-43,-70,-22,12,380986
-81,-8,14,2,-5,12,-152,-71,41,-95,-69,11,-103,-9,15,-91,12,50,46,-57,-282,-57,37,81,-59,-853,109,39,49,78,160,380987
-58,4,16,5,-3,15,-65,98,42,-56,64,165,62,17,16,-35,55,65,102,15,-186,7,88,111,42,-725,132,92,102,108,121,380988
27,11,-26,3,4,6,36,175,-5,41,25,124,-9,-109,-43,0,-18,-37,-28,66,37,51,32,-36,122,-378,-32,-17,-14,-19,-94,380989
17,7,-29,2,10,13,22,28,-97,-112,166,-36,29,10,-12,-13,-51,-57,-106,23,39,32,-24,-64,60,-310,-50,-72,-44,-56,-125,380990
17,-2,-24,-9,16,16,22,-20,-169,-83,16,-134,150,135,-5,-30,-41,-40,-95,14,10,42,-29,-52,41,-284,-44,-59,-27,-59,-96,380991
34,12,-15,4,17,20,96,96,-71,-51,-153,-39,33,28,8,8,5,6,-35,33,24,68,27,-13,61,-234,-16,-7,10,-32,-44,380992
4,4,-12,-3,6,3,96,-137,23,-57,85,139,-65,105,31,-1,29,36,20,19,-43,50,51,34,9,-302,28,8,27,12,49,380993
-22,-16,-27,-13,3,-14,51,-114,-42,-60,114,108,92,122,20,-3,42,39,49,21,-53,45,57,52,1,-316,34,25,41,29,67,380994
23,-13,-48,-33,-8,-31,50,-111,-110,-26,34,45,55,-41,41,77,18,5,-7,101,142,101,37,-21,122,-60,-57,6,-3,-16,-80,380995
62,4,-33,-31,13,-5,7,86,-56,135,18,113,90,-98,105,142,34,31,-36,147,239,152,38,-14,207,34,-50,18,0,-11,-155,380996
170,23,-34,-14,27,19,150,222,-25,82,185,73,25,57,147,203,10,-11,-125,229,477,218,4,-93,342,340,-96,-45,-74,-45,-276,380997
180,43,-52,10,22,3,241,450,-110,60,66,92,-93,138,55,173,-34,-54,-180,208,525,198,-46,-139,311,394,-128,-112,-148,-74,-213,380998
-26,11,-35,-13,-33,-48,51,55,40,-59,-48,-7,-141,107,-42,-8,-23,-13,-52,15,78,7,-23,-22,21,-241,-15,-53,-76,-14,94,380999
-43,8,-14,-32,-36,-23,18,-259,-68,-54,49,47,-233,147,-6,-24,-17,-34,-11,17,26,-18,4,-7,9,-343,0,-31,-47,-2,25,381000
-4,6,-8,-31,-12,7,23,-240,-108,-84,123,139,-222,290,-7,66,30,21,26,89,114,46,32,48,81,-270,59,21,3,57,31,381001
6,2,-32,-27,-8,-4,44,37,-157,111,-160,123,69,245,-86,84,39,31,10,88,89,45,18,51,58,-341,56,26,5,57,-60,381002
41,-5,-45,-3,8,-2,65,48,-102,43,-158,-28,45,92,-75,25,-58,-64,-116,11,54,-42,-84,-72,-6,-379,-61,-105,-104,-53,-114,381003
80,9,-21,23,31,36,110,111,-5,65,-41,-153,-175,-62,-92,34,-65,-74,-127,25,105,-18,-69,-90,30,-322,-93,-116,-113,-75,-77,381004
250,48,-47,6,51,54,289,177,-146,63,141,4,-68,87,6,235,-60,-102,-223,248,626,204,-65,-203,330,407,-200,-150,-181,-123,-465,381005
355,53,-101,-23,37,39,359,191,-161,111,358,198,-183,222,44,382,-97,-137,-382,379,1078,334,-107,-354,525,1079,-325,-246,-314,-229,-710,381006
277,57,-82,-69,1,-9,253,269,-175,-40,95,158,-199,233,27,397,-44,-67,-310,370,1073,332,-60,-270,521,1135,-230,-174,-255,-161,-516,381007
137,28,-68,-126,-41,-51,100,72,-156,-35,37,181,-38,181,70,334,27,25,-170,300,875,280,-2,-113,411,887,-95,-50,-132,-65,-178,381008
-98,-24,-19,-114,-63,-69,-199,-293,47,69,88,-28,-110,-48,-18,48,8,21,-61,27,248,43,-23,-14,39,117,-7,-27,-62,-39,28,381009
-76,-28,26,-80,-25,-12,-244,-120,223,-6,-78,-9,5,-64,-112,-20,1,9,-38,-21,59,7,-32,2,-40,-76,-7,-22,-22,-34,48,381010
9,-16,23,-14,2,14,-105,29,101,39,-127,-33,42,-323,-121,-39,-2,15,-10,-28,-8,7,-51,25,-49,-118,8,-13,1,-21,156,381011
7,-7,-6,21,-9,-15,42,-50,42,-39,-25,24,92,-300,-99,-79,-75,-57,-65,-66,-29,-42,-101,-38,-75,-78,-40,-79,-62,-84,-5,381012
2,5,-5,11,-7,-27,60,3,-94,88,-120,45,70,-45,-51,-38,-42,-47,-72,-28,31,-17,-52,-53,-40,26,-68,-73,-77,-83,22,381013
-34,-31,-16,-37,-26,-41,0,-86,45,122,-48,-4,-51,36,27,33,36,30,-12,32,83,47,21,8,11,79,-11,6,6,-10,109,381014
87,-5,-40,-25,-2,-18,114,-68,-48,56,179,11,-111,10,-21,105,-57,-69,-207,117,383,100,-83,-181,156,502,-198,-135,-138,-153,-301,381015
245,16,-85,-46,14,9,240,50,-122,-10,260,62,-176,-117,-50,201,-170,-182,-424,213,770,166,-211,-363,329,1039,-383,-269,-302,-283,-602,381016
290,27,-89,-76,11,6,260,121,-158,7,421,98,-113,-69,22,342,-91,-94,-353,307,949,275,-163,-275,423,1247,-282,-206,-227,-176,-515,381017
142,25,-40,-70,-14,-23,-11,-119,-136,-13,110,133,85,32,13,305,22,53,-134,245,668,230,-56,-51,297,824,-49,-59,-63,1,-67,381018
-66,-21,-11,-89,-59,-65,-407,-38,-21,23,235,-54,50,82,-9,76,20,44,-14,12,127,13,-58,39,-1,67,15,-19,-8,25,204,381019
-74,-52,12,-121,-57,-35,-478,-266,53,4,-13,-52,-20,168,-8,58,36,61,38,-14,27,-6,-24,77,-30,-115,51,35,31,54,199,381020
2,-30,23,-76,-30,10,-203,-178,-84,-22,-185,-103,99,113,-15,111,63,64,51,42,141,53,61,60,40,-36,42,49,23,48,93,381021
34,7,28,29,-8,16,79,78,47,-154,-260,-150,55,-18,58,50,25,4,29,13,103,8,52,14,-6,-109,9,8,-18,0,31,381022
17,8,-3,30,-15,-11,137,-129,140,-180,-205,-130,105,-225,-50,-13,-29,-53,-3,-41,66,-33,-7,-27,-48,-162,-5,-39,-66,-37,15,381023
53,13,-22,18,-11,-19,141,-147,82,-43,132,-77,-16,-127,-31,-20,-73,-94,-79,-37,144,-42,-70,-99,-44,-57,-78,-105,-133,-90,-46,381024
63,-3,-1,20,4,-1,94,153,-59,79,317,-15,23,-195,-94,-29,-103,-118,-120,-48,150,-69,-97,-129,-69,-16,-125,-123,-164,-122,-132,381025
88,2,19,15,19,35,102,75,10,224,239,59,-29,-139,-32,3,-82,-114,-117,-11,213,-25,-62,-145,-8,75,-147,-104,-150,-129,-133,381026
101,19,11,23,14,26,165,63,-20,175,-52,-2,-61,-163,-8,17,-73,-99,-147,3,243,2,-65,-147,34,143,-150,-124,-139,-130,-130,381027
85,34,5,36,7,11,193,194,34,-18,185,18,11,-271,23,47,-43,-50,-151,15,241,19,-72,-107,47,178,-86,-107,-100,-76,-79,381028
12,21,-12,9,-26,-27,114,178,77,-117,227,31,-40,-159,27,37,17,16,-27,11,124,11,-17,-7,24,54,-7,-11,-21,-7,-1,381029
-59,-2,-37,-35,-70,-71,21,30,3,-268,106,-4,-177,129,18,42,37,49,9,34,98,39,11,38,68,55,12,30,31,19,60,381030
-137,-29,3,-67,-65,-58,-159,-193,119,-283,-161,8,-29,78,31,-15,30,39,5,-22,-46,-14,-13,62,-11,-96,38,35,48,17,120,381031
-59,-52,10,-100,-29,-11,-200,-169,63,-146,-83,89,79,37,37,6,11,11,-29,13,20,-10,-45,29,21,54,33,11,32,3,46,381032
-20,-48,-6,-58,-20,-10,-87,-29,-97,-93,19,51,-73,-194,-51,12,8,-4,-26,17,44,-6,-23,-7,15,107,-35,-13,-7,-47,41,381033
-4,-17,-6,-8,-14,-7,11,58,4,-6,-118,4,-239,-97,-94,-6,-8,-28,-36,5,30,-20,-29,-41,-27,82,-57,-47,-48,-95,-3,381034
207,19,-43,-1,26,15,227,192,-69,10,105,57,-144,36,-54,195,-37,-72,-172,221,541,163,-49,-167,242,779,-123,-128,-139,-142,-388,381035
427,56,-90,-17,52,47,427,342,-137,-34,269,161,-237,64,26,424,-62,-95,-300,426,1156,358,-56,-307,544,1628,-240,-187,-255,-202,-636,381036
414,69,-90,-29,38,21,420,336,-178,-116,307,157,-94,9,55,434,-77,-113,-326,402,1249,354,-64,-346,515,1744,-309,-215,-315,-250,-719,381037
231,35,-39,-53,7,2,255,402,-39,81,283,64,-135,22,-23,256,-107,-114,-287,189,868,163,-110,-284,229,1232,-261,-202,-306,-239,-403,381038
-47,-7,22,-44,-44,-22,8,40,-64,9,-123,-48,-69,-97,-3,6,-25,0,-50,-76,150,-44,-61,-25,-148,226,-2,-39,-94,-52,162,381039
-56,8,20,9,-34,-16,63,-38,31,138,-34,-6,97,-318,-83,-41,-23,7,-12,-109,11,-59,-62,-10,-180,0,10,-29,-57,-38,103,381040
-11,1,7,-17,-16,-6,37,85,70,93,-100,-116,174,-134,-66,-50,-100,-82,-107,-102,77,-64,-140,-116,-132,84,-91,-133,-120,-101,-69,381041
-8,-10,24,-54,-9,2,-120,-44,-62,24,74,-104,-63,103,-33,0,-55,-33,-64,-55,103,-21,-99,-75,-84,74,-57,-86,-67,-54,15,381042
-32,-39,11,-95,-30,-19,-271,-179,-112,46,-45,-7,-69,45,37,36,-15,-1,-8,-31,103,-1,-40,-26,-57,52,-40,-38,-32,-15,67,381043
-1,-30,-5,-55,-15,-17,-343,-177,72,-126,-175,25,107,-42,-6,24,-41,-31,-65,-43,93,1,-66,-67,-51,54,-72,-92,-72,-53,1,381044
140,-6,-37,-38,9,-18,-47,41,-10,-68,196,46,-47,120,45,173,-53,-66,-148,117,473,124,-75,-154,174,555,-140,-119,-132,-101,-294,381045
376,41,-86,-34,28,7,454,93,-12,20,414,167,-115,178,59,411,-92,-119,-315,355,1138,323,-119,-338,516,1505,-312,-214,-275,-210,-637,381046
424,70,-104,-17,27,4,627,76,44,99,229,132,9,78,109,405,-188,-216,-498,338,1317,308,-242,-507,511,1847,-472,-362,-451,-361,-845,381047
342,54,-64,-11,11,-9,455,-80,-51,-66,112,-58,15,-205,52,283,-209,-199,-500,191,1059,185,-272,-489,289,1581,-449,-386,-473,-384,-628,381048
-11,5,55,-10,-31,-26,6,-4,38,-28,-130,-98,208,-63,46,-16,-41,13,-94,-120,108,-83,-103,-70,-195,304,-46,-99,-149,-100,281,381049
-50,5,54,5,-29,-27,-5,56,11,81,-92,-206,219,-107,22,-25,11,60,-9,-83,-5,-68,-31,-3,-170,167,17,-18,-54,-31,232,381050
-101,-8,56,10,-34,-42,-85,-61,30,74,-19,-246,49,-93,-60,-56,34,67,51,-105,-116,-91,6,41,-183,31,67,21,-5,-8,246,381051
-108,-17,51,-4,-25,-37,-134,-198,91,81,-28,-51,-164,35,-79,-85,11,31,43,-118,-156,-119,-6,21,-208,3,73,1,-5,-14,187,381052
-87,-21,11,-4,-30,-45,-122,10,58,126,-56,-121,-192,-60,-79,-50,6,26,27,-93,-106,-106,-11,9,-194,62,46,2,-1,-18,149,381053
-17,3,17,9,-12,-11,-40,63,-46,-86,-13,-38,-150,-123,-45,61,71,85,77,21,4,16,53,75,-49,182,99,64,84,47,144,381054
350,69,-70,4,49,29,425,281,-75,30,403,95,-127,128,85,418,6,-29,-208,393,977,347,22,-236,515,1497,-201,-124,-121,-132,-525,381055
640,105,-162,-51,60,17,785,323,-190,-157,490,254,-249,479,131,710,-145,-208,-518,664,1974,578,-114,-593,930,2925,-535,-349,-458,-394,-1161,381056
586,102,-152,-83,36,-8,669,356,-157,-168,331,306,-51,286,85,691,-188,-222,-596,595,2044,525,-193,-624,815,3077,-548,-404,-549,-443,-1100,381057
364,75,-82,-83,-2,-20,353,296,-85,-201,337,102,-2,28,70,483,-129,-126,-466,355,1521,331,-169,-455,468,2383,-395,-324,-443,-351,-576,381058
-2,26,45,-68,-32,-33,-83,-184,28,-176,112,-83,104,-161,-6,149,39,89,-63,12,477,53,-22,-18,-44,934,21,-54,-98,-41,228,381059
-85,-2,76,-38,-29,-19,-110,-162,134,22,-79,-105,207,-88,-47,27,40,100,42,-85,130,-33,-14,72,-189,427,89,17,-1,33,260,381060
-38,-1,72,-11,-10,7,-88,43,111,-96,105,-121,-10,-275,-99,-48,-66,-21,-25,-136,67,-105,-105,-22,-224,348,-34,-53,-74,-49,76,381061
-27,-12,60,-32,-13,8,-183,-196,87,-99,149,-210,-21,-293,-116,-58,-77,-48,-22,-148,30,-108,-118,-33,-209,284,-34,-58,-70,-44,21,381062
-93,-22,59,-43,-34,-16,-171,-31,52,8,193,-69,-35,-51,-35,11,31,53,100,-77,-18,-37,-2,89,-143,170,92,50,71,64,209,381063
-139,-30,31,-50,-71,-65,-74,-3,108,-64,-11,-10,47,77,40,39,91,118,184,-42,-31,0,45,161,-87,119,165,145,148,125,165,381064
259,60,-70,-27,8,-20,437,163,-157,56,77,147,-112,110,151,392,-24,-41,-140,326,971,309,-35,-210,471,1490,-193,-77,-133,-110,-676,381065
792,155,-173,-50,109,53,982,563,-326,-96,439,315,-62,167,166,859,-203,-256,-692,773,2411,706,-217,-749,1125,3556,-693,-456,-577,-483,-1477,381066
946,157,-197,-113,117,77,1033,563,-326,-170,523,358,-87,251,78,1002,-283,-328,-925,868,2957,793,-329,-939,1248,4420,-870,-612,-779,-640,-1609,381067
700,127,-109,-116,72,57,697,268,-138,-141,322,108,-237,191,-61,788,-217,-211,-756,585,2406,569,-294,-711,838,3755,-649,-493,-663,-523,-935,381068
-100,5,86,-72,-46,-44,-236,-248,54,-83,-391,-371,-25,-163,-209,19,-16,83,-82,-202,268,-102,-133,36,-280,870,55,-60,-99,-51,518,381069
-217,-24,90,-45,-75,-77,-312,-123,31,-182,-352,-183,-41,-205,-191,-106,15,89,65,-255,-159,-186,-71,108,-372,295,114,0,29,31,498,381070
-221,-18,97,-50,-68,-66,-305,-198,78,-161,-163,37,69,-131,-30,-81,44,100,95,-213,-179,-165,-21,104,-327,240,110,24,47,42,453,381071
-171,-20,86,-44,-46,-31,-302,-193,67,-12,-246,-134,46,-137,-44,-48,47,86,77,-167,-139,-127,-13,77,-244,276,83,32,45,26,334,381072
-156,-18,82,-27,-43,-19,-315,-85,87,-120,-213,-285,201,-182,-71,-91,4,42,36,-190,-201,-147,-50,38,-251,198,43,11,25,-7,213,381073
-63,10,71,-10,-16,-2,-170,-52,116,-56,-176,-130,127,-75,-45,-35,-27,-11,2,-122,-29,-82,-64,-3,-151,413,7,-12,-12,-27,55,381074
476,108,-70,-10,72,74,523,303,-109,-78,282,283,68,148,107,494,-125,-161,-341,426,1370,386,-132,-411,616,2335,-373,-239,-300,-252,-952,381075
1167,218,-256,-46,153,113,1389,874,-411,-119,786,495,-103,504,239,1198,-340,-434,-1055,1085,3427,969,-352,-1136,1554,5260,-1036,-715,-882,-739,-2178,381076
1188,241,-244,-82,134,87,1387,814,-488,-71,608,437,-59,384,198,1266,-384,-437,-1203,1070,3757,984,-435,-1225,1512,5833,-1105,-817,-1032,-846,-2028,381077
740,168,-111,-113,55,32,838,138,-172,-153,297,29,76,-8,11,836,-311,-282,-899,594,2711,576,-376,-856,807,4514,-757,-633,-813,-648,-1230,381078
-152,39,127,-63,-64,-55,-216,-437,133,-112,-320,-370,136,-400,-133,-32,-50,56,-82,-272,293,-179,-151,6,-450,1190,39,-102,-173,-89,472,381079
-301,12,133,-14,-67,-92,-376,-196,39,-22,-572,-290,165,-421,-95,-157,66,150,185,-339,-271,-250,-30,225,-564,347,224,75,65,121,673,381080
-311,-14,98,-20,-82,-108,-421,-327,152,-8,-398,-265,209,-373,-68,-139,65,124,200,-288,-313,-213,-28,208,-478,252,204,88,94,127,582,381081
-279,-27,90,-41,-73,-78,-455,-430,195,81,-231,-154,155,-116,-41,-111,54,110,188,-249,-285,-179,-20,181,-394,255,186,94,91,130,483,381082
-198,-14,110,-54,-44,-38,-331,-141,175,-57,95,-77,98,-128,-24,-65,79,147,190,-177,-202,-124,15,172,-304,340,173,110,102,133,378,381083
-107,-3,111,-55,-23,-10,-190,23,81,65,43,96,179,-215,-27,-25,93,128,177,-123,-129,-86,23,154,-234,416,150,120,109,114,282,381084
146,31,34,-45,20,25,122,5,97,-97,112,116,80,-20,21,226,29,23,-9,118,523,134,-21,-68,128,1295,-54,-3,-37,-12,-217,381085
348,52,-47,-76,35,23,295,265,-129,-158,157,79,21,44,82,433,-71,-70,-240,293,1136,293,-105,-294,394,2177,-266,-162,-221,-167,-669,381086
506,92,-72,-57,70,65,443,234,-169,-175,542,108,-10,87,108,570,-144,-150,-433,418,1590,404,-183,-474,574,2840,-428,-295,-386,-320,-930,381087
444,83,-56,-56,52,56,372,209,-160,-30,179,121,-165,207,7,495,-187,-183,-493,322,1515,324,-224,-497,450,2804,-470,-357,-453,-377,-750,381088
-36,10,77,-59,-27,-8,-201,-49,9,-17,-263,-78,156,-61,-66,54,-32,42,-72,-130,271,-62,-87,-32,-239,1102,-24,-75,-113,-72,293,381089
-179,-8,102,-35,-49,-35,-332,-122,-18,88,-223,-79,251,-213,-50,-88,25,99,119,-255,-209,-181,-25,140,-417,436,149,29,30,59,462,381090
-106,9,85,-18,-28,-15,-222,-102,-36,72,-371,-124,69,-51,9,-17,8,69,79,-169,-53,-125,-22,58,-275,636,100,-4,1,40,238,381091
-160,-8,70,-26,-43,-40,-256,-66,68,-9,-486,-202,-33,-47,-15,-42,21,70,87,-193,-125,-132,-16,61,-279,508,70,1,12,34,302,381092
-171,12,84,-9,-29,-30,-245,-77,161,-22,-264,-106,140,48,-21,-60,30,64,99,-187,-178,-121,-16,83,-261,428,110,21,37,49,241,381093
-140,15,70,-22,-29,-30,-221,-183,-59,-117,-203,-30,264,49,-38,-57,3,26,101,-173,-149,-119,-31,71,-230,465,91,22,23,43,118,381094
175,59,-5,-36,27,10,166,102,9,-47,-42,95,-2,133,12,286,-28,-46,-55,172,680,190,-32,-120,266,1579,-100,-63,-87,-44,-412,381095
601,132,-90,-52,90,61,632,402,-49,-18,203,146,-31,288,108,707,-114,-148,-415,571,1856,541,-109,-496,816,3239,-428,-283,-388,-289,-1031,381096
668,145,-101,-63,95,60,692,345,-174,-220,143,144,-91,341,104,744,-160,-176,-538,601,2133,555,-163,-609,827,3696,-532,-369,-526,-400,-1095,381097
430,96,-51,-72,22,16,465,230,-176,-299,121,-49,-42,75,31,493,-159,-146,-498,315,1602,322,-185,-505,423,3035,-455,-352,-477,-377,-585,381098
-192,12,103,-47,-66,-54,-217,-133,78,-114,-285,-252,207,-137,-154,-74,6,81,0,-255,-28,-172,-51,63,-422,816,87,-33,-36,-15,501,381099
-274,5,103,-34,-65,-81,-291,-139,-3,-74,-455,-105,48,-195,-78,-158,23,88,154,-291,-344,-236,-32,168,-490,352,193,44,87,90,499,381100
-225,14,95,-40,-46,-74,-333,-82,77,-37,-92,-36,84,17,-41,-119,65,109,192,-221,-321,-177,-1,188,-384,360,214,101,135,134,470,381101
-173,-2,67,-70,-44,-46,-397,-155,128,-12,9,-7,45,11,-80,-108,34,74,125,-211,-289,-166,-34,146,-319,373,167,77,124,103,381,381102
-129,5,78,-27,-8,-11,-381,-29,48,66,-6,-79,128,-15,-115,-75,41,78,105,-178,-258,-140,-3,133,-246,388,142,75,130,94,328,381103
-146,-5,73,-39,-27,-20,-286,58,-14,33,-163,-101,176,214,-66,3,113,128,184,-102,-176,-63,102,176,-155,470,183,147,184,141,334,381104
-32,28,44,-20,-8,-13,-70,-39,8,-37,-92,-6,71,92,2,111,94,95,102,24,121,49,90,73,14,879,78,96,108,65,129,381105
119,47,-12,-10,20,-3,68,-34,-133,-83,-54,-57,118,-129,-31,183,-38,-41,-110,82,462,87,-50,-136,131,1376,-120,-64,-93,-104,-290,381106
379,86,-72,-50,48,27,318,261,-187,-155,42,59,78,148,-36,449,-98,-132,-328,344,1230,313,-110,-359,499,2435,-350,-202,-280,-239,-740,381107
261,66,-36,-101,14,3,177,229,-160,-118,-82,59,38,109,11,383,-69,-71,-225,258,1091,261,-79,-266,351,2278,-259,-129,-243,-188,-323,381108
-126,-2,74,-74,-47,-38,-274,-279,-61,-126,-353,-75,-60,-128,-104,-19,6,48,74,-137,65,-75,-25,53,-220,881,48,54,-10,7,396,381109
-138,23,98,-6,-12,-8,-286,-203,45,109,-250,-83,23,-205,-26,-74,57,89,174,-178,-180,-120,6,156,-284,490,164,121,109,112,375,381110
-82,41,58,17,5,-8,-153,-77,26,53,140,-51,-54,-95,-18,-31,34,53,109,-129,-87,-79,-3,100,-191,601,115,70,83,78,264,381111
-166,29,38,36,-36,-62,-153,122,-116,-58,6,-167,40,-117,-23,-66,30,63,119,-168,-197,-103,15,108,-233,420,120,58,84,70,289,381112
-181,45,44,42,-33,-79,-164,-240,-3,-83,-200,-132,133,-108,37,-31,74,113,157,-118,-196,-68,64,159,-188,371,193,97,141,116,244,381113
-178,24,29,15,-46,-82,-215,-145,3,-15,-91,-55,103,-60,27,4,75,128,160,-104,-176,-60,63,158,-158,395,185,105,154,128,187,381114
-151,-4,46,-34,-49,-52,-241,149,-31,-41,-218,50,167,-57,22,23,78,135,168,-86,-169,-46,45,168,-149,398,178,134,163,131,130,381115
-9,3,64,-62,-11,-3,-121,51,3,118,116,99,177,108,21,142,76,111,87,46,94,76,50,93,11,743,105,83,129,99,25,381116
70,-19,50,-83,-3,17,-65,65,122,1,50,98,58,39,29,180,22,36,-10,97,311,119,12,-23,116,1062,-4,-2,36,11,-100,381117
-15,-8,72,-54,1,22,-197,53,26,15,-76,26,21,-117,15,33,-25,0,-14,-48,72,-12,-48,-28,-67,776,-18,-28,-9,-27,53,381118
-80,12,92,13,8,13,-253,36,64,109,12,-25,48,-4,19,-93,-25,5,45,-156,-186,-121,-45,36,-224,442,19,15,22,-5,243,381119
-44,11,76,23,17,8,-183,-5,25,-14,-25,-84,-18,10,-9,-81,0,13,76,-130,-164,-127,-9,52,-193,473,58,38,57,29,191,381120
-50,11,72,41,16,5,-133,-207,25,84,-120,-60,-3,-13,-70,-90,36,46,94,-143,-224,-135,47,86,-201,380,101,73,75,45,176,381121
-40,24,73,80,17,21,-43,-78,51,-113,-168,-76,207,-123,-32,-82,17,38,81,-135,-225,-118,34,64,-199,396,76,61,57,19,120,381122
-50,19,51,82,12,7,17,-85,18,89,-301,-107,152,-274,-123,-123,-67,-29,-15,-162,-221,-135,-76,-11,-234,419,3,-13,-16,-47,-27,381123
-82,14,51,42,5,-2,4,13,34,77,-73,-71,-73,-380,-34,-146,-93,-50,-46,-179,-239,-162,-96,-42,-246,397,-26,-49,-37,-67,0,381124
-193,0,88,31,-15,-6,-226,72,211,7,-197,-135,41,-315,-63,-211,3,60,96,-253,-535,-213,-16,120,-365,-22,134,49,109,51,340,381125
-416,-41,146,25,-42,-34,-602,-166,157,19,-285,-181,114,-125,-39,-356,146,205,375,-409,-1123,-332,133,399,-610,-917,401,250,341,256,833,381126
-507,-67,159,28,-53,-37,-756,-320,72,118,-389,-95,67,-36,-11,-448,216,254,546,-468,-1452,-397,225,550,-708,-1449,542,383,491,373,959,381127
-394,-68,94,5,-38,-34,-576,-39,92,135,-297,22,209,70,-48,-348,157,169,462,-336,-1162,-285,178,428,-493,-1114,421,321,421,306,533,381128
-99,-29,18,8,10,4,-107,95,70,16,93,69,133,86,-44,-73,58,25,185,-57,-375,-44,90,126,-77,-71,127,129,187,98,-14,381129
-51,0,25,53,30,21,42,-34,34,37,64,17,28,-9,-41,-93,10,-36,131,-93,-290,-79,53,75,-50,23,60,90,111,27,-4,381130
-19,-7,5,45,19,15,71,45,24,-51,-23,-284,20,-79,-28,-89,-29,-70,61,-89,-210,-65,7,33,-10,141,24,55,98,15,-47,381131
5,21,25,36,32,34,65,-64,4,-147,-92,-102,45,46,41,-51,15,-4,86,-44,-163,-12,30,98,26,165,67,92,133,74,21,381132
33,7,32,11,42,48,42,8,-21,41,-59,44,-13,96,9,-38,2,-14,82,-47,-119,-15,27,62,25,200,29,68,91,48,10,381133
-4,-29,27,1,25,36,-39,0,-27,178,-19,-43,-2,-15,-7,-103,-39,-38,33,-114,-205,-94,-19,-2,-78,103,-20,6,22,-17,2,381134
-256,-64,80,42,-10,-16,-328,-307,-36,23,-148,-144,115,-139,-87,-355,-5,27,180,-380,-860,-322,-8,177,-472,-796,154,97,138,72,437,381135
-699,-105,176,105,-82,-65,-731,-323,288,2,-522,-153,192,-574,-142,-750,147,206,569,-757,-2045,-650,147,588,-1018,-2472,529,357,468,343,1261,381136
-920,-130,212,149,-105,-75,-900,-538,364,159,-524,-334,134,-412,-201,-959,231,298,820,-930,-2785,-811,248,822,-1244,-3547,726,532,705,522,1529,381137
-655,-93,119,130,-50,-54,-592,-199,238,165,-585,-122,52,-136,-94,-686,214,227,737,-607,-2216,-541,249,694,-790,-2867,617,508,677,497,918,381138
-5,-21,-53,81,40,14,80,271,51,153,-38,182,19,245,59,-104,9,-51,152,-28,-548,-37,77,73,86,-585,36,124,204,77,-313,381139
134,-5,-57,46,52,42,48,266,82,66,563,71,26,186,18,35,-29,-59,-35,66,-122,62,38,-59,239,28,-77,19,71,-44,-343,381140
87,-12,-39,12,32,23,-104,163,70,-78,26,46,85,156,59,86,47,45,53,80,-82,105,101,48,227,84,25,98,141,33,-145,381141
42,10,6,34,38,19,-94,258,-7,0,-97,189,58,98,68,59,86,58,96,78,-86,106,149,88,182,95,45,132,160,43,-1,381142
44,7,5,28,28,2,23,-17,32,27,164,132,130,26,159,47,117,54,116,91,-20,118,170,85,178,198,68,149,153,51,-1,381143
-15,2,5,42,20,-2,169,-109,-85,17,131,-1,92,123,59,-36,54,15,85,3,-142,33,127,48,57,64,53,85,96,14,77,381144
-311,-49,48,40,-33,-39,-114,-432,53,-78,-71,-208,136,-49,-112,-375,22,20,214,-338,-927,-280,73,211,-403,-987,202,122,181,92,533,381145
-601,-77,130,97,-55,-45,-488,-526,192,-1,-307,-331,-51,-236,-166,-708,79,84,471,-648,-1830,-568,130,467,-840,-2266,435,283,386,249,894,381146
-783,-135,175,119,-74,-51,-803,-488,326,200,-631,-297,-23,-360,-125,-908,174,195,702,-823,-2504,-726,227,691,-1119,-3279,652,436,594,414,1275,381147
-599,-117,145,143,-37,-24,-605,-220,187,258,-151,-128,151,-139,44,-708,228,220,721,-576,-2195,-524,297,666,-812,-2973,644,469,647,459,943,381148
20,-7,-30,97,57,29,158,94,-31,92,222,286,-45,227,168,-52,93,23,229,84,-466,36,194,127,148,-658,150,180,253,134,-222,381149
102,4,-57,28,56,34,197,-222,27,47,5,223,-187,331,150,88,63,7,97,182,-40,137,159,35,292,-110,69,122,136,48,-239,381150
105,0,-36,24,48,40,143,-19,-87,144,27,210,-2,93,88,74,47,-1,67,140,-39,109,123,50,233,-119,63,113,111,52,-206,381151
92,-9,-22,6,39,42,113,70,-73,109,259,204,-119,62,88,39,15,-17,46,100,-36,73,93,17,172,-82,31,85,61,28,-165,381152
124,-2,-21,9,37,48,156,245,-38,31,133,172,-189,112,56,69,23,0,19,128,87,110,82,-3,216,76,12,70,45,21,-36,381153
64,-3,-24,30,32,16,113,168,-42,-11,285,96,-57,-15,87,-32,1,-9,-22,42,-48,39,46,-23,109,-102,-27,30,19,-18,78,381154
-426,-67,103,67,-40,-39,-474,-302,109,-142,-142,-132,-28,-125,-8,-518,105,138,313,-462,-1346,-392,122,364,-610,-1896,335,252,292,195,1032,381155
-919,-145,205,95,-110,-91,-1040,-607,242,-111,-547,-284,76,-271,-90,-974,256,316,790,-880,-2709,-776,267,827,-1242,-3843,758,561,679,517,1676,381156
-1031,-174,205,100,-119,-104,-1183,-474,305,129,-645,-324,197,-199,-140,-1084,298,355,925,-952,-3140,-857,325,955,-1336,-4525,881,645,830,623,1760,381157
-706,-148,109,79,-53,-47,-831,-276,215,157,-285,53,-28,227,25,-716,340,335,871,-543,-2426,-492,385,838,-753,-3648,785,658,819,617,1195,381158
150,-23,-66,50,82,74,180,43,-82,-30,387,386,-300,381,171,92,148,54,245,278,-240,224,253,134,441,-671,115,271,291,176,-348,381159
269,8,-80,63,92,93,414,64,-6,-144,380,167,-291,266,78,104,-35,-118,-96,247,163,206,61,-166,478,-32,-171,5,-42,-114,-563,381160
199,13,-60,85,75,75,446,359,-109,-79,4,94,-178,-24,-53,-21,-118,-167,-173,101,33,89,-46,-204,282,-132,-197,-91,-120,-173,-459,381161
101,5,-70,70,49,26,426,245,-69,20,-3,28,38,-94,-46,-17,-50,-87,-65,79,-45,81,-13,-77,213,-208,-70,-10,-27,-85,-249,381162
47,8,-81,66,19,-1,325,75,-29,58,59,145,-123,166,58,-11,-3,-61,-2,64,-84,63,43,-35,163,-255,-49,41,7,-46,-177,381163
32,-3,-73,52,18,3,161,-68,-46,-19,-25,44,-66,235,26,-63,-57,-97,-91,3,-117,8,-12,-116,84,-278,-129,-51,-76,-99,-197,381164
-125,-33,-16,51,3,-3,-83,-41,-6,31,-153,-64,-23,60,13,-260,-51,-54,12,-196,-582,-173,-4,14,-206,-898,-1,1,8,-38,135,381165
-319,-47,55,80,-28,-30,-218,-141,204,-78,-170,-17,-150,59,-54,-438,34,58,226,-358,-1133,-323,85,241,-481,-1685,226,152,200,119,568,381166
-570,-89,118,94,-46,-55,-474,-501,229,9,-168,-59,-45,-81,-153,-654,147,198,549,-555,-1846,-489,228,537,-789,-2709,502,347,441,342,1124,381167
-539,-105,112,96,-23,-26,-496,-473,240,-112,-123,-195,-64,-162,-85,-637,190,205,610,-497,-1909,-470,293,562,-695,-2879,510,399,511,379,897,381168
108,-3,-50,60,73,59,200,263,6,59,387,106,-246,100,188,2,64,-2,106,162,-241,103,181,36,275,-654,5,100,142,67,-377,381169
197,-11,-101,4,53,42,286,98,-59,55,290,171,-165,141,85,147,16,-50,-85,259,226,214,118,-137,418,-16,-143,-19,-37,-70,-445,381170
108,-19,-64,-1,34,42,139,142,-85,57,195,168,16,68,-14,24,-9,-51,-61,122,13,91,67,-100,215,-305,-117,-31,-36,-72,-259,381171
186,-11,-48,6,59,65,160,88,-50,9,447,173,168,148,43,68,-25,-61,-107,166,122,125,30,-120,281,-144,-124,-44,-50,-72,-324,381172
170,-8,-43,19,55,65,147,-59,-90,-58,212,111,11,-15,23,5,-89,-108,-184,92,75,57,-50,-171,196,-194,-185,-107,-109,-127,-312,381173
108,8,-27,41,64,58,165,138,11,41,-62,64,-137,-101,14,-49,-99,-98,-172,17,-63,-6,-65,-143,82,-370,-148,-113,-106,-121,-187,381174
-153,-42,19,46,14,19,-113,-16,73,77,-43,-56,-114,-124,-11,-298,-31,-3,38,-228,-706,-219,-1,68,-286,-1244,56,8,25,2,361,381175
-481,-97,80,68,-29,-19,-443,-407,54,65,-190,-236,24,-129,-52,-623,38,84,316,-528,-1588,-493,63,344,-687,-2479,302,192,247,168,801,381176
-502,-90,80,105,-25,-22,-417,-348,45,7,-59,-160,176,-102,-41,-660,56,88,388,-548,-1753,-518,86,387,-689,-2736,363,249,307,223,865,381177
-286,-52,30,115,11,2,-156,-189,107,7,-110,-17,52,82,-32,-432,81,72,351,-294,-1248,-293,138,307,-341,-2084,294,250,269,206,394,381178
32,-29,-77,52,35,23,177,-98,-50,-69,-108,91,-232,45,10,-66,-1,-42,44,65,-259,34,78,-24,185,-732,-20,67,36,4,-288,381179
41,-43,-82,2,19,29,104,-158,-160,-45,20,105,-281,-37,67,16,47,17,-1,122,-85,128,106,-26,225,-474,-22,55,39,-1,-165,381180
33,-30,-76,3,11,19,153,-80,-78,112,301,185,-336,125,92,47,69,21,7,145,-35,165,118,6,202,-392,16,35,75,21,-32,381181
51,-13,-56,12,17,9,236,54,-116,248,182,196,-143,229,159,39,55,16,0,146,-12,144,129,-10,196,-316,3,18,51,9,-45,381182
36,-18,-52,1,9,4,181,-14,-60,89,-50,191,-215,214,167,40,43,13,-16,132,0,112,106,-28,195,-282,-16,5,24,-1,-21,381183
49,-8,-55,17,24,11,71,-29,-8,-25,77,140,-188,80,85,30,-3,-33,-55,105,24,87,38,-53,187,-233,-56,-32,-24,-41,-130,381184
-40,-23,-46,16,1,-1,-33,115,2,51,61,-37,-115,79,-29,-86,-12,-23,14,-11,-208,-16,20,15,44,-535,10,14,11,-6,-43,381185
-134,-40,-24,35,-29,-18,-51,4,-28,62,-142,-33,95,-26,-105,-170,26,18,121,-71,-453,-71,55,114,-67,-867,85,90,104,59,206,381186
-263,-60,43,52,-22,-19,-173,-100,108,-16,-50,-155,103,-39,-153,-306,77,81,276,-224,-894,-199,100,275,-303,-1507,260,194,240,178,578,381187
-166,-35,25,99,12,17,-70,-64,29,-48,-6,-63,-77,-126,-54,-255,77,65,203,-151,-781,-153,120,213,-197,-1411,195,158,221,152,287,381188
114,0,-87,61,38,30,211,169,-63,109,130,74,-33,-86,-8,9,-30,-83,-124,107,-2,60,32,-127,198,-340,-130,-61,-41,-73,-398,381189
139,-15,-92,10,34,15,144,222,-53,-53,232,104,2,162,20,37,-61,-106,-206,118,137,79,-11,-183,210,-135,-206,-117,-121,-123,-388,381190
103,-17,-60,-17,18,-2,95,70,-27,-51,38,258,-76,194,-5,18,-38,-70,-126,91,82,51,0,-121,151,-249,-139,-64,-84,-83,-236,381191
127,-1,-40,10,41,22,146,-89,21,10,-76,121,-39,93,7,43,-28,-58,-70,101,117,71,15,-90,179,-237,-110,-26,-61,-64,-190,381192
100,-11,-35,-1,28,32,114,144,7,3,68,2,-29,18,19,12,-56,-81,-93,49,66,34,-28,-97,153,-288,-115,-39,-76,-69,-171,381193
46,-24,-18,-3,20,28,41,42,-59,-82,60,-10,-35,114,-9,-18,-27,-48,-57,18,-34,21,-25,-42,94,-448,-34,-13,-44,-24,-22,381194
-27,-34,-18,-8,5,12,-32,-52,-79,39,75,-25,-32,63,-18,-97,-4,-12,21,-44,-233,-39,12,26,-8,-702,33,19,1,6,124,381195
-201,-53,10,18,-12,-17,-231,-138,-29,69,-208,-198,-107,26,-67,-300,43,55,174,-231,-742,-206,44,186,-285,-1397,188,127,126,91,410,381196
-243,-66,5,-3,-31,-33,-287,-299,58,54,-300,-172,-136,-219,-96,-326,82,83,236,-235,-858,-206,86,250,-322,-1561,258,176,197,148,451,381197
-166,-48,-15,-12,-31,-38,-225,-312,112,-161,-32,38,63,-2,-12,-173,102,94,206,-77,-591,-72,112,220,-119,-1195,241,158,204,162,305,381198
-26,-14,-54,-36,-15,-17,-74,-110,23,-39,121,156,-48,247,22,40,84,51,72,134,-86,96,101,64,157,-481,110,77,102,80,-35,381199
-41,-30,-41,-81,-22,-17,-114,-108,-76,207,40,159,58,321,63,104,150,81,144,191,11,169,168,141,226,-359,157,154,166,135,93,381200
25,-30,-29,-47,-2,-2,20,159,-85,110,218,147,54,219,124,98,103,36,70,191,86,164,130,67,265,-231,60,110,107,68,-6,381201
87,-7,-53,28,28,24,213,308,-81,124,310,-8,-80,66,61,38,-24,-63,-98,111,114,76,7,-108,179,-134,-109,-49,-66,-85,-180,381202
78,14,-52,69,41,44,200,49,-20,5,170,-88,-85,83,15,5,-41,-62,-81,66,44,27,-12,-99,90,-199,-104,-71,-72,-82,-131,381203
59,15,-39,57,20,31,113,-42,-110,142,-87,107,14,29,18,40,26,7,8,94,29,70,36,19,104,-224,14,25,32,17,-29,381204
59,13,-19,39,22,31,69,16,-178,134,-72,154,105,-155,24,6,11,3,-6,62,-19,30,19,5,88,-283,9,18,13,-6,9,381205
47,-5,-46,20,11,12,124,-69,57,195,88,15,118,-121,64,-5,-2,8,-14,48,-39,9,-9,-8,93,-303,-15,0,-2,-9,9,381206
28,-7,-61,18,-7,-18,177,-27,-6,4,165,-113,-10,-153,124,-26,-55,-47,-70,26,0,-10,-59,-78,123,-244,-93,-44,-67,-67,-93,381207
47,18,-53,32,7,-10,182,-76,-160,53,46,-52,-166,14,51,0,-41,-66,-80,49,92,30,-47,-75,178,-140,-87,-40,-64,-62,-126,381208
115,13,-68,-1,7,2,172,43,-206,41,-86,-31,-17,152,4,69,-39,-75,-134,130,273,117,-69,-102,273,88,-110,-64,-75,-53,-186,381209
113,14,-45,-9,15,24,118,92,-136,-54,-5,111,-124,104,11,93,-23,-29,-146,138,293,136,-64,-98,242,106,-75,-60,-61,-34,-127,381210
79,13,-46,-14,4,9,120,65,-38,-88,57,254,-83,118,15,97,6,16,-79,139,270,131,-22,-56,194,30,-33,-30,-61,-23,-102,381211
24,0,-44,-11,-12,-17,93,54,-67,7,20,140,92,-39,-18,18,-20,-18,-65,53,124,42,-29,-66,76,-170,-51,-39,-79,-58,-60,381212
20,-2,-34,-11,-13,-15,80,81,-44,40,194,183,-24,19,37,17,-24,-30,-70,56,98,38,-34,-68,56,-202,-44,-52,-68,-57,-101,381213
41,10,-27,-7,-8,-2,76,111,115,79,252,103,-29,231,56,85,10,2,-32,118,190,91,3,-27,106,-65,-4,-9,-39,-15,-144,381214
7,-12,-22,-36,-20,2,-47,4,112,160,-80,-66,-51,219,24,38,15,7,5,72,77,37,20,10,42,-208,26,23,-1,24,-62,381215
78,3,-22,-41,6,27,-30,-157,27,86,174,18,-76,194,-14,78,5,-12,-13,108,142,79,6,-5,102,-103,5,3,1,20,-90,381216
159,8,-31,-34,33,54,106,-170,-56,74,174,47,-94,127,93,168,20,-18,-22,197,348,161,18,-37,245,203,-21,2,-10,-2,-202,381217
169,20,-25,11,42,63,258,-47,-96,162,199,-84,-81,-134,37,113,-42,-64,-158,132,339,97,-36,-154,202,239,-132,-122,-124,-120,-226,381218
71,18,-25,58,21,23,266,108,-119,86,132,-152,-102,-220,-24,-34,-97,-113,-222,-1,106,-21,-111,-172,38,-11,-162,-190,-156,-158,-80,381219
23,21,-20,60,14,9,248,93,1,167,-220,-17,65,-50,-7,-49,-62,-91,-143,-12,68,-20,-71,-117,7,-54,-117,-125,-123,-118,-102,381220
5,11,-32,26,1,0,145,-75,-19,69,104,-72,-5,-14,44,-84,-91,-113,-157,-42,36,-69,-85,-167,-27,-77,-168,-139,-172,-150,-167,381221
19,-4,-31,-4,-5,-8,51,6,-13,-133,62,-33,-67,-58,44,-62,-91,-94,-123,-32,43,-53,-88,-136,-8,-65,-124,-111,-147,-114,-156,381222
29,-7,-12,-3,12,5,-8,207,34,-62,-164,-94,10,-31,-3,-27,-51,-39,-57,-6,33,-20,-60,-53,24,-75,-53,-64,-85,-59,-88,381223
98,-5,-2,-10,24,29,-25,165,69,11,41,-83,-66,-44,-43,32,-2,-9,-50,75,138,49,-21,-23,105,47,-26,-16,-37,-22,-75,381224
119,0,1,-11,29,22,-48,222,16,5,113,43,-107,51,57,105,78,52,14,139,221,128,60,37,149,120,29,59,20,41,7,381225
100,-5,-15,-62,15,12,-63,158,-62,31,143,87,166,206,92,149,80,43,-10,167,303,154,38,5,190,229,17,22,-16,38,-29,381226
198,25,-53,-77,10,6,72,466,-138,60,252,161,115,245,130,276,18,-20,-163,289,658,252,-40,-129,381,730,-112,-70,-109,-60,-313,381227
182,18,-61,-117,0,3,21,262,-63,130,-105,-19,62,87,108,237,-74,-79,-249,220,681,196,-142,-209,327,807,-182,-138,-198,-133,-344,381228
-32,-16,15,-71,-25,-11,-187,-216,81,-44,-62,-63,-37,30,25,4,-51,-17,-57,-24,66,-24,-123,-30,-30,-6,-30,-42,-84,-30,97,381229
-33,4,1,-15,-22,-27,-93,190,18,-12,136,-27,1,7,23,-8,-37,1,8,-26,-17,-30,-79,-4,-62,-142,-7,-19,-38,-4,46,381230
-18,2,-25,8,-9,-43,-138,-27,-19,-53,26,-50,-78,-184,-38,17,-19,-13,-5,14,29,1,-39,-23,-9,-92,-22,-15,-25,-18,-34,381231
-20,7,-27,30,0,-33,-44,-60,46,12,-81,-56,51,-151,-101,-24,-33,-55,-29,4,5,-28,-44,-37,-38,-147,-29,-36,-54,-43,-69,381232
-14,18,-30,42,-4,-19,183,-22,27,32,107,16,122,89,-90,3,16,-10,20,28,28,-9,21,-5,-9,-120,20,2,-29,4,-10,381233
16,5,-27,28,-8,5,155,-110,18,-88,54,-52,178,-64,-81,-16,18,-1,26,10,3,-24,16,3,-5,-149,31,5,-14,7,13,381234
116,16,-26,12,19,25,212,52,-20,-28,106,-10,113,-46,-18,76,17,2,-34,100,215,69,-2,-42,150,137,-4,-28,-21,-3,-147,381235
122,7,-36,-11,10,9,222,45,-69,33,139,-65,171,-83,-43,62,-48,-64,-144,76,263,53,-76,-126,145,226,-94,-127,-95,-69,-160,381236
149,26,-18,13,20,36,257,87,17,-21,177,40,-68,-4,30,78,-65,-85,-199,80,297,74,-107,-153,136,293,-136,-157,-119,-90,-249,381237
93,24,-4,33,10,20,208,114,45,205,159,-76,-61,-18,-7,72,-37,-44,-108,57,237,63,-70,-93,73,227,-95,-91,-81,-55,-139,381238
5,6,-13,18,-6,-4,117,159,-34,293,-91,-104,102,-21,13,-4,-30,-36,-64,-14,76,-5,-60,-55,-27,18,-63,-65,-52,-39,20,381239
23,13,-16,16,-2,-8,105,101,42,47,-163,-59,52,81,-9,-14,-43,-34,-74,-20,63,-18,-87,-40,-41,14,-34,-54,-42,-27,-24,381240
51,11,-11,7,9,-6,48,-59,51,10,-186,-35,88,55,50,19,-25,1,-64,1,107,-8,-88,-48,-26,74,-46,-46,-52,-21,-66,381241
46,1,0,-24,1,7,-64,119,-2,-265,122,29,-121,-13,36,50,19,27,-27,35,125,42,-30,-34,-12,91,-43,-32,-39,-15,-56,381242
66,0,14,-23,16,14,-73,61,-92,-123,105,34,94,-79,3,42,16,13,-24,43,141,60,-21,-39,6,121,-11,-47,-31,-21,-8,381243
29,7,19,-5,12,10,-29,174,-12,-76,-64,0,150,-141,-43,17,9,14,31,8,74,27,-19,-5,-40,19,27,-31,-16,-9,17,381244
-27,-8,12,-22,-7,11,-56,-27,7,25,3,-13,92,-42,-67,-7,24,33,68,-12,-14,6,23,28,-65,-120,37,-4,3,28,77,381245
-3,-6,23,-21,5,21,-42,185,-118,95,-34,2,-182,189,-23,26,79,69,90,28,9,48,86,70,27,-124,71,74,72,70,153,381246
61,-2,-19,-9,-4,10,72,-57,-88,63,22,-13,84,108,55,95,35,30,-36,100,185,100,21,-17,163,131,-20,27,27,4,-197,381247
72,21,-42,7,-6,-9,139,-46,43,-39,224,114,205,92,19,107,-18,7,-93,92,231,87,-65,-57,168,230,-52,-42,-32,-25,-137,381248
-10,19,-18,28,-7,-7,53,-21,59,-19,171,61,74,64,-11,5,-28,17,-19,-15,-10,-27,-70,-4,7,-79,25,-27,-2,10,75,381249
-17,18,24,17,8,9,3,123,81,-1,-41,-16,117,75,-3,-15,-9,14,62,-20,-81,-52,-36,58,-31,-176,98,23,47,60,93,381250
17,15,18,0,-4,8,106,80,163,28,11,54,91,102,90,66,54,60,95,70,52,35,30,73,62,-5,119,68,62,79,37,381251
-17,22,2,2,-19,-6,49,115,33,34,79,-34,-103,-35,1,31,38,59,70,39,-2,-6,26,43,-3,-81,89,34,32,50,28,381252
-33,15,-29,-16,-28,-40,-57,138,-69,-59,-91,-56,-70,-26,20,-5,14,26,25,7,-56,-46,11,15,-60,-147,46,8,-9,14,22,381253
-29,18,1,-19,-19,-28,-108,-179,-79,-39,-204,72,55,85,0,13,66,41,83,34,-32,-11,77,56,-12,-136,62,66,39,44,106,381254
-113,5,38,-29,-30,-25,-244,-233,-3,61,-249,91,-23,24,-7,-14,138,119,211,-13,-220,-16,136,203,-81,-431,201,186,175,164,353,381255
-132,-7,32,-42,-43,-21,-262,43,50,-32,-238,69,-1,-65,-40,-30,147,136,231,-23,-290,-32,131,225,-94,-524,223,188,196,193,351,381256
-73,2,-3,-37,-30,-24,-128,44,-25,-52,-132,7,-13,199,-30,28,112,82,150,38,-100,17,114,124,-1,-293,115,122,122,119,125,381257
-54,-6,5,-24,-16,-7,-65,-144,-11,30,-74,-23,-84,102,10,-23,39,18,86,-4,-119,-9,51,54,-46,-328,44,59,75,43,-16,381258
105,26,-8,23,28,30,155,15,94,118,198,87,40,-103,41,83,-10,-37,-6,98,177,81,-6,-52,121,75,-62,-9,-2,-11,-204,381259
119,54,-15,49,33,27,187,-67,-27,-52,372,47,61,-48,-28,42,-89,-102,-111,33,197,17,-77,-163,79,132,-154,-102,-134,-107,-278,381260
24,49,1,26,20,12,48,56,-43,-283,-90,-101,-16,-5,-76,-16,-45,-31,-32,-24,45,-17,-33,-61,-4,-84,-45,-43,-74,-36,-79,381261
-49,20,-3,-23,-11,-8,-77,-123,54,-161,-239,-69,-127,33,-69,18,61,73,77,15,-7,38,48,76,35,-203,85,74,63,75,69,381262
-19,30,-8,-30,-12,-9,-42,21,31,-144,-225,-73,33,-109,-71,36,58,57,35,35,35,67,32,66,80,-146,55,66,76,71,-2,381263
-9,23,-6,-10,-4,3,-33,-128,-105,-193,-96,-74,-50,-16,-23,-5,13,15,-22,-9,4,8,-11,13,47,-190,-9,26,36,28,-42,381264
-108,2,31,-10,-9,4,-132,-269,9,-193,-134,-28,-48,61,70,-75,22,19,34,-75,-187,-58,-2,70,-69,-460,28,57,77,57,153,381265
-134,-5,60,-16,-12,17,-183,-110,86,-166,-119,15,14,47,92,-143,-9,-16,46,-127,-320,-104,-5,55,-134,-614,17,28,68,42,94,381266
-157,-14,68,-8,-22,5,-201,-87,61,-21,-166,75,56,-5,100,-125,78,75,181,-106,-396,-84,87,163,-144,-752,137,115,147,134,278,381267
-261,-36,49,0,-47,-39,-225,-147,155,82,-119,-31,3,92,-5,-212,108,120,288,-170,-665,-163,124,250,-290,-1124,220,180,217,190,409,381268
-27,11,-6,38,16,3,120,12,123,32,42,-47,-32,-83,-11,-62,17,2,104,-14,-199,-52,61,27,-42,-480,15,54,47,35,-5,381269
8,13,-6,28,18,23,154,44,-34,50,57,-150,47,-177,3,-94,-57,-70,-28,-57,-141,-97,-19,-87,-76,-367,-71,-48,-81,-90,-75,381270
55,39,1,52,42,55,161,150,-92,108,-85,-114,-55,40,78,-87,-82,-86,-99,-53,-106,-102,-57,-125,-93,-268,-98,-94,-124,-125,-141,381271
99,24,-28,17,29,39,116,194,-37,80,49,-58,9,56,68,-2,-67,-76,-145,14,60,-38,-60,-136,-1,-21,-104,-100,-120,-109,-235,381272
62,-6,-20,0,12,14,-1,-59,6,60,118,-62,23,12,-28,4,-22,-27,-63,18,8,-20,-17,-52,-2,-93,-30,-37,-47,-49,-130,381273
56,17,-5,-1,18,20,61,47,2,133,32,-7,-88,3,-48,13,-28,-23,-60,30,44,-11,-12,-58,48,-54,-35,-45,-52,-46,-126,381274
-528,-61,126,10,-80,-54,-534,-348,250,71,-404,-240,-45,-381,-43,-535,85,143,339,-550,-1418,-499,90,380,-753,-2074,388,196,255,202,963,381275
-1067,-163,253,57,-140,-90,-1160,-643,425,59,-744,-443,74,-351,-77,-1061,282,360,959,-1021,-3008,-902,322,971,-1413,-4376,912,617,759,619,1837,381276
-909,-155,221,122,-63,-31,-1007,-524,321,15,-456,-294,222,-361,-134,-1003,259,295,946,-881,-2932,-808,335,902,-1195,-4405,811,609,767,605,1519,381277
-543,-124,115,125,-8,13,-642,-109,138,153,-415,-149,133,-223,-52,-730,139,116,625,-568,-2126,-532,231,554,-695,-3394,474,417,532,378,778,381278
114,-26,-36,94,79,78,109,241,7,53,135,174,57,234,76,-56,28,-39,145,88,-384,56,132,39,221,-1043,7,124,154,76,-359,381279
227,3,-81,64,61,50,298,321,-57,-51,237,260,-101,91,74,91,-45,-84,-79,188,116,141,41,-163,322,-321,-152,-45,-62,-93,-509,381280
157,10,-83,49,36,27,248,231,-50,122,113,168,-146,131,83,114,8,-3,-20,189,141,159,79,-63,295,-290,-50,2,-5,-19,-337,381281
122,8,-78,-4,25,14,180,-41,-25,89,-95,176,-40,316,56,148,47,21,0,207,198,187,90,-11,323,-226,-13,35,40,26,-257,381282
116,6,-69,-34,7,-2,152,28,-31,46,278,190,-171,407,61,125,13,-24,-45,186,227,166,53,-60,300,-164,-63,-8,-22,-16,-165,381283
73,4,-69,-34,-7,-9,140,251,99,77,268,9,-117,369,77,79,0,-28,-56,146,182,139,47,-79,247,-173,-101,-37,-61,-45,-105,381284
-247,-54,18,-26,-56,-42,-256,-71,113,60,-46,-94,-43,258,-21,-254,26,53,110,-198,-655,-164,45,137,-246,-1307,124,63,97,63,519,381285
-584,-112,121,28,-70,-37,-725,-379,190,-70,-455,-180,18,-122,-76,-640,117,169,467,-567,-1760,-491,129,501,-789,-2855,477,294,383,297,1046,381286
-665,-129,138,62,-59,-21,-822,-328,207,23,-457,-258,133,-253,-166,-766,180,198,668,-666,-2175,-591,224,639,-944,-3494,612,407,515,409,1193,381287
-503,-99,101,113,-23,6,-592,-299,263,56,-222,-120,183,-34,-64,-634,171,150,597,-501,-1904,-470,257,521,-716,-3195,493,372,466,339,859,381288
95,-19,-46,85,54,66,122,264,-80,-42,311,237,-20,299,143,-10,44,-33,91,143,-273,72,133,14,194,-999,23,86,108,36,-332,381289
215,-9,-67,26,49,73,292,81,-59,-81,200,160,-46,245,82,150,7,-51,-87,257,205,174,67,-109,385,-300,-107,-10,-37,-59,-445,381290
168,-3,-29,34,59,91,306,-31,179,22,160,-1,23,104,-26,40,-45,-79,-159,117,57,52,1,-148,249,-437,-160,-71,-93,-112,-277,381291
168,15,-30,43,73,98,274,-95,-8,46,179,48,-152,197,-8,39,-65,-89,-151,103,93,56,-33,-142,254,-369,-144,-72,-99,-108,-298,381292
152,9,-41,11,63,87,113,-114,-38,108,-116,-25,-93,70,43,65,-35,-50,-117,122,158,70,-26,-92,263,-291,-89,-44,-68,-75,-303,381293
64,-1,-40,-5,26,42,33,201,19,11,-179,106,-112,-51,73,36,2,-8,-71,81,38,47,20,-44,184,-448,-40,-11,-27,-24,-137,381294
-380,-66,42,2,-66,-57,-406,10,156,-34,-413,-36,151,-168,-112,-353,107,143,251,-313,-1002,-296,133,287,-421,-1881,273,182,191,163,727,381295
-910,-145,170,48,-127,-119,-1006,-417,284,-64,-757,-295,84,-202,-219,-812,334,398,834,-739,-2431,-663,360,846,-1079,-3948,797,575,644,550,1641,381296
-879,-160,138,51,-120,-108,-962,-307,273,112,-542,-170,-77,-23,-95,-792,346,383,915,-664,-2510,-590,393,871,-975,-4156,817,633,732,607,1441,381297
-486,-107,61,52,-34,-34,-588,-211,82,-75,-180,62,-2,168,13,-492,252,231,639,-330,-1725,-314,315,590,-482,-3145,540,472,551,441,740,381298
77,-12,-67,53,42,26,59,240,-134,-30,-36,190,-26,467,112,5,95,25,161,175,-299,137,169,81,273,-1201,91,172,174,130,-333,381299
187,9,-96,45,45,40,226,268,-87,-91,33,112,-7,182,152,102,20,-45,-19,241,86,202,85,-63,376,-639,-48,18,11,-6,-340,381300
187,10,-62,62,56,61,249,311,-59,22,191,224,-10,155,90,61,-24,-97,-83,181,114,157,49,-118,312,-564,-121,-50,-60,-77,-325,381301
176,21,-41,59,70,86,262,141,-108,66,114,238,-41,123,39,18,-97,-158,-187,130,162,104,-27,-213,260,-461,-224,-138,-149,-161,-414,381302
164,1,-75,18,23,48,244,141,-77,68,31,208,-93,126,41,24,-94,-144,-197,116,214,93,-53,-210,250,-372,-216,-119,-184,-159,-453,381303
131,-3,-98,1,-1,-2,238,129,83,161,233,122,-212,123,84,69,-23,-56,-113,136,220,127,24,-141,258,-351,-146,-59,-130,-103,-237,381304
28,1,-63,24,-15,-21,134,-99,37,73,141,65,-132,26,53,-10,26,11,-5,51,-37,47,65,-26,115,-674,-19,13,-31,-26,-11,381305
-182,-26,-13,59,-27,-37,-90,-255,73,44,-10,-100,-24,-253,4,-217,77,75,208,-158,-619,-138,116,191,-185,-1485,169,153,145,109,308,381306
-233,-37,19,73,-6,9,-153,-271,77,-84,-314,-210,-158,-164,-157,-347,75,58,253,-266,-908,-235,124,227,-318,-1905,203,154,186,137,454,381307
-123,-32,2,84,12,27,-25,-87,-76,-94,-211,-38,-187,-126,-78,-284,23,-19,139,-176,-697,-176,84,102,-195,-1624,86,75,91,51,104,381308
198,34,-64,77,60,61,317,117,-146,-15,143,141,-247,61,64,26,-64,-143,-130,151,175,97,14,-191,255,-426,-176,-97,-137,-142,-528,381309
257,28,-94,24,48,48,302,-46,-132,-44,50,186,-209,33,42,106,-101,-154,-254,219,465,159,-56,-272,346,-16,-250,-159,-218,-198,-587,381310
91,-9,-46,-16,12,16,125,39,-77,107,186,102,-26,122,75,65,36,21,-38,155,161,118,54,-17,218,-462,-10,13,-14,13,-14,381311
61,-14,-47,-20,4,3,121,152,-24,-95,52,127,-65,259,103,86,59,53,19,155,95,123,81,32,199,-541,8,32,41,55,38,381312
117,-8,-47,-16,19,42,127,112,26,-63,-92,48,-180,-6,92,31,-81,-90,-140,111,166,68,-57,-155,137,-398,-158,-116,-125,-114,-254,381313
111,-6,-47,-4,17,38,164,74,-45,33,225,-72,-67,-51,88,31,-89,-93,-151,99,173,47,-77,-167,105,-377,-150,-116,-153,-125,-308,381314
67,-22,-47,-6,2,12,103,215,-32,-37,60,-125,14,-48,3,-16,-72,-79,-113,37,70,-8,-67,-124,63,-499,-120,-82,-127,-110,-153,381315
-112,-44,11,12,-18,-1,-185,-144,173,67,-66,15,108,-161,35,-209,-12,-10,74,-155,-445,-151,-7,74,-172,-1209,59,37,25,11,194,381316
-158,-49,12,21,-27,-14,-318,-181,164,130,-263,66,-2,-209,-49,-261,3,2,99,-197,-578,-178,30,89,-207,-1407,83,45,55,27,267,381317
-90,-39,-28,-2,-20,-5,-243,25,-27,4,84,90,-57,30,-59,-176,-45,-53,-59,-112,-348,-114,-32,-44,-66,-1085,-31,-63,-25,-49,13,381318
37,-26,-48,-27,3,2,-47,121,-108,-193,-292,119,-158,186,58,25,-14,-11,-50,75,42,71,-10,-42,166,-579,-39,-27,-13,-29,-186,381319
66,-20,-39,-27,12,20,107,239,34,6,-160,172,46,90,129,82,25,29,-19,130,153,135,40,-15,235,-438,-16,14,20,-1,-69,381320
78,-26,-55,-36,-3,23,155,-90,3,60,261,94,-78,30,77,105,29,-2,-68,133,217,138,33,-46,257,-338,-41,-1,-7,-23,-76,381321
105,1,-36,8,17,39,176,-75,27,215,269,31,-29,104,82,71,-9,-33,-102,87,201,91,-7,-77,203,-329,-66,-24,-43,-43,-119,381322
98,10,-33,29,27,44,162,-152,41,184,217,-25,-106,-42,58,22,-82,-93,-145,46,175,43,-67,-133,134,-335,-145,-84,-111,-110,-280,381323
115,1,-30,22,41,46,152,-49,29,228,119,61,114,-82,38,38,-71,-78,-147,64,206,61,-75,-125,148,-275,-137,-79,-109,-104,-257,381324
55,-7,-20,21,22,20,82,-10,11,129,104,60,40,-53,63,10,-21,-15,-65,18,70,32,-44,-36,72,-453,-29,-17,-47,-32,-93,381325
-30,-16,-30,-25,-17,-13,-46,-305,27,89,-22,9,-5,-11,7,-16,33,55,42,-9,-76,14,3,57,-13,-674,62,33,19,42,120,381326
-40,-11,-20,-44,-10,1,-102,92,94,125,-257,-24,-155,109,26,-21,27,45,54,11,-85,22,12,51,-9,-692,60,37,36,47,84,381327
44,-12,-30,-67,0,13,-57,129,-96,-19,-428,111,-185,31,41,74,43,38,14,118,130,122,24,21,112,-412,25,37,25,29,-62,381328
81,-11,-50,-44,6,0,41,-64,-24,-64,-296,-23,-21,31,46,86,-2,-16,-105,137,216,128,-29,-75,142,-257,-85,-64,-48,-54,-179,381329
138,28,-60,52,37,15,224,145,-1,50,-66,83,28,-115,53,101,-46,-53,-167,157,297,130,-62,-139,166,-116,-139,-118,-111,-98,-212,381330
131,28,-79,44,7,-16,277,186,-185,1,252,4,-68,-134,31,103,-78,-96,-188,159,363,116,-78,-180,194,-4,-189,-143,-158,-137,-249,381331
103,24,-37,25,0,-16,233,219,-24,-17,175,72,77,143,95,128,-17,-31,-128,191,365,133,-17,-119,228,9,-115,-75,-97,-87,-139,381332
78,11,-12,15,16,11,161,95,77,29,28,112,180,161,61,129,21,12,-60,175,282,129,28,-42,214,-101,-32,-14,-14,-15,-16,381333
110,-5,-31,-14,6,26,171,11,-75,-46,53,-2,27,-25,-56,103,-65,-56,-145,143,295,95,-72,-117,157,-47,-98,-85,-84,-81,-94,381334
303,29,-62,-1,49,76,408,103,-118,-41,428,81,147,86,-19,235,-155,-140,-309,287,744,221,-175,-311,358,605,-281,-210,-234,-195,-470,381335
490,63,-99,-3,80,96,638,180,-248,154,391,149,-22,37,74,393,-236,-243,-545,404,1257,327,-271,-541,539,1360,-493,-379,-431,-370,-814,381336
454,77,-72,10,75,84,594,308,-241,79,346,56,87,-65,56,358,-223,-209,-523,341,1216,284,-261,-500,471,1346,-456,-377,-430,-366,-704,381337
320,84,-69,17,36,36,505,132,-202,-57,218,6,31,-134,50,307,-134,-118,-374,262,1028,235,-152,-356,360,1097,-315,-279,-342,-257,-361,381338
8,41,-21,-6,-21,-10,120,-160,-101,-59,351,-104,-30,-156,-80,74,-26,14,-127,17,360,32,-30,-90,10,149,-81,-105,-136,-94,178,381339
-74,-7,-13,-40,-38,-28,-83,-150,-54,34,479,-107,-74,-7,-72,20,12,51,-37,-12,163,12,-24,-3,-31,-145,-16,-34,-31,-6,201,381340
-6,-2,-1,-36,-20,-18,-48,-128,24,22,222,99,88,66,5,111,23,51,-20,69,301,90,-25,-9,49,14,-7,-17,-15,23,30,381341
46,-9,-5,-46,-14,-10,-34,21,-22,26,43,71,223,-91,5,78,-26,-15,-72,32,290,60,-85,-62,5,31,-39,-68,-79,-23,20,381342
94,-14,3,-54,8,25,-19,37,-135,-152,46,13,201,-224,-37,93,-33,-25,-74,57,360,76,-75,-82,63,123,-55,-67,-82,-30,-65,381343
131,-7,1,-60,26,41,13,97,-73,-105,-9,72,102,-231,18,137,-38,-37,-93,102,457,118,-66,-106,134,259,-95,-67,-94,-41,-244,381344
308,40,-27,-41,58,71,242,471,-14,107,95,107,-43,-162,15,293,-79,-100,-206,260,875,252,-85,-226,372,848,-201,-132,-202,-103,-532,381345
430,71,-74,-24,58,52,465,619,-5,-54,172,31,-100,-70,41,445,-110,-128,-355,397,1293,358,-125,-365,563,1462,-320,-242,-324,-203,-649,381346
465,89,-104,-20,50,34,518,291,-99,70,480,228,-89,143,68,493,-156,-174,-500,436,1493,385,-181,-485,632,1815,-466,-344,-416,-308,-813,381347
426,80,-82,-55,35,29,414,457,-186,-14,425,190,-28,-13,69,500,-149,-142,-496,423,1489,377,-178,-444,607,1870,-434,-328,-398,-285,-696,381348
68,20,14,-75,-28,-8,-36,225,-121,-42,-152,14,99,49,11,228,25,77,-122,149,618,152,-32,-37,157,687,-43,-66,-87,-8,113,381349
31,11,22,-73,-39,-22,-46,-89,-40,81,-311,82,17,116,32,199,75,108,-4,159,483,152,34,36,144,505,36,12,5,66,140,381350
45,13,-11,-61,-38,-34,33,-59,-102,-165,-48,3,86,2,-8,201,0,20,-74,185,554,149,-33,-67,177,647,-37,-69,-65,-1,-73,381351
34,20,10,-46,-25,-21,7,-7,6,-64,3,-32,4,-137,-1,172,12,40,-50,169,493,125,-22,-48,126,557,-26,-58,-56,7,20,381352
53,30,-4,-45,-33,-38,53,166,-44,-61,109,123,-46,20,43,193,63,66,-35,221,542,168,27,-31,173,626,-17,-22,-31,31,-3,381353
64,24,-8,-37,-18,-28,32,170,-77,-9,146,87,-90,51,63,188,39,51,-56,210,523,159,-6,-26,149,618,-29,-34,-33,11,-87,381354
506,84,-104,-35,68,50,507,127,-206,-134,337,220,-127,357,108,575,-104,-132,-418,596,1593,493,-157,-415,710,2127,-391,-281,-319,-228,-967,381355
1008,176,-195,-48,137,114,1141,576,-316,-109,604,278,-125,193,137,1038,-287,-328,-925,993,2968,854,-341,-937,1300,4113,-842,-625,-749,-600,-1790,381356
921,177,-195,-93,91,58,1093,462,-336,-144,404,124,-135,195,99,1010,-286,-306,-955,887,2997,802,-388,-921,1156,4242,-822,-646,-797,-623,-1579,381357
574,135,-116,-100,16,-2,724,270,-121,-185,215,29,-50,89,-20,719,-168,-162,-655,552,2234,541,-299,-595,684,3251,-512,-456,-585,-408,-763,381358
-16,47,41,-92,-63,-51,-32,-288,53,-152,-488,-102,56,-274,-86,134,-21,29,-149,-45,665,27,-147,-70,-153,1095,-23,-146,-207,-79,275,381359
-94,14,71,-103,-57,-32,-257,-272,43,-319,-489,-138,-72,-144,-102,55,43,85,34,-88,339,-18,-53,71,-182,606,88,4,-37,58,287,381360
-63,1,57,-105,-51,-18,-256,-277,-15,-243,-216,-77,-6,-330,-111,61,28,57,66,-50,314,1,-57,71,-112,551,79,32,-12,60,229,381361
-38,9,56,-56,-32,-27,-202,-75,-71,-249,-36,-138,95,-278,-77,73,41,77,108,-37,270,13,-20,82,-95,474,95,38,7,71,213,381362
-72,3,56,-39,-44,-38,-170,77,-47,-145,0,-107,47,-170,-83,50,30,78,76,-62,200,-14,2,45,-156,377,79,-4,1,60,185,381363
-73,23,67,3,-28,-15,-116,-75,-203,-170,73,-18,56,66,-84,16,-8,29,28,-101,147,-57,-36,-1,-208,299,40,-47,-25,18,106,381364
179,64,-34,-13,6,8,260,-24,-151,-211,119,118,78,99,-36,266,-74,-66,-175,162,832,165,-100,-241,177,1249,-208,-183,-192,-134,-478,381365
530,114,-114,-57,44,33,734,299,-258,-78,349,265,-45,130,50,648,-154,-150,-528,540,1895,489,-172,-574,692,2750,-516,-377,-458,-352,-1034,381366
640,125,-116,-75,56,27,860,252,-274,-153,330,226,-113,60,90,760,-225,-213,-695,627,2284,567,-255,-698,831,3381,-632,-477,-604,-466,-1187,381367
516,114,-58,-77,42,28,664,228,-163,-45,315,-29,-117,-67,-4,617,-226,-197,-644,464,1999,426,-299,-609,610,3082,-540,-469,-574,-411,-877,381368
-31,31,59,-56,-42,-39,-55,-124,71,63,-133,-240,108,-343,-220,79,-93,-9,-217,-89,520,-50,-192,-116,-192,1096,-83,-209,-219,-110,207,381369
-148,31,78,-21,-57,-62,-221,103,142,-83,96,-202,148,-89,-96,36,16,82,23,-102,145,-62,-58,88,-266,552,105,-33,1,71,352,381370
-98,12,36,-76,-65,-57,-254,80,-20,-196,-189,-107,0,90,-19,134,37,72,57,27,314,37,-37,80,-137,759,116,2,25,92,138,381371
-79,-20,40,-122,-62,-43,-296,42,-33,-12,-128,-2,-64,-117,-17,92,25,57,43,-3,238,5,-37,64,-172,660,110,7,5,63,168,381372
-121,13,64,-48,-45,-54,-205,1,32,-76,-59,-64,41,24,-96,39,52,105,104,-60,17,-50,-6,133,-231,341,172,57,84,106,346,381373
-91,20,43,-4,-21,-51,-134,-116,35,-70,-133,-179,28,0,-70,-3,12,31,49,-82,24,-77,-26,41,-212,323,48,-8,26,8,170,381374
323,89,-39,10,62,24,342,137,-212,-97,65,-54,-136,-84,40,300,-131,-176,-313,255,992,199,-149,-362,309,1652,-351,-254,-279,-255,-719,381375
784,155,-129,-29,113,98,883,525,-297,-133,535,228,112,94,141,748,-266,-328,-740,676,2287,583,-279,-776,919,3472,-719,-517,-614,-505,-1361,381376
762,156,-99,-56,91,90,792,422,-281,-63,516,165,63,-43,129,772,-245,-278,-735,638,2371,572,-274,-731,853,3667,-670,-500,-625,-489,-1147,381377
431,111,-12,-78,34,36,345,231,-72,-68,-58,-2,1,-92,36,506,-138,-116,-460,330,1626,330,-211,-424,381,2717,-364,-313,-425,-297,-516,381378
-39,33,99,-85,-34,-13,-240,-28,91,-44,-164,-196,104,-290,-51,26,-84,-9,-150,-170,359,-120,-155,-89,-332,1031,-58,-143,-198,-111,274,381379
-148,-1,123,-71,-41,-34,-338,-64,159,173,46,-221,144,48,-91,-96,-48,3,-21,-262,-23,-212,-103,-6,-438,498,0,-66,-91,-43,313,381380
-193,-5,90,-54,-54,-70,-286,52,122,57,-436,-194,208,-112,-123,-111,-10,49,54,-267,-181,-203,-70,76,-398,258,80,4,7,31,362,381381
-153,16,62,-4,-55,-68,-188,82,94,132,-236,-158,-40,-238,-127,-93,-17,27,49,-242,-165,-182,-75,58,-318,252,67,-8,3,16,295,381382
-143,13,67,7,-34,-50,-182,9,30,130,-219,-128,-18,-156,-63,-105,-38,-1,41,-246,-183,-190,-87,27,-317,218,31,-22,-2,-11,265,381383
-119,15,67,-2,-20,-28,-166,-178,77,-111,-285,-64,16,-8,-50,-75,-27,1,56,-187,-129,-144,-76,54,-267,275,69,-5,21,22,234,381384
-27,24,54,-5,2,-7,-95,73,47,-168,-197,-185,11,-11,-106,6,-20,12,12,-89,62,-60,-62,7,-146,522,19,-26,-2,5,137,381385
57,19,16,-2,-3,-12,-3,109,37,3,124,-67,137,-9,-132,51,-73,-39,-100,-31,276,-13,-115,-100,-47,820,-95,-91,-96,-75,-40,381386
93,19,-3,-7,-7,-19,97,106,-26,-36,139,77,205,-115,-23,98,-95,-66,-158,7,437,14,-150,-155,-1,1053,-131,-132,-163,-113,-172,381387
35,26,28,0,-6,-26,88,-16,155,144,208,9,291,23,4,78,-40,-22,-83,-27,330,-12,-87,-92,-49,894,-62,-73,-104,-66,22,381388
-112,11,76,-3,-20,-33,-87,-34,102,74,173,-14,244,-99,-47,-35,55,87,142,-129,-74,-96,33,121,-212,298,124,102,89,79,304,381389
-134,-4,68,-36,-30,-41,-206,144,-27,20,129,-149,197,25,-82,-35,68,94,154,-137,-171,-105,43,145,-212,113,136,113,132,90,285,381390
-74,4,36,-32,-9,-28,-212,98,33,8,-23,-82,15,100,-36,9,16,36,26,-83,-17,-59,-15,32,-132,308,39,22,51,3,27,381391
-96,-18,26,-62,-14,-25,-275,-137,-66,51,-145,-80,52,-51,-107,-26,7,8,27,-93,-45,-70,-28,23,-147,261,40,8,38,-6,17,381392
-50,-13,53,-49,-3,11,-215,-230,-58,61,-118,-45,152,58,-113,18,57,50,109,-43,4,-28,31,91,-77,303,99,65,89,49,106,381393
-14,11,45,6,-8,-3,-85,-91,177,26,-209,42,127,37,17,73,84,109,170,-3,46,24,73,149,-32,318,164,123,142,117,178,381394
-7,17,19,-1,-39,-41,13,-9,134,76,1,15,-43,38,44,127,91,94,148,60,144,75,83,131,22,443,144,117,127,111,87,381395
105,23,-23,-28,-17,-37,144,142,-58,-73,144,98,-2,190,55,247,31,12,-1,172,518,168,46,-34,178,980,-35,18,-17,-7,-138,381396
136,33,-11,-36,13,-11,205,269,66,43,153,91,115,262,40,243,-5,-6,-72,155,587,161,11,-98,159,1106,-101,-29,-81,-67,-187,381397
86,25,23,-19,8,-11,184,270,33,62,53,-49,-29,179,7,165,-15,6,-41,78,436,102,-5,-79,39,926,-78,-31,-74,-72,-140,381398
-79,-7,50,3,-17,-22,-64,23,51,2,93,-140,121,-51,-53,-73,-52,-18,-14,-163,-94,-130,-68,-32,-303,272,-23,-56,-65,-71,92,381399
-75,4,47,26,-11,-7,-157,-47,-88,107,-198,-182,141,-88,-93,-138,-89,-74,-35,-220,-236,-187,-113,-47,-381,105,-40,-83,-80,-81,56,381400
-39,12,49,24,8,-3,-133,94,-110,209,-295,-203,145,-33,-53,-108,-78,-60,-22,-185,-187,-148,-87,-35,-307,164,-26,-69,-53,-61,55,381401
-72,1,22,5,-13,-36,-91,-235,28,-8,-205,-155,150,78,-77,-27,-2,21,37,-95,-99,-65,-15,33,-190,249,30,2,29,3,74,381402
-102,15,34,15,-11,-33,-60,-147,38,-83,-261,-71,109,165,-49,23,89,117,122,-51,-115,-25,53,131,-117,188,127,92,122,100,257,381403
-102,9,39,1,-22,-32,-78,-54,0,-110,-48,-58,6,-34,1,-10,61,85,104,-72,-137,-38,25,115,-106,157,134,74,111,84,252,381404
-35,-13,24,1,-14,-20,-54,36,5,-100,-81,-61,56,-57,-31,11,12,32,2,-30,-8,-9,-27,39,-17,346,50,22,59,20,115,381405
75,10,19,25,21,4,48,92,-84,21,77,43,64,49,-38,63,-19,-20,-77,11,173,36,-51,-57,51,603,-71,-41,-20,-56,-140,381406
143,26,-14,24,20,-7,155,-53,-108,-139,266,40,80,-74,-19,122,-48,-45,-146,64,368,77,-72,-153,108,877,-144,-106,-118,-128,-198,381407
99,27,-7,33,9,-7,104,-122,-25,-42,331,-118,113,27,-45,82,-30,-16,-104,10,276,30,-55,-105,24,755,-68,-86,-102,-92,-154,381408
-57,7,53,11,-8,-12,-125,-125,124,46,172,-129,-9,21,-46,-84,-33,-27,27,-151,-109,-120,-34,18,-199,229,38,0,-37,-18,164,381409
-102,-26,54,-44,-28,-26,-228,-196,108,27,233,-107,-32,27,-55,-113,-13,-27,138,-165,-205,-129,4,93,-196,54,71,88,44,27,136,381410
-56,-17,78,-4,7,2,-160,-152,149,179,20,-5,-16,-87,-1,-107,3,4,109,-167,-223,-111,-6,96,-174,-22,78,91,59,30,123,381411
-57,4,47,52,11,-13,-8,-239,58,51,-41,-51,21,-256,-83,-133,-64,-47,-27,-224,-274,-168,-114,3,-229,-96,-13,-36,-35,-46,82,381412
-68,-12,18,33,-8,-46,41,-41,-129,-69,113,-128,8,-234,-64,-114,-103,-78,-78,-223,-215,-174,-141,-81,-233,-8,-95,-93,-107,-112,28,381413
-91,-12,33,-2,-21,-32,-78,23,-101,-147,100,-46,67,-22,-14,-88,-42,-14,13,-198,-247,-154,-57,-12,-236,-73,-10,-31,-48,-48,107,381414
-38,-1,38,-7,5,-9,-82,-6,79,0,-60,46,56,87,-35,23,51,76,85,-86,-130,-40,59,64,-151,34,58,48,37,21,34,381415
91,6,-18,-31,14,-10,0,60,75,-84,275,17,-57,126,7,161,4,25,-50,74,271,85,11,-68,45,590,-59,-32,-54,-51,-228,381416
101,8,-16,-59,5,-10,-78,83,-10,-38,46,156,-94,171,29,189,-9,-10,-97,106,376,105,-12,-96,91,761,-75,-56,-84,-59,-163,381417
41,-23,5,-74,-12,-25,-218,-78,23,139,17,68,23,89,-91,121,-10,-9,-37,45,239,43,-11,-41,32,606,-53,-9,-56,-33,-71,381418
-49,-44,42,-58,-23,-31,-251,38,42,191,146,-53,140,-10,-84,-15,4,-2,65,-57,-51,-45,0,38,-63,226,26,51,25,21,52,381419
-59,-16,51,-5,-10,-9,-39,170,22,67,-47,-7,-12,-311,11,-49,23,15,116,-73,-138,-53,27,86,-87,99,88,77,68,53,107,381420
-74,5,57,36,0,-4,-4,104,54,129,53,-74,59,-90,-18,-65,32,55,118,-92,-217,-75,33,118,-130,1,117,109,85,82,171,381421
-145,-13,39,16,-32,-41,-47,44,73,71,47,-70,-123,20,54,-94,34,51,79,-117,-291,-96,40,107,-167,-97,81,105,78,57,202,381422
-174,-12,27,18,-32,-47,-46,-196,144,28,192,-22,-136,97,49,-165,0,4,60,-163,-392,-147,10,65,-257,-210,40,70,25,4,170,381423
-142,-12,29,14,-21,-32,-26,-112,37,19,73,-55,-96,-41,-21,-164,-51,-36,44,-168,-376,-173,-42,28,-308,-189,49,29,-19,-24,147,381424
-79,-25,28,-13,-13,-12,-35,-388,-65,-102,51,-29,-135,75,-7,-97,-32,-28,88,-116,-264,-121,-3,26,-243,-55,56,26,-7,-26,79,381425
-50,-31,34,-16,22,23,-190,-320,-99,-33,-104,6,59,-78,-68,-122,-48,-58,102,-143,-310,-142,-27,21,-257,-123,44,6,-14,-33,69,381426
-44,-30,59,-5,41,46,-244,-12,2,138,-264,-226,46,-115,-67,-172,-55,-65,63,-185,-379,-185,-43,20,-278,-236,46,-12,-6,-17,131,381427
-59,-41,45,2,5,19,-122,11,-37,-37,-52,-112,-45,-65,-10,-118,31,20,159,-138,-364,-120,47,123,-177,-270,131,92,109,79,275,381428
-43,-10,23,27,2,0,46,-24,17,64,27,-47,2,-55,-33,-19,101,95,220,-39,-213,-7,114,170,-23,-124,162,175,185,127,153,381429
-87,-8,24,46,10,2,14,-26,57,64,-22,-54,-75,-184,42,-147,27,36,86,-189,-364,-136,11,68,-170,-328,69,55,66,30,175,381430
-74,-18,28,44,10,5,-22,-227,118,92,-44,-54,25,-173,17,-225,-44,-35,14,-281,-448,-218,-36,8,-248,-427,0,-6,-14,-45,150,381431
-79,-11,23,61,-6,-14,-15,-90,109,59,-136,-28,-35,-63,11,-188,-19,-23,76,-248,-420,-180,5,50,-211,-405,32,45,24,-13,140,381432
-101,-22,21,42,-3,-15,-57,-158,138,-28,-75,-43,-75,-139,67,-164,-17,-9,96,-229,-420,-164,3,66,-216,-433,48,53,28,-4,176,381433
-105,-33,21,2,-16,-13,-94,-200,33,-15,23,23,22,-200,-13,-100,27,33,131,-156,-354,-99,44,111,-121,-372,108,101,109,58,196,381434
-98,-33,7,-13,-12,-18,-103,-145,19,68,46,17,-71,-187,3,-79,19,35,103,-129,-305,-71,18,108,-59,-318,106,102,109,58,103,381435
-181,-37,7,-29,-29,-42,-230,-105,64,45,-205,-34,-324,-26,-37,-165,14,47,123,-206,-501,-154,-7,152,-166,-589,141,116,115,85,189,381436
-223,-67,15,-39,-45,-58,-312,-229,131,-69,-119,-30,-214,7,-37,-187,41,67,171,-204,-590,-172,29,180,-208,-737,163,142,155,114,188,381437
-192,-62,25,-37,-26,-38,-280,-325,137,-85,-87,36,114,-83,34,-172,28,47,135,-159,-545,-148,23,142,-166,-707,117,98,133,81,84,381438
-91,-31,24,10,3,2,-93,-232,73,31,-71,60,76,-51,5,-33,29,56,93,-25,-298,-22,29,97,-14,-387,67,84,117,53,69,381439
-62,-24,4,44,8,3,42,-121,38,34,54,70,-32,-267,16,-22,12,51,52,-24,-251,-16,1,72,-39,-323,40,43,71,12,88,381440
-56,-13,8,56,15,13,30,-26,43,-15,-12,-24,-149,11,15,-102,-45,-28,-11,-73,-258,-71,-16,-24,-108,-312,-54,-31,-8,-68,-21,381441
-30,-10,17,52,36,34,0,148,17,91,26,-9,-59,71,13,-78,-8,-3,30,-29,-204,-47,42,9,-66,-239,-14,9,22,-25,21,381442
-14,-9,9,34,33,30,-23,41,87,151,-23,48,156,0,11,-35,27,24,76,16,-146,-4,61,62,18,-165,61,59,60,12,30,381443
-50,-34,-15,-1,-4,-7,-77,-54,86,161,-286,-97,242,-77,-7,-21,57,59,92,18,-184,11,74,98,47,-245,83,89,94,58,115,381444
-35,-11,-5,21,2,-10,-33,93,17,180,-17,-63,48,-54,57,22,91,68,91,50,-127,49,107,106,99,-186,84,110,108,88,41,381445
-65,-16,-10,2,-17,-25,-37,129,44,67,59,-47,23,184,75,-20,64,34,93,-7,-165,14,82,98,49,-237,83,105,103,76,71,381446
-68,-17,-1,-10,-19,-27,-75,-87,165,55,59,71,46,149,29,-18,100,78,164,-7,-220,6,117,166,22,-345,150,167,157,126,207,381447
-85,-19,-22,-26,-22,-35,-121,-200,22,-25,-115,135,62,129,12,-39,75,69,161,-45,-270,-38,97,159,-57,-394,137,159,124,94,271,381448
-87,-25,-17,-34,-14,-15,-93,-161,-60,-95,-210,-5,-26,152,61,-35,59,68,140,-38,-219,-30,66,126,-78,-334,111,139,92,65,137,381449
-62,-20,1,-8,4,12,-60,-293,-133,-45,-201,39,-66,-201,6,-55,42,51,97,-52,-201,-39,32,86,-108,-270,80,91,39,43,44,381450
-50,-35,21,-5,4,22,-134,-81,-45,103,-185,-53,102,-127,-60,-84,37,46,96,-98,-277,-82,45,72,-150,-341,59,79,16,29,121,381451
32,-13,40,3,17,32,-101,109,128,32,-23,-11,113,38,71,11,71,85,135,-19,-122,5,103,87,-5,-140,77,121,61,52,103,381452
-23,-25,17,-14,-10,-10,-69,33,57,50,45,84,72,-94,89,22,110,103,153,-7,-110,47,121,125,33,-135,116,138,90,81,131,381453
-46,5,-5,4,-2,-17,64,-39,65,47,38,105,23,110,51,-11,44,33,42,-30,-118,7,51,52,12,-94,53,75,12,15,82,381454
-133,-5,-15,11,-11,-35,-31,-8,74,-129,54,106,28,188,-21,-131,-5,-8,33,-162,-331,-122,0,39,-135,-371,53,33,-21,-18,106,381455
-119,-4,-3,34,-2,-13,-76,-111,85,85,-174,2,-68,30,-45,-183,-29,-32,40,-187,-414,-162,-11,32,-187,-487,48,14,-21,-32,-6,381456
-34,3,10,44,30,24,62,-66,-3,-186,73,-87,31,-65,-35,-126,-28,-30,15,-96,-259,-86,-31,6,-98,-327,15,2,-14,-41,-50,381457
37,-6,0,43,25,53,177,-17,-18,-152,215,22,44,-136,2,-57,-34,-35,-18,-25,-116,-32,-21,-36,6,-162,-39,-42,-33,-56,-45,381458
41,-7,-16,30,9,25,140,126,21,-4,389,117,-25,-205,-53,12,25,11,23,54,-14,39,26,16,91,-74,5,4,15,5,-6,381459
26,6,-19,15,8,-2,2,64,-4,-72,-142,83,-91,96,18,79,78,70,78,117,50,106,81,74,137,-29,76,63,66,64,18,381460
23,14,0,2,5,1,-20,-193,-58,-77,81,38,-56,150,73,62,61,45,51,101,64,80,80,35,107,-4,49,45,19,24,29,381461
-32,-12,22,-29,-6,2,-104,-148,-60,-119,-43,-47,-4,99,79,-12,43,42,76,21,-91,10,57,64,-3,-230,69,60,22,29,55,381462
-22,-20,25,-44,-1,22,-115,-146,-13,-26,-155,29,-79,193,88,68,116,113,131,93,-45,84,114,150,67,-214,154,136,118,122,143,381463
-24,-21,22,-38,6,18,-119,-89,-9,5,-169,118,-30,5,87,71,146,138,154,95,-59,89,151,167,73,-256,145,169,137,139,144,381464
61,3,-15,16,27,22,27,108,14,86,72,141,37,-231,62,20,-24,-42,-72,50,58,31,-3,-74,66,-54,-109,-33,-84,-75,-221,381465
198,43,-48,43,40,24,317,223,41,124,221,122,-199,-10,122,191,-55,-93,-220,205,495,172,-41,-222,294,580,-230,-137,-195,-164,-495,381466
207,50,-56,10,17,14,340,265,3,-46,331,103,-249,78,116,272,-44,-64,-228,277,663,250,-41,-203,363,844,-207,-129,-179,-142,-530,381467
168,34,-45,-16,17,26,171,-48,-45,-133,128,38,-142,-40,63,169,-112,-114,-249,161,520,148,-135,-226,215,720,-234,-179,-210,-180,-470,381468
10,-9,12,-20,-1,16,-69,-149,61,-52,-52,-16,71,-191,53,-61,-103,-72,-147,-96,-6,-74,-150,-122,-97,57,-128,-150,-169,-143,-28,381469
-49,-16,21,12,-7,-1,-28,-151,129,-36,-245,7,-21,-83,3,-98,-62,-19,-57,-127,-181,-108,-97,-37,-146,-139,-35,-92,-96,-76,102,381470
-111,-1,25,46,-12,-11,9,-132,-17,7,-301,22,-24,10,-77,-83,12,40,83,-104,-268,-86,16,79,-147,-258,82,24,29,35,197,381471
-84,19,8,54,2,4,16,-22,-112,-18,-295,-100,-101,-37,-15,-34,16,40,84,-60,-184,-65,45,65,-88,-143,82,45,39,32,61,381472
-46,10,-7,32,9,17,-79,2,-72,-24,-80,-114,-104,-238,-15,-36,-28,-4,-10,-50,-108,-71,-4,-22,-74,-36,-2,-9,-22,-33,-111,381473
30,-11,18,-15,28,43,-180,45,-65,-66,-111,-99,-103,-125,-32,-42,-31,-19,-56,-20,-27,-37,-20,-53,-23,94,-39,-37,-49,-53,-80,381474
179,0,-12,-30,53,60,-11,218,-106,-2,15,36,-5,40,20,111,-9,-26,-84,137,353,105,-5,-110,220,610,-80,-53,-89,-65,-214,381475
430,75,-81,-7,70,53,504,240,-112,30,139,211,-137,292,79,424,-19,-51,-243,434,1128,383,0,-282,645,1667,-242,-142,-216,-158,-623,381476
451,117,-104,31,49,11,697,300,-253,-75,228,87,-233,114,80,454,-92,-117,-386,437,1337,389,-88,-406,659,1989,-348,-252,-351,-264,-774,381477
297,96,-74,27,27,-3,511,193,-229,-3,283,24,-123,-62,53,283,-123,-125,-405,239,984,207,-166,-359,375,1563,-304,-269,-362,-279,-471,381478
-20,40,11,19,-17,-29,58,-70,-26,27,-99,-151,34,-102,81,-14,-24,29,-128,-69,141,-47,-77,-62,-85,375,-38,-80,-132,-82,85,381479
-74,13,56,1,-2,-7,-148,-130,145,-8,156,-73,17,-30,14,-43,42,100,32,-85,-75,-69,-8,61,-118,7,67,28,-2,31,190,381480
-50,-11,5,-35,-19,-34,-157,-131,117,-138,13,8,17,-124,20,-19,4,28,25,-37,-8,-60,-24,4,-77,80,9,-9,-38,-9,36,381481
13,-2,-3,-24,-7,-6,-87,-269,35,45,-152,46,75,-79,-13,-20,-37,-67,18,-17,56,-46,-43,-52,-43,172,-31,-44,-82,-43,-92,381482
33,-15,12,-24,4,19,-114,-80,-19,85,-86,-26,-127,-159,-63,-67,-80,-122,-15,-50,27,-59,-60,-71,-69,136,-84,-85,-105,-79,-120,381483
42,4,24,-5,13,20,-114,63,54,-13,50,-6,85,-28,-38,-37,-26,-57,-9,-20,30,-11,-10,-36,-25,125,-74,-62,-51,-40,-55,381484
198,48,-33,-7,19,7,110,74,-79,88,65,162,73,295,26,210,11,-27,-80,220,538,219,21,-116,280,805,-114,-79,-87,-50,-352,381485
441,92,-115,-47,27,8,462,207,-147,-69,353,223,-60,321,128,543,-46,-88,-336,530,1406,481,-41,-355,689,2017,-306,-201,-287,-202,-839,381486
451,91,-107,-77,34,16,523,388,-194,-89,322,205,32,390,168,601,-58,-90,-384,546,1596,507,-68,-392,700,2343,-348,-229,-342,-249,-862,381487
324,80,-48,-78,27,12,354,172,25,17,-4,153,-160,153,105,457,-73,-80,-343,368,1293,358,-87,-335,446,1999,-296,-224,-340,-249,-547,381488
-61,10,33,-64,-32,-40,-137,-79,13,-23,-211,-140,-68,-78,-38,40,-22,26,-87,-69,218,-34,-58,-46,-175,584,-20,-88,-147,-78,181,381489
-109,15,28,-13,-36,-42,-153,61,-10,31,-249,-243,46,-62,-105,-35,4,32,-11,-114,-51,-105,-30,15,-277,232,41,-38,-66,-16,203,381490
-111,19,15,-14,-33,-42,-145,-21,-21,-230,-106,-211,58,-50,-62,-42,35,47,66,-96,-129,-94,-7,80,-264,106,85,30,20,33,206,381491
-78,13,25,3,-23,-31,-114,-14,-78,-161,-40,-220,131,-23,-29,-25,59,64,124,-60,-106,-48,26,131,-174,123,129,93,82,86,145,381492
-85,22,39,42,-11,-16,-69,41,100,-54,-133,-225,12,95,-39,-52,64,70,151,-78,-170,-52,40,165,-167,37,177,118,113,125,184,381493
-173,-1,33,32,-41,-49,-126,-132,123,56,-350,-124,48,-17,-87,-120,56,62,183,-160,-355,-117,22,190,-251,-210,203,109,118,144,239,381494
0,21,20,14,-5,-14,56,-21,-82,-6,-77,-5,104,-2,67,32,-3,-17,15,8,74,2,-21,13,23,375,44,-20,-2,47,-54,381495
134,28,13,1,17,20,149,191,-148,-21,8,12,107,80,43,163,21,-18,-38,138,407,144,16,-47,237,817,-29,-26,-36,-1,-176,381496
147,39,7,8,25,44,170,131,1,50,-21,-33,208,33,6,169,6,-26,-28,138,470,146,21,-61,259,906,-66,-10,-69,-38,-177,381497
74,41,11,21,23,29,151,-39,143,-69,-185,-126,22,1,23,82,-16,-11,-18,62,311,62,3,-60,122,716,-50,-17,-67,-49,-112,381498
-75,35,33,30,-3,-7,13,-107,76,-215,-150,-111,-44,111,87,-19,47,63,91,-46,-43,-27,26,86,-62,224,84,51,44,56,172,381499
-118,8,30,12,-26,-31,-126,-373,-24,-95,-297,-109,204,48,18,-54,28,20,67,-70,-134,-66,-13,65,-99,99,65,35,51,46,130,381500
-82,-7,38,9,-9,-12,-160,-49,7,-103,-59,-86,-12,-1,-24,-53,-42,-59,-12,-64,-85,-80,-86,-13,-98,167,-17,-43,-15,-33,36,381501
-62,-14,39,14,-12,1,-223,29,89,-72,-41,45,8,21,-41,-32,-34,-10,16,-56,-90,-62,-86,9,-91,150,16,-33,10,-15,48,381502
-12,-5,39,-2,1,9,-272,268,97,-56,43,-16,148,-11,3,47,47,83,91,13,-32,6,-6,78,-7,185,86,56,91,65,104,381503
37,-9,31,-16,18,26,-243,195,-8,-47,-50,-133,-126,32,-74,9,28,44,23,-7,-35,-11,-7,15,0,193,7,8,29,-1,2,381504
-18,-16,52,-11,12,29,-182,29,97,93,-179,-87,113,41,-53,-76,13,23,39,-87,-178,-86,16,37,-87,-16,25,24,37,-6,56,381505
-140,-14,68,18,-12,6,-82,-244,145,-67,-261,-124,-21,-121,-19,-170,41,52,114,-172,-452,-173,59,122,-226,-412,121,85,110,54,221,381506
-211,7,69,64,-9,-4,-62,-313,16,-130,-217,-46,-176,-72,-8,-225,54,66,184,-226,-644,-201,72,186,-302,-699,168,127,170,96,338,381507
-161,9,48,67,6,4,-87,-132,12,-113,-221,-22,-35,-19,-50,-205,32,40,146,-193,-569,-169,58,140,-243,-630,109,89,109,57,235,381508
7,13,5,31,20,29,25,-3,-35,-50,-198,108,-17,58,-10,-87,-62,-79,-35,-79,-185,-78,-35,-60,-60,-92,-58,-58,-56,-66,-159,381509
56,13,32,5,23,49,54,-3,19,-123,81,95,-13,-21,-17,-19,-47,-56,-39,-41,-56,-20,-19,-59,9,63,-60,-53,-49,-57,-97,381510
-8,10,43,2,2,26,43,-14,87,50,240,75,-149,-132,-1,-48,6,8,19,-69,-125,-16,6,21,-37,-74,9,-5,15,8,71,381511
-70,-8,23,-19,-19,-6,32,-81,133,34,335,87,-33,-55,-12,-122,-45,-35,-25,-152,-241,-86,-74,-2,-183,-223,-20,-49,-38,-13,70,381512
-36,8,25,12,14,22,-22,40,57,70,170,-28,-41,44,-43,-167,-112,-106,-64,-201,-254,-129,-119,-67,-243,-216,-80,-83,-97,-52,-23,381513
22,20,33,54,47,45,-55,152,8,105,170,-150,35,25,-21,-139,-108,-107,-55,-174,-178,-109,-98,-79,-198,-111,-100,-97,-119,-52,-40,381514
-137,1,88,70,16,23,-161,-16,63,45,-74,-131,106,-21,-27,-177,53,68,222,-204,-511,-133,76,181,-329,-593,145,108,112,153,433,381515
-353,-49,117,66,-36,-22,-338,-173,103,-64,-82,-56,267,-78,-18,-342,113,128,415,-347,-1027,-274,129,366,-549,-1314,317,227,285,277,684,381516
-406,-65,91,41,-49,-30,-397,-243,92,148,-137,-89,226,-56,24,-406,87,99,408,-391,-1196,-334,98,366,-571,-1541,330,207,289,275,703,381517
-311,-34,73,48,-19,-9,-307,-5,-13,189,-11,-16,85,110,44,-310,116,115,383,-278,-1035,-255,142,353,-441,-1346,328,228,299,281,550,381518
-91,1,21,33,25,23,-83,176,36,-8,33,19,-102,256,8,-179,44,11,177,-123,-576,-159,80,136,-205,-705,132,120,123,121,132,381519
-39,-4,-1,12,16,23,-58,165,-50,-137,45,33,-75,159,-64,-175,-5,-61,94,-122,-454,-167,68,36,-110,-507,33,83,39,21,10,381520
-54,-13,13,-2,4,30,-78,-109,-75,-15,36,70,26,10,-52,-96,80,47,143,-52,-433,-80,129,135,-9,-513,123,154,139,93,167,381521
-11,-16,7,11,12,35,-15,53,36,-9,243,36,139,-121,17,-61,78,66,81,-25,-380,-58,103,95,14,-456,94,101,113,64,154,381522
-34,-2,-5,51,5,0,57,-41,5,-106,233,34,58,-117,-14,-136,-9,-4,-13,-109,-464,-148,15,-2,-128,-539,5,4,-4,-51,83,381523
-73,16,9,78,2,-10,78,51,33,-50,73,109,11,-38,53,-161,-1,2,33,-133,-506,-175,24,18,-187,-597,45,18,9,-49,144,381524
-252,-35,46,29,-36,-29,-162,-12,7,-47,-30,-51,-7,-125,-6,-274,40,70,159,-259,-864,-279,29,171,-390,-1130,203,105,133,45,480,381525
-395,-65,105,26,-30,-19,-505,-113,66,4,-237,-94,39,-145,-50,-440,110,167,381,-405,-1390,-396,107,386,-600,-1918,389,263,315,208,815,381526
-402,-81,96,35,-24,4,-575,-177,78,60,-397,-42,59,-61,-78,-447,137,163,454,-408,-1454,-385,147,433,-563,-2084,424,330,379,238,738,381527
-332,-78,73,41,-25,1,-443,136,91,5,-156,-44,51,18,-27,-362,160,153,448,-310,-1252,-278,188,385,-403,-1909,369,339,365,236,486,381528
-114,-34,3,45,6,15,-144,246,52,-95,28,87,-20,74,15,-168,96,50,213,-126,-674,-87,145,150,-89,-1169,140,193,185,94,124,381529
-22,-9,-1,37,27,25,-48,54,56,-30,97,149,50,134,35,-72,93,46,173,-64,-413,4,159,119,46,-862,103,170,155,84,84,381530
-6,-8,10,68,40,46,-6,60,83,-80,222,77,23,102,70,-78,65,27,150,-89,-339,2,126,101,64,-800,74,135,121,76,32,381531
-100,-36,-1,43,12,23,-47,-44,-9,2,-41,17,42,135,12,-169,53,16,138,-165,-474,-47,83,114,-34,-1015,68,108,107,81,81,381532
-54,-16,-1,1,26,47,27,102,3,140,30,68,124,350,-22,-104,51,15,112,-106,-337,7,83,72,42,-824,-5,73,74,70,-2,381533
-105,-37,-16,-19,-5,8,-72,-16,4,48,9,132,-42,284,10,-103,87,51,163,-130,-395,17,119,123,7,-940,39,103,126,122,87,381534
-237,-60,1,5,-34,-32,-378,-285,80,99,-200,-94,-145,85,-51,-248,113,98,249,-235,-761,-95,148,243,-185,-1437,161,177,217,188,400,381535
-396,-83,50,1,-36,-40,-692,-333,103,128,-272,-151,23,-37,-131,-436,122,127,371,-394,-1289,-288,127,377,-447,-2140,304,256,321,269,736,381536
-423,-112,62,-15,-42,-19,-690,-186,230,264,-106,22,51,20,-62,-438,165,171,450,-373,-1420,-309,187,444,-458,-2319,391,329,390,323,731,381537
-279,-72,42,46,1,5,-330,-130,161,104,-51,87,-24,-45,93,-295,163,140,406,-200,-1114,-186,217,376,-241,-1910,344,317,366,297,371,381538
-67,-33,-27,50,24,15,43,-79,-54,91,-149,143,-72,54,41,-142,28,-26,144,-17,-586,-60,116,112,21,-1124,107,128,147,93,-21,381539
13,-11,-24,39,41,38,112,120,-45,59,-147,69,24,115,32,-121,-18,-55,13,1,-456,-76,43,18,6,-892,32,27,33,6,-18,381540
9,-25,-34,41,37,47,41,116,54,23,21,43,-35,-5,-57,-160,-23,-35,-2,-31,-498,-116,13,9,-65,-915,31,6,12,-12,-32,381541
32,-1,-35,69,50,57,172,117,-15,65,48,15,-123,-29,-21,-100,-33,-31,-49,20,-373,-89,-9,-22,-9,-725,8,-10,7,-29,-69,381542
20,23,-20,90,41,52,253,105,21,-27,-234,19,14,139,-27,-86,-38,-38,-81,33,-311,-79,-40,-52,28,-623,-13,-33,-17,-50,-118,381543
27,10,-20,55,36,50,194,-5,6,43,-97,76,-149,202,-28,-42,-14,-13,-48,70,-232,-36,-9,-14,64,-533,32,-7,12,-10,-62,381544
-3,-21,-9,10,21,41,23,-113,52,-56,5,87,-262,125,-10,-38,30,49,49,69,-283,-20,26,94,55,-628,129,84,96,73,63,381545
-84,-31,11,8,16,38,-200,155,29,-95,-178,-3,-18,-158,-93,-190,-18,2,78,-86,-550,-148,-2,77,-140,-991,71,64,67,25,180,381546
-94,-33,27,24,26,34,-265,114,85,27,-151,-67,104,-76,-28,-197,-7,5,103,-114,-594,-159,24,73,-164,-1087,59,65,60,35,211,381547
-60,-32,10,21,9,11,-159,173,115,108,-22,55,138,55,69,-105,84,73,155,-15,-431,-47,106,136,-55,-951,119,120,125,126,310,381548
60,12,-38,52,28,8,123,83,67,149,351,235,48,-25,142,67,110,79,102,164,-4,155,148,72,176,-440,46,106,103,126,-13,381549
71,20,-56,62,34,10,173,83,-112,210,303,85,62,51,60,32,45,1,19,112,78,165,81,-4,148,-372,-52,35,28,64,-151,381550
125,15,-46,46,53,35,161,221,-82,63,64,87,80,86,16,49,-9,-41,-48,88,185,180,12,-68,169,-248,-123,-36,-44,21,-214,381551
94,4,-26,34,46,40,69,9,83,-21,297,193,-49,132,75,56,28,0,-4,78,157,200,19,-17,158,-309,-74,-13,-5,66,-38,381552
63,-29,-39,3,9,15,6,-24,30,158,121,265,-62,122,92,45,58,17,47,74,123,204,30,43,163,-367,-23,16,40,112,-18,381553
39,-23,-33,-5,4,15,45,-106,12,67,31,152,-39,50,131,32,45,2,64,62,141,173,42,35,160,-350,-16,32,33,94,-71,381554
-110,-14,-2,26,-19,-6,-60,86,83,114,-60,-36,-4,-89,46,-144,28,9,99,-99,-234,1,30,81,-58,-826,39,69,49,87,157,381555
-343,-43,40,49,-57,-43,-300,-153,35,58,55,-146,205,-175,-17,-347,88,79,272,-275,-863,-200,85,275,-369,-1663,227,187,200,215,541,381556
-385,-75,37,30,-65,-63,-414,-247,54,-63,-116,-30,-10,-53,-27,-374,159,164,391,-266,-1108,-244,173,397,-427,-1980,357,269,320,323,672,381557
-240,-75,10,-26,-41,-46,-328,-15,73,38,-246,89,29,147,-13,-223,186,177,369,-89,-848,-113,212,361,-172,-1622,346,279,336,334,509,381558
46,-33,-41,-2,14,6,44,104,-2,134,274,244,69,86,6,30,81,46,138,177,-133,92,129,97,234,-608,116,119,143,159,-69,381559
135,2,-46,32,42,46,256,102,10,126,383,145,-56,20,-13,35,-60,-78,-105,179,85,66,-8,-112,250,-202,-69,-74,-73,-32,-316,381560
112,16,-35,31,39,43,260,153,6,-90,172,-14,40,17,9,-8,-53,-58,-131,119,5,9,-32,-107,165,-248,-59,-94,-91,-47,-171,381561
96,20,-33,20,28,18,288,34,-84,-107,103,-31,-133,122,35,-13,-54,-67,-171,109,13,-12,-33,-139,154,-187,-108,-109,-120,-73,-219,381562
90,17,-57,21,8,-3,319,5,-45,-52,336,17,-82,-5,18,3,-47,-47,-144,126,42,1,-11,-119,161,-130,-80,-72,-95,-38,-167,381563
70,30,-60,52,12,-11,334,-94,-1,-121,320,17,-32,-125,16,20,-49,-69,-107,126,54,-4,-21,-84,140,-92,-45,-43,-70,-23,-113,381564
-59,3,-13,49,5,4,126,-154,52,-63,90,-84,52,-79,33,-127,-44,-49,-32,-32,-283,-129,-37,7,-77,-555,9,-9,-27,21,125,381565
-234,-55,43,35,-13,1,-207,-378,70,77,-204,-84,47,-60,-5,-294,59,55,221,-202,-805,-249,44,241,-319,-1321,225,136,166,190,523,381566
-286,-73,43,26,-34,-30,-313,-260,84,100,-2,-116,-26,-92,-86,-366,76,90,280,-253,-1002,-272,72,289,-387,-1666,277,167,218,240,568,381567
-179,-50,11,44,-10,-1,-173,-174,-52,137,-29,-74,89,-133,-80,-326,-19,-23,103,-205,-814,-238,-32,104,-296,-1419,109,32,92,131,196,381568
128,10,-43,50,47,49,176,111,-76,161,142,94,0,59,8,4,-63,-104,-93,120,38,68,-61,-123,140,-326,-118,-85,-55,-3,-332,381569
141,1,-38,7,41,31,144,86,22,145,55,105,126,256,31,115,-12,-34,-33,194,283,205,-7,-87,225,-81,-88,-41,-40,29,-283,381570
134,7,-44,0,39,25,134,57,-20,226,-65,129,19,164,82,151,9,-22,-37,202,392,252,15,-106,244,31,-108,-54,-56,35,-275,381571
121,12,-35,3,34,29,72,52,-85,175,-20,127,15,170,10,112,-16,-37,-49,152,375,217,0,-134,179,-8,-125,-74,-83,19,-160,381572
103,15,-24,13,17,17,39,-135,-54,28,47,104,37,123,-7,87,11,-6,-13,137,321,186,21,-87,123,-103,-88,-50,-65,44,-101,381573
137,31,-28,23,27,26,151,17,22,95,319,172,32,136,67,130,0,-14,-64,188,452,217,27,-133,185,81,-131,-65,-84,15,-211,381574
-3,-7,0,2,-2,19,23,-263,104,54,341,191,-109,27,33,-36,2,-4,-6,10,58,46,4,-46,-28,-422,-53,-15,-30,56,-17,381575
-182,-37,30,2,-25,6,-106,-205,111,10,-96,29,-166,-120,-44,-207,32,49,127,-147,-468,-124,19,104,-238,-1101,122,76,114,164,310,381576
-190,-29,24,12,-27,-14,-106,-95,12,-48,-142,-83,-279,-47,-42,-221,35,37,135,-140,-564,-135,28,114,-199,-1199,154,95,167,182,296,381577
-89,-19,-15,1,-21,-14,-110,-45,-182,-77,-77,-64,-91,75,-90,-127,18,-7,68,-33,-330,-52,21,-2,3,-861,52,57,101,114,122,381578
150,6,-47,21,31,31,75,111,-107,-20,69,-33,-7,0,-26,66,-35,-64,-116,168,187,109,-24,-197,307,-98,-102,-56,-37,-3,-225,381579
181,16,-57,38,37,26,205,127,68,179,-115,52,-74,76,7,136,4,-6,-99,217,308,167,3,-184,323,110,-51,-42,-42,23,-216,381580
107,12,-41,14,4,-7,212,51,-2,223,-216,137,-72,171,89,118,48,37,3,182,207,135,63,-121,239,22,34,21,16,83,-114,381581
103,25,-49,0,16,-21,198,101,-43,157,-121,85,-18,-8,52,120,45,34,7,192,214,120,58,-117,227,66,57,33,25,107,-98,381582
81,11,-82,-14,-7,-40,205,-186,-127,132,76,49,-31,-200,38,126,32,10,-27,191,273,113,48,-160,257,166,19,5,5,87,-187,381583
55,3,-87,-30,-30,-46,204,-33,-161,121,126,161,-13,-4,127,152,58,40,-8,207,314,148,84,-166,287,225,18,38,30,101,-132,381584
76,20,-67,-11,2,-20,209,178,-110,29,64,175,-20,153,86,143,40,30,-60,206,357,158,53,-218,266,291,-29,11,-20,57,-139,381585
105,32,-29,21,26,2,150,140,-110,117,177,96,40,162,38,119,-2,-1,-72,175,344,135,-1,-250,205,277,-49,-14,-57,47,-142,381586
136,16,-45,-1,20,-4,161,117,-75,176,182,53,55,-20,-14,107,-64,-51,-156,148,385,106,-58,-361,172,367,-131,-107,-145,-13,-218,381587
137,20,-38,3,18,5,170,62,39,135,106,-29,-1,-4,-14,157,-30,-10,-139,178,416,153,-49,-323,191,406,-58,-83,-87,31,-153,381588
96,6,-23,-26,11,-3,53,5,-16,63,153,-32,-100,45,-18,128,-44,-40,-118,137,378,131,-73,-331,156,343,-62,-83,-74,26,-183,381589
35,-24,-39,-68,-25,-31,-116,5,1,-84,-97,-36,-202,105,11,104,-52,-49,-103,117,354,115,-86,-373,87,287,-87,-91,-97,18,-175,381590
56,-6,-41,-86,-15,-23,-144,147,-47,-123,-54,46,-127,208,52,190,-5,-5,-62,200,497,192,-35,-365,143,417,-66,-50,-59,46,-176,381591
101,15,-36,-79,2,-14,-86,188,-7,-49,-29,91,-36,163,46,226,46,54,-33,244,573,243,40,-328,223,497,-42,-31,1,80,-124,381592
105,3,-36,-45,9,-17,73,8,4,-151,-89,9,-126,-17,64,176,41,38,-68,199,501,204,37,-315,235,403,-37,-37,7,70,-90,381593
132,28,-38,19,11,-4,306,87,-133,94,-29,48,-176,-120,-11,158,-5,-19,-100,185,494,176,-17,-327,248,410,-88,-33,-15,33,-179,381594
256,66,-42,52,46,37,548,160,-159,129,166,76,47,26,-3,234,-86,-101,-223,252,744,224,-95,-440,356,777,-215,-123,-123,-58,-476,381595
402,91,-60,43,76,80,651,238,-113,91,195,-26,-89,-61,79,334,-142,-154,-413,339,1101,298,-142,-620,491,1332,-382,-264,-285,-197,-650,381596
409,95,-63,37,74,70,557,157,-59,-50,39,88,-102,-142,-25,328,-168,-175,-459,332,1159,269,-182,-672,471,1471,-416,-305,-342,-249,-640,381597
340,79,-53,24,50,48,370,198,-26,17,8,-5,-116,4,-73,236,-204,-201,-456,239,1016,180,-226,-669,350,1358,-406,-312,-367,-259,-518,381598
134,33,-9,-19,5,8,81,-4,-26,-84,-419,-90,-156,58,-33,108,-83,-61,-233,111,594,85,-123,-447,132,798,-186,-169,-191,-96,-146,381599
59,3,-10,-54,-30,-21,28,-159,-154,34,-94,-99,-24,86,69,139,7,42,-86,141,487,108,-48,-311,136,637,-45,-70,-38,52,-41,381600
82,16,-3,-37,-16,-5,111,-14,-48,136,138,-3,-112,91,81,145,-40,-18,-122,141,526,101,-76,-360,155,713,-97,-97,-83,26,-114,381601
71,13,-3,-46,-11,-4,60,-161,-25,8,-23,-13,2,131,33,116,-64,-48,-117,119,483,80,-98,-374,126,688,-104,-95,-92,9,-171,381602
70,5,7,-50,-4,0,-12,14,-85,122,-56,-35,63,-92,69,108,-58,-51,-90,114,451,80,-72,-365,128,647,-100,-74,-69,21,-172,381603
82,0,-17,-50,-6,-3,-12,-10,-42,172,56,-174,95,-154,-48,79,-121,-118,-165,76,454,42,-134,-450,108,686,-178,-150,-144,-42,-347,381604
127,16,-33,-36,4,-6,41,-90,20,49,-56,-159,67,-238,-60,132,-85,-98,-174,117,543,87,-96,-469,157,832,-172,-165,-151,-33,-304,381605
235,34,-56,-48,15,-5,218,-23,-2,60,122,9,30,50,42,289,-78,-101,-259,276,904,229,-101,-541,371,1334,-212,-197,-184,-51,-504,381606
273,41,-35,-47,27,8,309,62,-8,155,341,27,-54,-25,109,338,-52,-74,-261,325,1022,281,-76,-527,420,1507,-204,-183,-170,-41,-460,381607
238,64,-21,-24,22,11,351,-87,-205,67,273,-3,0,-128,46,266,-95,-107,-285,240,923,217,-128,-551,311,1424,-240,-206,-210,-81,-384,381608
74,31,7,-35,-17,-13,161,-198,-112,-14,4,-71,-55,-108,-86,90,-79,-68,-163,45,489,51,-112,-444,51,849,-136,-143,-133,-26,-95,381609
34,16,22,-24,-15,2,95,-217,-39,-83,-194,-76,-101,-69,-22,68,-31,-12,-58,10,318,17,-69,-357,1,611,-37,-59,-38,37,-13,381610
53,19,17,-23,-15,-2,140,128,91,-141,52,-66,-21,26,-36,77,-36,-19,-88,31,314,25,-76,-382,6,621,-36,-69,-38,21,-27,381611
37,30,26,-2,-13,-17,140,11,29,-101,111,-122,2,-19,-22,44,-81,-55,-106,-9,235,-32,-98,-436,-52,552,-64,-101,-79,-21,-84,381612
8,39,26,23,-6,-29,100,-43,-14,-116,56,-128,92,-359,5,35,-66,-45,-98,-31,173,-49,-82,-459,-98,461,-48,-82,-71,-28,3,381613
24,28,19,1,-14,-30,64,-8,3,-97,52,-247,185,-182,-20,64,-47,-20,-133,5,217,-19,-89,-471,-57,512,-35,-82,-62,-48,-56,381614
147,29,-18,-50,2,-4,231,146,4,-163,-65,-3,198,59,35,221,-72,-53,-222,149,598,118,-108,-585,155,1035,-135,-138,-136,-114,-366,381615
352,55,-55,-72,46,41,492,141,-97,-298,84,121,-92,105,145,431,-109,-104,-384,357,1192,310,-139,-755,448,1856,-305,-238,-267,-203,-671,381616
418,86,-35,-28,75,59,497,146,-224,-206,21,23,-56,98,94,431,-150,-146,-464,343,1315,299,-202,-795,441,2046,-370,-307,-355,-243,-626,381617
240,49,-15,-58,5,15,223,98,-196,-61,-17,-20,-9,-28,-75,280,-160,-144,-391,176,988,143,-226,-684,194,1629,-308,-282,-331,-209,-400,381618
40,23,21,-64,-28,-19,-60,-139,-12,-146,-215,-88,-23,106,-18,170,-42,-3,-109,63,567,63,-110,-400,0,1000,-79,-87,-113,-12,-58,381619
-35,9,-8,-79,-62,-68,-79,-131,-64,-279,205,43,-94,-18,-21,171,37,57,40,88,507,109,-4,-278,36,862,-6,19,6,74,34,381620
-15,27,-2,-79,-51,-77,11,-134,-30,17,78,47,-156,20,-6,208,50,45,32,142,577,162,32,-270,124,922,-16,20,22,96,-24,381621
-6,9,25,-85,-41,-53,-50,19,12,87,409,35,69,-78,25,167,31,18,2,108,495,149,6,-264,80,795,-27,-9,13,87,32,381622
7,-7,40,-76,-6,-15,-154,45,-24,28,156,-88,-7,-91,13,93,-48,-45,-67,36,401,76,-83,-323,-9,687,-91,-85,-54,15,-21,381623
17,-6,36,-30,1,-7,-178,184,-4,45,57,-218,51,-115,-25,26,-114,-94,-126,-38,309,-7,-156,-381,-80,585,-164,-147,-125,-53,-122,381624
-16,5,20,-8,-26,-28,-56,86,-72,-120,113,-158,105,-143,-13,56,-22,-9,-10,-13,261,39,-59,-286,-46,492,-61,-47,-16,39,75,381625
-33,1,12,-17,-44,-37,29,-8,85,-135,162,-14,101,21,21,111,80,88,54,45,257,109,30,-176,34,468,63,35,92,143,216,381626
-66,10,26,-18,-38,-32,-23,-123,39,-159,-134,10,77,-41,-44,58,79,80,73,3,132,46,19,-154,-25,332,86,53,106,142,221,381627
-104,2,26,-15,-34,-44,-113,-3,-24,-130,-116,32,-175,118,-51,8,62,82,107,-54,-7,-19,41,-145,-79,156,92,76,112,119,178,381628
-86,-16,10,-30,-27,-28,-130,7,70,-202,-303,-74,-99,127,-13,9,37,62,79,-45,-23,-37,23,-152,-34,179,108,69,107,93,103,381629
-34,0,30,-14,1,15,-49,-63,-7,-227,-189,-86,109,-75,89,31,-1,30,-7,-25,14,-50,-15,-203,25,311,80,27,65,46,71,381630
-78,-11,37,-5,-24,-7,-85,-273,-9,-6,-207,-132,23,-303,53,-49,-8,25,-8,-107,-173,-151,-20,-195,-67,135,98,38,60,13,178,381631
-79,-12,26,-6,-32,-18,-76,-5,-13,48,-323,-243,136,-377,-22,-67,17,29,12,-120,-263,-181,29,-175,-92,37,108,64,81,15,183,381632
-44,-10,32,-13,-12,-9,-76,70,42,-5,-26,-76,15,-133,12,-35,12,30,-3,-90,-230,-157,32,-212,-109,129,93,43,58,2,152,381633
-38,-7,44,-12,-5,-5,-140,292,64,-50,178,-2,84,-93,2,-5,52,77,21,-49,-204,-116,46,-190,-139,150,118,48,83,31,244,381634
-84,-40,27,-63,-21,-22,-309,138,-49,-138,-90,-120,41,-135,-42,-12,61,82,46,-64,-229,-108,39,-183,-183,81,128,39,94,46,306,381635
-167,-44,57,-57,-28,-23,-536,32,192,46,-270,-80,69,64,13,-78,106,139,181,-134,-425,-135,93,-58,-269,-287,213,123,183,135,419,381636
-148,-52,45,-64,-28,-25,-555,59,113,127,-131,-50,217,138,12,-86,81,84,147,-125,-356,-110,80,-116,-230,-292,136,83,147,88,242,381637
-61,-45,27,-39,-12,-1,-371,50,43,40,84,-18,88,-29,37,-27,52,41,108,-68,-184,-43,40,-167,-154,-134,99,49,113,78,74,381638
38,-22,4,-6,14,23,-8,146,10,82,252,48,-68,-225,-19,71,13,-3,26,15,91,48,2,-246,-28,172,23,8,51,49,-35,381639
74,7,25,23,32,37,69,264,113,66,239,9,-14,-214,-17,67,-11,-25,-12,16,146,56,-23,-277,-11,195,-43,-7,31,11,-71,381640
84,1,-3,17,33,33,20,45,36,-41,202,-47,-31,-156,-61,103,-1,-11,11,57,247,110,-6,-243,51,270,-63,27,43,20,-186,381641
45,-4,-3,23,14,19,-47,106,51,5,11,-8,-70,-131,-55,59,-5,-13,37,1,179,75,-13,-197,-14,123,-45,21,23,16,-46,381642
52,22,8,23,20,12,-5,240,52,126,42,18,93,183,25,105,18,6,48,39,247,106,15,-158,29,189,-25,34,33,39,6,381643
33,14,17,-3,7,3,5,-31,14,111,55,38,-88,283,31,116,41,38,71,44,238,107,37,-128,43,168,-15,53,44,62,36,381644
18,12,10,-12,-1,-6,10,93,-25,-10,-19,40,-60,181,-5,90,14,2,36,12,184,49,21,-150,20,124,-34,18,17,20,5,381645
-39,12,-14,-4,-21,-35,12,28,-95,-22,-281,-76,21,-74,-55,33,5,7,2,-38,69,5,14,-156,-37,24,-34,-7,10,-2,23,381646
2,20,-11,5,-4,1,38,6,-15,5,-331,2,-88,51,-70,38,0,-5,-55,-8,122,11,5,-182,7,129,-70,-29,-2,-27,-32,381647
-15,-10,-11,-32,-17,-10,-69,-141,-33,-76,72,11,27,145,-65,15,7,-14,-48,-26,79,-17,16,-166,7,118,-65,-13,6,-44,4,381648
-71,-18,-3,-32,-45,-32,-149,-112,-28,-141,-62,71,130,-6,-21,-6,60,50,36,-35,-47,-35,66,-54,2,17,58,76,94,32,169,381649
-31,-2,-33,-35,-33,-37,-83,25,-116,20,19,53,114,56,16,-27,24,15,-26,-24,-38,-75,40,-80,27,145,33,41,54,-8,76,381650
-57,-29,-15,-52,-33,-32,-120,-172,-144,-37,-91,-54,98,-27,-31,-103,-24,1,-52,-95,-209,-169,-15,-78,-77,41,59,1,14,-39,112,381651
-42,-30,4,-27,-17,-5,-19,-87,23,-37,-42,21,38,-101,-15,-47,-7,10,-36,-42,-180,-126,-2,-63,-55,148,70,19,24,-41,17,381652
-8,10,-11,20,-11,0,89,34,-74,-74,-202,20,27,-237,-36,-15,-24,-17,-74,-8,-88,-93,-36,-126,-48,300,-10,-14,-9,-101,-141,381653
20,27,-3,11,8,15,10,-79,-80,-104,-257,-103,17,-170,-82,-31,-30,-24,-91,-36,-122,-109,-53,-148,-97,274,-25,-44,-26,-101,-63,381654
83,16,-23,2,7,-3,29,216,-91,34,0,-136,-39,-98,-35,24,-63,-58,-144,17,58,-54,-71,-222,-11,515,-93,-98,-82,-141,-177,381655
174,23,-43,4,12,-16,181,186,-102,5,194,13,-103,-68,-39,103,-82,-97,-191,93,348,22,-81,-291,129,847,-174,-141,-149,-201,-334,381656
151,38,-39,9,9,-8,251,66,-68,85,143,38,70,-153,-32,154,-35,-36,-128,110,430,85,-9,-247,150,881,-148,-88,-123,-162,-268,381657
94,45,-9,10,8,5,226,-134,55,-13,72,68,198,-129,74,191,49,62,-49,123,417,152,57,-138,133,742,-63,-11,-21,-67,-154,381658
-29,25,6,-27,-22,-20,-9,-97,-7,-72,46,30,132,7,-18,79,43,62,8,-7,148,69,35,-71,-47,271,-17,13,35,-23,36,381659
-52,17,8,-30,-25,-27,-99,32,-41,-170,-54,-137,113,16,6,12,-8,14,-4,-70,34,8,-9,-92,-117,72,-17,-18,1,-42,32,381660
-1,31,15,16,13,13,-55,-18,-11,-219,94,-122,108,101,-40,-4,-14,6,-5,-78,46,-19,-25,-114,-114,9,-15,-21,-19,-52,25,381661
26,40,2,33,7,12,-6,-43,-33,-233,-82,-97,37,-25,-85,31,-5,8,7,-62,130,1,9,-130,-59,64,-55,-3,-39,-52,-9,381662
-2,30,3,7,-13,-24,2,-84,-78,-206,-477,-108,-85,152,-114,3,-4,-21,18,-91,74,-4,18,-127,-79,-43,-71,-2,-33,-49,111,381663
-26,24,22,5,-7,-32,14,-40,76,-174,-243,27,157,-18,-43,-13,18,8,40,-84,35,10,18,-79,-87,-136,-24,12,13,-7,105,381664
96,33,-11,-9,10,-10,98,25,76,39,-98,32,-49,-92,56,76,-56,-56,-86,32,313,69,-53,-197,71,272,-146,-81,-78,-85,-190,381665
313,51,-74,-52,29,22,334,238,-116,-77,239,63,-268,80,36,280,-132,-167,-322,220,903,221,-130,-431,362,1154,-372,-246,-262,-259,-624,381666
357,61,-96,-72,15,16,357,356,-151,-244,247,87,86,152,67,361,-148,-179,-407,296,1139,277,-152,-476,451,1571,-401,-296,-317,-307,-717,381667
248,58,-45,-72,6,20,199,183,-96,-167,-46,65,6,-101,30,285,-130,-128,-338,209,953,199,-127,-386,325,1417,-325,-238,-287,-272,-503,381668
-29,15,25,-53,-37,-18,-124,14,28,-136,-31,-191,-85,-18,-61,39,12,45,-54,-25,178,-35,-4,-43,-76,430,3,-17,-26,-60,209,381669
-75,18,48,-9,-32,-27,-78,70,191,50,275,-64,-2,-105,-18,-14,71,91,51,-33,-88,-93,65,85,-125,163,120,78,98,19,280,381670
-100,13,14,14,-42,-51,12,-343,119,27,81,-7,227,-184,-52,-75,8,12,-26,-69,-186,-162,0,30,-142,198,63,20,45,-57,146,381671
-66,14,7,23,-29,-30,29,-160,21,14,3,55,-86,-210,-57,-75,-34,-43,-86,-47,-139,-183,-46,-34,-114,356,22,-18,-5,-115,62,381672
-52,3,16,-20,-30,-13,-62,126,10,51,-36,47,-6,2,-33,-61,-38,-38,-71,-14,-69,-151,-46,-33,-80,477,26,-27,-8,-118,67,381673
-44,-11,35,-40,-10,3,-139,-167,127,-126,14,2,16,7,11,-68,-42,-49,-33,-19,-95,-140,-39,-35,-82,481,31,-17,-12,-114,27,381674
72,15,8,-9,10,5,-7,76,100,-58,246,15,-147,-64,0,36,-47,-65,-101,71,170,-34,-31,-117,50,792,-75,-68,-67,-159,-162,381675
301,59,-70,-10,21,9,316,263,-52,25,412,165,103,109,-26,296,-88,-112,-283,287,837,190,-85,-299,354,1624,-244,-174,-213,-269,-589,381676
305,58,-80,-35,8,-2,384,203,-130,29,312,85,62,0,84,375,-75,-92,-299,318,1021,267,-81,-296,391,1808,-247,-168,-229,-251,-565,381677
163,45,-29,-49,4,-9,251,104,40,-60,302,76,-42,-72,97,274,-45,-39,-203,165,760,190,-50,-203,191,1370,-161,-120,-186,-190,-206,381678
-97,3,36,-64,-38,-41,-136,-248,109,50,340,-61,197,-57,-27,-5,-3,21,8,-132,55,-49,-11,17,-203,296,3,-10,-47,-71,251,381679
-142,-18,45,-58,-41,-51,-239,-285,87,-104,-88,9,139,-46,-31,-72,33,41,93,-192,-170,-77,24,143,-267,-127,80,61,46,11,304,381680
-124,-14,35,-22,-31,-31,-227,-5,47,-72,-168,35,230,-90,33,-82,-5,4,44,-213,-183,-92,-16,114,-258,-212,30,21,27,-25,193,381681
-82,-11,37,14,-11,-22,-181,102,-28,-91,-138,33,-64,-12,-23,-61,10,24,47,-187,-130,-64,6,103,-210,-238,14,21,29,-26,172,381682
-87,-17,26,0,-26,-21,-131,110,-14,-180,188,8,-126,51,-100,-17,85,91,129,-148,-123,-17,81,177,-160,-304,85,84,90,38,214,381683
-69,16,24,5,-21,-15,-55,-75,-50,12,104,64,-167,138,-79,50,129,141,180,-70,-64,54,124,230,-96,-275,144,140,167,90,347,381684
-28,14,13,-10,-7,-18,-16,58,-29,102,-4,106,-146,175,-36,77,59,73,86,-19,56,78,35,154,-21,-77,60,70,115,24,44,381685
56,28,-3,-9,8,3,54,103,-23,61,11,61,-70,139,58,96,-16,-18,-44,12,256,78,-42,25,62,245,-75,-26,-20,-102,-129,381686
24,31,-2,-20,-5,-9,10,155,-104,-113,17,21,-7,57,31,63,-24,-19,-61,-16,216,33,-31,34,15,232,-67,-28,-34,-117,-65,381687
-28,4,16,-39,-16,-22,-67,99,73,-57,-144,-73,-80,-55,25,13,-14,11,-34,-30,88,-17,-27,81,-58,141,-9,-9,7,-89,18,381688
-41,-4,47,-14,2,2,-104,28,19,89,-33,-3,93,-135,27,-64,-65,-27,-46,-71,-51,-101,-71,52,-147,97,-48,-56,-26,-131,14,381689
-48,-19,54,-10,0,0,-147,137,39,78,84,-24,-14,-97,-29,-103,-82,-49,-65,-79,-141,-158,-86,57,-169,112,-42,-63,-30,-156,53,381690
-34,0,51,17,8,10,-114,-83,-67,64,122,-116,42,-159,-85,-94,-59,-37,-57,-53,-157,-152,-56,77,-152,226,-29,-56,-13,-154,28,381691
8,-2,11,18,3,14,-46,21,-95,29,-4,-2,-44,-114,-141,-48,-51,-50,-94,10,-35,-115,-37,47,-60,496,-62,-71,-32,-182,-64,381692
-19,-13,7,-14,-20,2,-91,-8,-31,178,-112,-108,-17,145,-96,-42,-45,-37,-78,20,-53,-117,-27,114,-17,522,0,-34,7,-151,-42,381693
-62,-18,-1,-34,-24,-18,-90,-31,-43,60,-358,-38,-46,65,-46,-49,-38,-30,-41,12,-96,-103,-9,157,5,493,28,2,43,-111,-3,381694
-12,1,6,13,2,-7,11,-177,-72,72,-202,65,22,-29,-19,-25,-38,-46,-65,31,-27,-64,-34,140,2,527,-1,-35,23,-114,-6,381695
48,19,3,31,11,10,102,-121,-132,104,105,66,88,18,-44,-8,-78,-74,-111,26,81,-37,-72,79,-36,590,-42,-90,-59,-153,-114,381696
42,6,-7,10,-1,1,113,-118,-47,48,288,60,46,59,-20,36,-37,-26,-49,36,133,7,-35,119,-29,546,-2,-48,-28,-114,-64,381697
2,6,-16,8,-9,-17,18,-97,3,17,215,-30,-56,84,-21,6,-16,-8,-3,-7,75,-8,-1,123,-60,356,-19,-7,-18,-105,-2,381698
-82,-14,13,-14,-23,-25,-258,-85,35,129,-57,-155,-18,-195,-30,-92,2,8,35,-120,-160,-93,10,154,-184,-66,17,21,7,-81,49,381699
-84,-13,37,-28,-6,-10,-348,-119,35,114,-218,32,111,-83,6,-60,45,47,69,-109,-175,-64,24,184,-133,-184,68,65,55,-17,166,381700
-115,-33,44,-45,-18,-15,-285,-18,50,23,-263,123,280,-53,-40,-55,61,68,60,-117,-229,-47,23,182,-138,-356,74,77,82,0,265,381701
-100,-27,40,-22,-7,0,-120,-210,43,-81,-490,15,195,246,-60,-48,85,100,97,-102,-232,-19,50,200,-115,-429,108,107,128,33,301,381702
-57,-16,29,11,16,22,-80,-121,88,-88,-290,-3,59,-43,-50,-98,16,34,33,-140,-234,-77,1,99,-125,-454,27,31,33,-61,98,381703
-53,-18,7,16,0,8,-18,60,88,-51,-162,26,60,-117,-36,-85,44,38,81,-127,-199,-55,42,120,-80,-440,69,58,50,-46,104,381704
-21,12,31,35,11,15,14,0,154,16,-10,6,64,-14,-17,-45,75,61,123,-88,-149,-18,111,129,-34,-370,70,93,61,-25,111,381705
-81,-8,55,38,16,24,-107,-47,51,55,-179,-57,34,-78,-44,-132,35,53,131,-179,-348,-137,84,155,-161,-615,74,96,68,-38,122,381706
-108,-17,45,34,5,12,-116,-113,7,32,-72,-142,64,-28,-30,-117,44,64,170,-171,-400,-136,90,201,-136,-671,106,129,116,-8,157,381707
-31,-7,22,52,5,8,25,-80,53,-28,-101,-70,155,-91,25,-44,65,51,138,-62,-226,-42,105,170,-3,-388,83,120,114,-13,9,381708
39,24,7,69,31,15,182,-73,-38,76,150,-78,204,53,9,6,-2,-14,-6,1,-21,-17,34,47,64,7,-43,2,-2,-121,-62,381709
-9,0,-4,42,7,-1,122,8,51,-37,60,-155,21,-132,-77,-64,-44,-43,-60,-49,-72,-77,-3,9,-39,78,-93,-66,-59,-194,-16,381710
7,-7,-20,14,4,-9,91,308,24,-29,-55,104,-115,-22,-65,-1,12,-3,-20,40,24,9,42,67,23,301,-74,-20,-6,-147,-7,381711
16,-9,-4,-9,4,-17,5,45,-51,16,28,79,-172,216,-26,7,-17,-8,-53,46,47,8,-16,81,1,423,-67,-34,-16,-148,-4,381712
-27,-20,24,-24,1,-4,-56,-71,-4,7,74,77,-119,263,33,17,21,47,29,55,-17,1,21,179,-20,365,37,39,61,-72,101,381713
-58,-42,5,-38,-24,-26,-23,-54,-96,-74,-63,81,19,225,-19,9,15,39,24,31,-45,-19,19,162,-27,360,25,33,51,-93,50,381714
-126,-32,28,-9,-26,-24,-64,-81,11,-31,-49,53,74,133,-49,-85,31,44,73,-74,-288,-106,29,241,-137,-24,79,73,99,-60,143,381715
-185,-45,41,1,-22,-28,-145,-259,-2,-119,-262,-134,-28,-56,-100,-180,19,32,113,-177,-530,-186,33,285,-238,-434,126,99,138,-39,272,381716
-208,-42,57,41,-17,-22,-137,-259,55,-62,-176,-56,-24,6,-72,-232,16,32,147,-231,-663,-219,30,314,-285,-701,162,117,150,-22,347,381717
-203,-26,44,66,-10,-36,-72,-91,117,47,-310,-57,30,-12,-19,-229,14,20,150,-222,-651,-203,27,311,-238,-784,156,124,141,-19,242,381718
-73,0,5,57,-1,-14,95,234,86,-32,-194,64,30,200,55,-82,-8,-25,30,-71,-257,-69,9,175,-9,-319,24,49,33,-84,-25,381719
-53,-11,-19,23,-10,-15,126,-3,-3,235,-84,38,-127,164,-5,-19,-5,-26,8,-43,-97,-33,28,123,29,-171,-11,28,-8,-108,-5,381720
-39,-16,-13,-2,-17,-17,74,-22,-15,136,136,8,66,-3,15,-18,8,-5,20,-47,-96,-10,37,118,5,-203,17,22,-3,-93,5,381721
-60,-25,-20,-33,-31,-29,-95,-110,49,-55,12,4,80,3,32,-32,3,-6,7,-72,-144,-19,11,111,-20,-267,28,6,-2,-83,56,381722
-30,-29,-13,-55,-18,-4,-160,-103,99,-141,-58,63,-42,-8,52,-6,13,19,2,-43,-96,-1,5,119,9,-233,40,35,-3,-76,21,381723
26,-29,8,-36,3,35,-162,-55,100,-48,-71,16,-58,112,58,9,4,12,-12,-11,-20,5,11,90,41,-140,14,25,-41,-104,-80,381724
-78,-57,36,-29,-6,27,-277,-124,15,-30,6,-56,-5,11,-37,-113,13,33,90,-133,-299,-99,34,182,-126,-519,91,67,15,-61,160,381725
-266,-72,107,15,-30,13,-401,-254,203,6,-177,-56,161,13,-82,-296,87,123,308,-314,-872,-258,118,381,-402,-1322,282,211,191,77,582,381726
-339,-83,89,54,-39,-18,-351,-376,81,8,-254,-105,46,-3,-143,-347,99,129,366,-352,-1078,-295,123,424,-439,-1600,316,251,261,106,601,381727
-267,-64,51,74,-16,-4,-200,-41,46,-26,-109,-133,-18,-78,-111,-318,62,70,279,-287,-954,-261,104,329,-334,-1438,236,169,202,44,361,381728
22,-16,-20,64,42,28,163,216,1,75,155,10,-117,64,-53,-82,-55,-85,-36,-26,-241,-58,-13,22,43,-404,-60,-48,-44,-174,-351,381729
137,0,-34,62,53,47,224,37,-33,92,194,92,-241,28,-96,39,-60,-71,-125,86,66,44,-34,-61,151,70,-140,-88,-96,-225,-298,381730
112,-3,-10,38,45,47,120,170,-45,73,227,99,-181,163,-8,65,3,-4,-61,122,95,81,27,-8,148,128,-92,-28,-30,-183,-119,381731
72,-14,30,1,50,68,-47,-5,18,91,-165,48,66,41,34,-15,-20,-11,-51,39,-42,18,-7,19,49,-23,-58,-32,-31,-174,-55,381732
46,-33,29,-24,41,58,-117,-79,48,17,-23,36,70,23,1,-10,23,33,8,29,-100,22,41,95,38,-94,33,31,29,-96,68,381733
-26,-36,3,-4,-4,4,-99,110,107,56,219,105,-69,-11,39,1,72,81,78,46,-127,35,82,157,29,-152,75,79,74,-56,157,381734
-329,-47,69,32,-55,-45,-403,-369,243,-80,-203,14,-84,-48,-27,-251,144,188,326,-225,-872,-206,150,410,-371,-1202,321,236,238,92,717,381735
-710,-124,141,29,-116,-87,-863,-470,248,-24,-554,-200,80,-262,-57,-609,225,290,665,-586,-1917,-501,232,734,-865,-2700,621,448,500,326,1276,381736
-697,-135,140,48,-88,-60,-890,-315,314,38,-525,-157,-60,-19,-49,-658,239,287,721,-603,-2125,-539,244,771,-903,-3096,654,479,568,389,1181,381737
-440,-109,95,60,-29,-5,-545,-293,223,24,-282,-116,-6,-11,-66,-513,200,207,592,-429,-1715,-396,223,611,-643,-2610,507,391,473,288,808,381738
40,-41,-23,86,42,52,152,77,-52,-4,165,73,-21,-94,15,-143,30,-30,143,-29,-538,-52,88,124,-1,-988,67,94,99,-32,-47,381739
192,7,-43,94,69,83,339,249,-77,47,311,89,-35,-40,25,8,-20,-85,-57,88,-45,65,37,-36,233,-315,-76,-11,-34,-151,-241,381740
131,1,-31,71,52,53,225,234,-123,123,-91,81,-179,-165,78,28,-5,-38,-30,79,-27,77,36,21,249,-263,-32,24,-1,-114,-200,381741
79,-15,-40,27,25,27,180,109,-60,216,233,44,-133,48,58,8,-22,-54,-40,59,-23,77,16,17,214,-211,-44,-1,-39,-141,-238,381742
49,-1,-31,32,18,30,174,65,7,129,-71,143,55,-35,62,10,8,-7,-18,61,-47,78,31,86,168,-212,24,12,-18,-99,-72,381743
36,-19,-37,6,10,22,91,171,-86,19,-64,-10,23,-69,20,-20,-16,-34,-65,24,-83,42,-5,71,118,-210,6,-26,-51,-114,-123,381744
-49,-22,1,1,0,20,-67,30,-31,-59,73,109,117,-86,37,-68,62,44,61,-44,-279,0,79,211,18,-509,145,89,59,-27,144,381745
-331,-68,70,10,-36,-20,-425,-260,93,33,-77,-73,139,-276,-2,-332,146,158,326,-291,-1019,-220,190,477,-382,-1554,366,267,251,127,669,381746
-384,-91,84,49,-30,-19,-479,-298,264,195,-140,-99,-42,-187,77,-455,130,124,411,-383,-1330,-342,171,519,-541,-1996,392,284,270,140,715,381747
-254,-63,50,73,10,7,-326,-206,172,187,125,16,154,75,41,-406,69,21,298,-303,-1130,-297,128,377,-397,-1759,240,200,179,43,420,381748
87,-7,-40,43,56,43,20,199,-49,58,216,215,124,129,126,-51,11,-75,24,69,-190,32,72,82,145,-530,-25,25,-20,-109,-239,381749
145,-8,-67,-8,40,29,52,134,-104,78,29,243,136,166,126,68,-21,-92,-77,172,184,135,22,-30,272,-60,-118,-60,-128,-167,-339,381750
142,4,-43,0,40,29,94,347,33,131,182,152,48,274,123,108,17,-30,-7,207,229,161,64,32,278,-57,-52,-6,-74,-114,-255,381751
64,16,-53,39,14,-19,217,172,50,-56,251,15,48,172,87,101,87,46,82,180,104,157,114,135,227,-273,58,72,14,-28,-7,381752
54,36,-53,79,28,-23,259,10,6,-49,244,-25,26,33,14,60,54,33,67,136,28,117,71,118,166,-400,20,49,-1,-51,6,381753
58,45,-40,85,42,14,206,-59,-19,56,238,48,21,37,-20,21,8,20,12,102,-16,60,11,89,106,-492,-12,-13,-27,-72,25,381754
-49,0,-4,25,19,28,27,-93,-75,-4,18,43,71,-10,-54,-84,21,52,78,-17,-270,-33,21,166,-43,-810,84,32,26,-27,233,381755
-313,-53,71,27,-13,11,-284,-54,30,-71,-150,-30,-37,-102,-16,-322,117,145,321,-258,-954,-224,127,411,-349,-1719,298,208,228,126,652,381756
-322,-62,64,39,-19,7,-324,18,177,-112,-245,-187,-79,-71,-88,-387,74,68,302,-300,-1061,-251,114,367,-343,-1830,248,197,223,87,498,381757
-199,-49,17,39,-16,-4,-227,-122,47,-29,-233,-38,-140,22,-103,-275,20,-9,183,-188,-769,-170,59,254,-140,-1400,146,130,156,22,188,381758
65,7,-38,43,31,31,76,100,-36,90,-117,189,-215,90,-23,36,37,3,68,102,-90,96,89,123,235,-434,28,83,76,-35,-93,381759
110,-2,-43,17,32,36,144,205,57,62,148,84,-134,413,60,88,48,19,36,147,81,141,120,72,241,-119,13,48,11,-70,-108,381760
98,-2,-36,17,32,37,174,85,39,-129,5,36,-170,258,-25,59,55,19,66,106,41,102,130,94,151,-96,57,56,0,-56,-32,381761
67,9,-41,27,15,30,215,-9,-14,155,-115,28,79,46,-14,-11,-20,-48,-8,42,-3,32,42,25,80,-74,0,-8,-69,-114,-132,381762
77,20,-33,56,28,35,248,0,82,224,-216,-43,32,90,0,-22,-58,-83,-58,23,19,16,-26,-32,76,21,-56,-53,-106,-151,-210,381763
77,17,-8,55,44,54,173,71,40,-6,-75,-73,93,1,52,-75,-113,-138,-157,-34,-14,-42,-98,-110,22,39,-138,-133,-188,-207,-244,381764
-6,-17,-13,24,15,19,61,-114,-83,-76,-118,-16,127,-9,-34,-148,-109,-130,-152,-97,-160,-108,-98,-91,-83,-157,-112,-143,-186,-200,-85,381765
-32,-22,-25,16,-4,-7,14,27,-19,-131,69,-16,9,-36,-121,-117,-43,-50,-60,-51,-182,-53,-27,-5,-46,-226,-6,-71,-81,-102,16,381766
12,0,-24,23,8,6,11,91,155,1,61,-10,36,-323,5,-46,-5,-12,-15,25,-86,21,17,24,60,-148,17,-18,-24,-64,-13,381767
36,-6,-30,10,7,2,0,146,71,26,-40,80,80,14,92,19,34,20,22,73,-37,58,39,75,114,-145,33,30,28,-33,55,381768
54,0,-39,-2,4,-5,45,117,-28,-56,-114,111,-64,-9,33,79,63,43,46,112,51,106,76,84,181,-145,58,64,55,1,88,381769
70,24,-39,9,0,-7,165,78,-105,-14,6,140,104,65,-6,71,41,-6,5,130,129,129,54,11,221,-142,25,40,-2,-43,-76,381770
71,30,-46,16,3,2,160,36,71,18,26,-10,102,27,85,25,-55,-81,-92,97,143,72,-64,-79,160,-231,-20,-45,-103,-102,-146,381771
12,22,-23,10,-3,4,44,36,60,77,40,-28,121,45,92,-19,-46,-48,-36,48,9,18,-53,-26,64,-532,46,-22,-73,-45,-1,381772
31,32,-35,31,-5,-4,113,57,-65,-25,141,122,53,66,42,13,2,-23,0,79,60,46,15,-41,83,-529,6,-24,-79,-48,-70,381773
73,31,-35,34,7,18,144,-104,15,-31,137,98,32,128,-17,33,-6,-28,-20,89,113,58,25,-57,87,-485,-31,-30,-109,-66,-155,381774
126,24,-43,0,24,39,163,101,3,-64,51,57,31,122,-19,100,27,4,5,151,247,133,69,-25,189,-268,-8,19,-80,-31,-208,381775
165,39,-36,-2,40,50,205,234,26,30,4,37,68,77,35,157,47,28,0,207,379,203,79,-23,278,4,-16,17,-70,-34,-205,381776
149,31,-19,-12,35,48,168,165,-60,35,-116,75,-56,-78,50,95,-8,-27,-72,141,329,136,14,-88,239,76,-95,-50,-115,-99,-116,381777
136,19,2,-7,40,64,132,279,-60,22,48,15,-78,-173,71,44,-53,-66,-123,68,258,63,-43,-111,172,128,-109,-109,-159,-133,-127,381778
74,7,1,-15,21,38,119,127,-63,-14,88,-3,4,-48,99,9,-39,-19,-48,13,129,20,-27,-35,75,81,-38,-75,-117,-100,-160,381779
47,5,-7,23,12,21,149,54,-80,-46,36,-112,73,-140,27,-63,-80,-53,-68,-45,25,-18,-63,-58,-17,66,-70,-109,-134,-133,-120,381780
53,39,-4,70,29,23,117,135,-65,10,150,-240,32,6,-17,-86,-92,-67,-103,-66,3,-37,-72,-70,-35,144,-92,-137,-151,-144,-48,381781
66,19,-1,33,18,15,69,192,-67,11,412,-40,37,-226,46,-19,-39,-34,-33,3,105,27,-17,-9,57,319,-42,-58,-89,-92,-130,381782
40,14,4,15,2,9,81,66,-62,153,736,90,6,-56,58,22,0,-3,25,46,144,64,26,35,81,395,16,-4,-22,-40,-139,381783
12,13,-16,-6,-5,-9,57,-52,-81,-24,286,70,-15,-49,55,-14,-37,-32,-49,-1,86,24,-21,-24,22,359,-42,-59,-65,-102,-99,381784
2,5,-36,-2,-14,-15,52,-119,-48,-9,79,-7,-65,50,48,-38,-78,-63,-109,-26,73,-2,-99,-62,-13,354,-68,-109,-107,-121,-169,381785
42,17,-59,-7,-11,-30,103,-233,-167,-57,218,-29,-75,60,39,43,-68,-73,-102,59,233,76,-106,-82,90,550,-80,-106,-129,-106,-190,381786
73,24,-44,-20,2,-13,106,26,-33,103,267,88,51,114,14,85,-52,-55,-93,105,328,115,-81,-83,123,618,-78,-102,-147,-102,-106,381787
60,24,-6,-30,11,13,78,81,5,275,84,103,-103,182,44,101,-14,5,-33,95,283,114,-45,-21,72,485,-2,-45,-93,-33,20,381788
21,1,22,-35,-2,16,16,17,43,159,-168,-64,-105,29,69,42,26,52,46,42,91,64,-1,56,-23,91,61,26,-28,35,145,381789
66,23,0,-17,9,14,70,81,41,74,-117,20,-90,83,91,70,-3,3,22,64,114,58,-27,23,17,-36,19,11,-52,33,-24,381790
22,29,6,1,5,3,9,-18,18,-73,43,-29,-104,107,5,25,-35,-32,36,6,7,-9,-43,6,-33,-333,25,6,-71,21,-26,381791
25,27,-10,11,0,6,-1,-98,-37,-92,144,-7,0,221,31,56,-12,-19,53,50,81,28,6,4,51,-371,-4,13,-52,24,-59,381792
0,4,-22,-8,-11,-13,3,-26,-9,-81,-1,-12,48,76,-36,41,-22,-24,41,41,75,10,-8,-18,41,-450,-30,-10,-80,-3,-55,381793
3,18,-1,8,0,-4,-5,-68,-16,-43,-162,-44,-63,-31,0,38,6,11,82,32,33,11,41,32,35,-551,52,40,-40,58,21,381794
73,27,-4,-20,11,0,85,114,16,-26,-23,-16,-83,-21,53,97,15,4,40,98,185,100,45,-18,140,-306,22,27,-39,57,-41,381795
174,35,-39,-65,12,3,221,177,109,39,210,52,8,216,85,218,4,-6,-79,210,511,212,-7,-105,276,242,-60,-33,-101,-1,-221,381796
172,45,-37,-73,19,10,176,-139,-11,-4,247,39,150,87,53,241,26,23,-68,228,579,238,-1,-87,252,469,-41,-39,-97,2,-164,381797
52,21,-39,-101,-15,-18,-79,-267,-217,2,93,38,-50,63,29,140,-14,-7,-76,120,418,150,-12,-123,98,439,-73,-84,-144,-47,-105,381798
-42,-5,1,-92,-14,-10,-432,-493,-84,-34,-105,-96,-140,-48,44,8,14,38,-4,-19,71,24,-21,-4,-97,100,46,-18,-44,13,228,381799
10,2,18,-30,11,13,-405,-226,-17,-222,-254,-23,-53,-113,-10,-43,-7,21,0,-71,-39,-32,-53,0,-120,71,14,-21,-39,3,108,381800
7,8,18,4,11,18,-115,-2,95,-188,-228,27,-90,-65,-26,-29,-6,10,11,-42,9,-23,-44,-3,-65,204,-8,-24,-31,-6,103,381801
25,36,38,46,30,35,102,241,98,-95,-286,9,-52,45,36,7,35,57,74,3,40,24,10,40,-26,289,39,39,34,30,73,381802
-3,34,6,49,12,-7,109,111,7,14,-72,-10,-50,77,21,-45,-28,-14,1,-47,12,-11,-37,-48,-44,340,-45,-22,-26,-41,-27,381803
-17,58,-16,54,1,-35,121,12,-90,64,132,87,-41,3,-2,-18,0,17,18,-13,36,30,1,-4,-6,396,7,15,28,-3,123,381804
68,82,-27,55,21,-15,215,140,-90,120,-7,-13,-139,57,24,44,-20,-14,-46,57,208,81,-24,-86,82,641,-69,-20,-29,-40,-9,381805
187,73,-59,28,37,3,296,205,-141,46,58,78,-148,-7,82,120,-104,-106,-213,129,503,123,-106,-247,198,1057,-250,-152,-189,-149,-372,381806
237,76,-41,-1,44,30,301,78,-171,-23,88,163,-14,32,79,186,-101,-82,-245,180,646,169,-118,-243,251,1206,-228,-173,-210,-123,-352,381807
207,71,-25,-13,28,29,249,66,-79,-2,21,75,-121,-77,23,204,-61,-13,-179,193,599,189,-100,-143,222,1071,-136,-122,-146,-47,-179,381808
43,48,18,14,3,16,96,-182,29,46,-299,25,-125,-103,-21,81,-14,34,-15,47,217,67,-60,9,20,417,-13,-15,-51,48,167,381809
-37,45,53,28,6,10,38,29,15,-41,-143,12,27,-5,4,4,-8,17,65,-26,-6,-16,-43,85,-75,-59,45,33,-6,122,164,381810
-50,24,17,-5,-19,-23,20,-148,-49,-96,-137,-22,-32,-148,-50,-10,-37,-30,33,-51,-35,-46,-72,58,-87,-253,5,-4,-53,95,54,381811
-5,39,1,-12,-18,-24,61,-138,-48,-36,200,-22,-61,84,-29,61,-26,-23,31,20,121,14,-54,31,9,-180,-12,-6,-76,76,-87,381812
-14,29,9,-22,-10,-10,10,-124,26,29,-41,35,61,65,-4,13,-45,-36,38,-29,55,-39,-82,24,-38,-349,-5,-7,-106,63,-20,381813
29,21,19,-42,4,16,5,37,78,-1,-81,40,-95,-11,40,0,-53,-61,25,-44,72,-38,-85,5,-36,-357,-21,-10,-117,58,-38,381814
175,29,-25,-36,16,19,140,149,-10,115,165,-84,-75,57,52,79,-151,-172,-145,59,434,39,-153,-189,133,216,-218,-148,-261,-76,-365,381815
349,79,-55,14,63,33,315,180,-143,-20,219,-17,45,125,61,191,-219,-259,-352,180,852,139,-219,-366,289,920,-387,-281,-396,-220,-621,381816
362,92,-44,16,64,43,399,303,-212,-90,286,188,273,66,56,260,-148,-172,-319,221,951,222,-167,-307,375,1181,-319,-224,-330,-179,-531,381817
254,67,-36,15,24,16,378,331,-129,-144,228,162,214,-18,37,211,-95,-90,-267,173,781,199,-142,-208,322,1091,-211,-179,-236,-108,-285,381818
-3,39,6,9,-19,-21,178,136,19,-6,-23,-33,183,144,26,-26,-75,-38,-176,-69,174,-27,-146,-41,-39,417,-73,-138,-120,-27,44,381819
-105,15,16,-9,-31,-44,58,-40,40,10,-349,20,65,-165,-21,-105,-51,-11,-73,-130,-60,-85,-133,32,-159,200,-6,-95,-62,13,104,381820
-123,2,6,-51,-45,-59,-111,-241,79,-40,182,6,-114,-109,52,-71,24,43,44,-74,-56,-45,-27,88,-149,248,42,-28,-4,55,137,381821
-128,1,36,-74,-27,-38,-279,-124,113,-111,159,35,-206,-103,38,-32,121,136,148,-33,-112,-10,74,196,-143,190,143,88,116,157,372,381822
-62,-13,45,-67,-8,-9,-310,-30,8,-98,32,-55,-12,-144,9,-27,90,103,87,-23,-84,-8,36,151,-121,266,105,74,103,126,325,381823
-59,-19,34,-44,-17,-9,-223,-98,110,-22,74,23,-3,-68,-25,-29,40,74,59,-23,-74,-15,1,115,-115,291,63,43,75,92,216,381824
-16,6,10,-1,-18,-14,-42,-45,115,46,82,-1,-20,-4,-16,34,38,76,61,45,57,33,-3,95,-18,458,39,41,59,86,106,381825
117,48,-13,20,18,4,148,21,167,123,0,92,-26,262,52,167,22,33,-30,161,382,145,-26,10,186,855,-9,-13,-5,52,-102,381826
133,36,-34,-21,14,-6,171,-77,-122,-61,-176,73,-94,250,-66,171,-21,-13,-109,165,477,168,-41,-60,209,966,-72,-70,-77,9,-239,381827
107,1,-26,-43,4,-1,99,9,-56,-151,-165,-91,-48,-19,-46,123,-48,-33,-101,101,413,113,-65,-76,135,841,-82,-103,-115,-1,-276,381828
-9,-5,26,-22,-14,1,-23,-40,47,-117,57,-155,-90,42,-7,32,-17,33,29,-21,89,11,-36,44,-47,316,30,-1,-33,87,-71,381829
-47,13,39,15,-9,10,-41,-64,78,-178,-77,-173,-84,-41,-57,28,20,81,108,-41,-46,-7,5,119,-72,9,86,61,48,170,113,381830
-52,9,18,1,-18,-9,-59,-275,-37,-31,-219,1,20,88,-90,50,46,104,125,-39,-27,5,32,137,-29,-125,82,84,62,197,59,381831
49,18,-3,-15,1,4,-24,149,-64,-69,-77,-5,-10,49,17,122,29,28,70,46,200,91,49,66,110,91,-11,48,14,156,-121,381832
60,-3,0,-27,8,8,-74,215,6,-29,-106,21,-160,-107,54,135,25,11,27,49,221,101,21,54,154,83,-32,28,22,167,-56,381833
54,-16,-5,-39,-2,-15,-64,212,-49,165,-103,-17,-68,-174,44,130,21,9,11,46,235,109,-12,33,176,97,-34,1,11,141,-54,381834
95,8,-25,-10,-7,-18,27,97,-51,86,-73,18,-48,-64,61,144,-1,-29,-48,78,379,115,-24,-44,241,334,-93,-42,-55,76,-175,381835
244,42,-57,-1,11,-10,227,-63,-72,133,-43,185,-38,-23,53,259,-50,-90,-185,219,788,220,-60,-193,439,982,-216,-146,-171,-24,-445,381836
221,42,-63,-13,0,-32,225,-57,-92,-32,50,53,17,-37,51,234,-75,-103,-256,190,783,189,-102,-205,367,1092,-215,-185,-202,-52,-437,381837
144,47,-27,7,8,-22,212,34,-24,28,212,38,85,143,98,140,-50,-69,-191,117,560,133,-84,-115,192,898,-126,-134,-143,-10,-196,381838
-47,33,33,42,-2,-22,119,-121,0,70,-26,-100,176,-9,-32,-56,-18,-14,-28,-54,52,-30,-46,27,-86,293,14,-22,-20,65,137,381839
-98,16,24,20,-22,-25,53,-134,-20,170,-82,-38,62,-196,-47,-87,-12,-5,13,-64,-80,-59,-44,68,-122,159,48,10,32,90,172,381840
-75,2,24,-10,-32,-22,-90,-131,13,177,36,91,182,-77,-13,-90,-21,-12,-13,-55,-89,-72,-57,40,-104,181,25,-6,13,74,88,381841
-59,-16,20,-37,-21,-9,-244,-56,6,13,189,-22,149,79,5,-119,-52,-47,-70,-93,-140,-122,-69,-1,-149,163,-9,-64,-32,33,48,381842
-66,-24,16,-64,-32,-24,-278,-132,-86,-51,309,10,83,72,0,-42,41,52,65,-1,-107,-33,32,127,-93,208,125,34,78,146,182,381843
-100,-26,21,-70,-37,-49,-262,-168,-71,28,-86,-1,-35,96,-25,-1,99,109,166,44,-99,7,87,196,-65,181,168,120,147,204,241,381844
-55,-17,21,-64,-29,-33,-166,-12,-47,65,16,1,-57,7,43,49,95,94,138,86,-9,52,98,171,-5,291,139,105,132,191,139,381845
9,-13,15,-51,-12,-16,-92,180,-18,36,-50,36,52,-94,53,98,85,72,98,102,96,83,89,150,36,407,103,87,116,162,112,381846
19,-11,42,-38,7,11,-98,108,39,-60,-120,56,23,74,44,65,48,30,58,68,108,63,41,94,16,404,52,51,67,123,27,381847
-11,-12,42,-26,-4,1,-128,-174,43,-60,36,52,79,26,-24,16,6,7,54,24,74,27,5,79,-8,308,54,34,36,123,76,381848
-75,-25,17,-25,-23,-22,-134,-170,15,-73,186,1,126,1,55,-52,-28,-26,55,-63,-58,-30,-43,83,-94,100,44,8,21,115,100,381849
-93,-25,23,-9,-4,-12,-87,-178,-3,-25,-46,-113,-92,-2,-13,-114,-47,-42,80,-135,-144,-71,-45,85,-155,-108,15,-9,13,116,102,381850
-23,-20,14,-6,20,18,5,18,-28,-34,-202,-83,-78,19,-62,-54,-4,-5,93,-75,-26,11,11,92,-51,-22,-16,6,36,141,56,381851
6,-14,5,-11,10,10,35,33,-20,-125,-111,25,-100,-155,-59,-32,-14,0,43,-66,26,31,-16,60,-21,10,-54,-18,4,124,-3,381852
56,5,16,-1,21,24,58,-19,-10,-28,-23,-154,-100,-128,6,2,-37,-27,-7,-41,121,68,-27,35,42,120,-62,-26,-11,125,-6,381853
48,-1,27,6,29,40,38,120,-121,51,-111,-201,42,34,25,36,-9,-8,25,-5,166,99,-11,73,88,167,-14,2,32,149,68,381854
6,4,34,25,20,41,-3,-125,-75,75,1,-118,37,-123,68,-8,-30,-26,-11,-59,52,14,-47,40,3,48,-52,-48,-6,98,5,381855
-19,-9,19,21,7,15,-35,-92,-72,127,95,66,70,-123,14,-49,-56,-36,-54,-90,-44,-48,-65,11,-35,-30,-64,-64,-18,66,8,381856
1,-15,-11,8,-4,-16,-25,95,65,74,185,115,-82,-83,-35,27,-19,9,-29,-1,44,5,-29,52,39,121,-7,-5,27,112,-37,381857
19,-10,8,-5,1,-13,0,41,232,100,39,-19,109,57,-22,67,28,63,35,45,42,23,14,110,45,154,45,60,85,151,8,381858
0,-11,32,-9,-4,-8,26,120,198,-4,21,44,33,111,-24,33,18,45,43,26,-27,-4,25,91,-9,106,25,54,73,137,40,381859
-18,-15,24,-29,-18,-11,41,73,80,48,267,79,-28,53,-16,31,25,40,27,47,2,6,41,95,2,148,22,69,54,122,-21,381860
-30,-11,-6,-19,-30,-31,15,-207,-57,14,-55,45,-75,79,-21,-22,-26,-19,-37,8,-27,-39,-23,33,-24,152,-23,29,-2,61,-105,381861
-41,2,-15,19,-19,-35,29,-150,-57,-4,-130,-22,-15,-94,-93,-83,-94,-85,-112,-50,-101,-108,-91,-41,-84,119,-86,-66,-76,-13,-110,381862
-41,-7,13,30,-3,-5,46,-26,-13,-44,-87,-75,-42,-30,-31,-62,-58,-42,-62,-50,-142,-101,-56,16,-106,71,-33,-46,-35,32,29,381863
-5,-14,45,16,12,22,33,43,95,29,-178,-102,-66,66,-85,-27,-5,4,14,-9,-117,-66,-17,83,-76,73,36,20,33,109,22,381864
25,-6,33,7,29,28,11,169,62,64,-39,-20,7,20,-115,-36,-43,-45,-19,-18,-80,-61,-48,30,-64,128,-11,-12,-7,61,-71,381865
41,-11,8,-7,14,32,37,84,40,-14,54,57,47,64,-63,-10,-59,-51,-24,0,7,-39,-56,-6,-46,224,-39,-42,-42,29,-176,381866
16,-8,-7,-4,-10,3,57,43,-13,-38,128,-61,-50,-24,-14,3,-27,-27,0,3,12,-27,-31,5,-59,217,-20,-30,-33,55,-154,381867
-5,2,-7,13,-10,-18,72,109,-38,-164,58,-53,-113,49,-77,10,15,12,39,10,5,5,24,40,-43,169,7,22,21,95,-75,381868
-33,-5,-27,-4,-18,-48,10,15,-91,-45,105,38,64,58,-49,9,34,24,54,5,18,14,50,53,-32,152,25,19,50,115,-17,381869
-57,-14,-20,-19,-24,-45,-90,-177,-87,34,9,27,32,-94,63,18,90,85,122,10,5,44,101,127,-27,89,85,83,105,169,101,381870
-70,-12,-9,-17,-11,-34,-88,-21,2,121,-25,-50,-64,-84,136,22,93,96,146,16,-7,68,104,155,-12,47,95,117,142,200,128,381871
-48,-11,-9,-10,-7,-28,-32,-8,63,27,-85,-42,-63,12,22,20,62,75,90,3,-11,73,73,107,-19,49,45,73,102,172,48,381872
-21,-4,10,15,0,0,-2,-2,36,0,-7,-60,99,-34,14,-2,20,37,9,-13,6,63,11,45,-17,80,-15,9,63,131,-78,381873
10,-12,9,8,4,9,2,106,12,-3,34,-61,195,-142,15,-39,-41,-38,-102,-35,21,21,-86,-39,-32,131,-103,-87,-14,54,-146,381874
128,13,-6,19,32,34,88,152,-32,75,164,73,125,-104,-3,55,-54,-45,-146,67,225,79,-106,-75,86,431,-122,-115,-64,22,-186,381875
98,18,-7,9,20,27,91,1,-15,53,149,29,-164,-87,20,77,-55,-33,-126,80,249,80,-96,-67,109,501,-109,-104,-65,30,-208,381876
86,20,-6,-1,7,22,79,172,34,95,-189,-27,-265,11,-1,75,-54,-38,-93,74,253,50,-65,-77,95,544,-120,-94,-75,17,-230,381877
71,23,24,2,12,22,30,248,137,-54,-116,-105,-4,-92,-13,53,-9,2,-30,48,149,3,-14,-3,24,390,-63,-30,-23,51,-115,381878
-6,-4,29,-15,-13,4,-33,124,55,16,118,1,-31,-122,3,20,16,22,26,12,7,-10,22,72,-15,176,9,24,47,105,-39,381879
-57,-10,26,-32,-25,-13,-92,-37,-14,40,4,-48,-210,110,34,24,30,40,63,13,-54,2,38,130,-14,65,77,51,117,155,-14,381880
-46,-8,25,-21,-17,0,-139,-101,-58,63,-223,-145,61,327,-20,29,11,32,46,18,-84,5,8,142,-18,30,99,54,129,162,11,381881
-74,-22,1,-28,-43,-30,-111,-50,-66,-9,-71,-41,111,52,-35,25,19,30,30,15,-76,-1,11,118,-36,18,63,34,99,141,100,381882
-50,-4,10,-13,-26,-17,7,32,45,-24,-72,110,90,121,-3,44,46,61,60,37,-60,1,50,139,-42,-1,64,48,109,150,127,381883
0,-1,7,29,-4,0,79,-75,15,-89,-184,2,156,-52,2,20,17,23,43,1,-91,-30,18,122,-73,-49,37,25,81,132,-22,381884
-2,-9,-3,7,-7,-5,47,-234,24,-210,-55,-10,66,-58,-33,23,10,12,21,4,-61,-19,-1,104,-50,-29,23,17,58,111,-44,381885
9,-18,17,-14,-4,19,3,-121,-40,-152,-6,-55,92,-85,-40,-1,-34,-34,-53,-14,-2,-36,-36,11,-48,68,-52,-39,-25,23,-107,381886
-2,-23,-3,-31,-12,9,-67,72,-26,-51,-17,-75,23,54,-9,-22,-23,-26,-30,-37,-20,-48,-34,8,-91,62,-37,-30,-34,26,-74,381887
-26,-14,-2,-25,-21,-10,-107,37,-58,-1,52,61,78,-49,-37,-20,9,-10,1,-30,-25,-37,4,42,-83,36,1,2,-19,62,13,381888
-41,-17,14,-23,-16,-17,-206,27,46,122,16,14,151,-182,-103,-38,32,15,42,-39,-103,-34,29,93,-101,-52,44,26,34,103,11,381889
12,-20,8,-9,-7,-10,-84,31,52,33,152,69,62,-48,7,-5,31,21,-13,4,-25,23,23,51,-69,98,5,-19,16,75,-69,381890
23,-15,15,22,7,20,52,14,-21,-63,93,20,15,-21,73,-12,10,12,-31,-14,-37,11,5,22,-109,127,-22,-47,9,57,0,381891
9,-24,11,14,12,35,46,127,26,92,-326,-21,180,-171,24,-32,-6,5,-34,-26,-73,3,-23,18,-127,122,-22,-38,14,61,93,381892
20,-10,11,17,7,15,41,-12,-8,-30,-150,-4,-5,-56,42,-29,20,10,-21,8,-30,22,4,40,-83,203,-17,-11,31,73,-25,381893
-4,6,-10,36,-1,-11,26,-54,-32,-44,173,-24,71,-30,-15,-52,-14,-13,-48,-21,-42,-15,-19,15,-86,207,-50,-28,15,42,-104,381894
-29,-8,-16,20,-10,-26,22,19,-79,-264,70,-16,-17,-85,-35,-6,31,50,7,11,-47,18,13,83,-47,180,10,24,76,94,-39,381895
-26,-10,-7,-10,-9,-8,35,184,38,-100,-17,-65,-150,-85,-25,51,47,84,30,44,-19,40,43,90,13,195,18,36,92,120,0,381896
-9,-3,9,6,-1,11,31,-235,109,47,-69,-76,-42,77,27,22,-3,40,-25,22,-21,-10,16,25,-6,173,-61,-34,32,64,-42,381897
4,-3,14,10,3,31,0,-93,-23,76,-220,-57,-99,-27,-19,-4,-18,23,-20,-9,-36,-39,-2,7,-42,106,-79,-42,2,47,-72,381898
22,-11,-5,3,3,20,-14,-39,22,-128,45,-68,-79,-123,-66,13,0,12,1,-1,-1,-28,21,-7,-7,111,-69,-39,-5,48,-68,381899
31,-2,3,28,17,25,2,-15,37,-39,332,-176,86,-87,-54,25,24,24,8,15,16,-15,46,20,24,90,-46,-14,27,69,-32,381900
41,-11,2,19,15,23,66,261,56,93,243,-95,161,-171,-29,23,4,3,-42,23,45,-1,3,-10,28,109,-55,-33,6,50,-60,381901
63,-11,3,32,6,6,134,-87,31,47,-96,-21,-7,39,20,23,-27,-28,-48,24,80,15,-25,-28,32,133,-38,-52,-26,33,-152,381902
16,-12,-16,20,-12,-13,113,-73,32,128,-391,37,50,10,-19,-23,-47,-57,-56,-26,38,-35,-31,-60,-6,54,-57,-77,-74,-5,-239,381903
7,-11,-17,-3,0,-3,66,130,-90,-15,117,-19,94,93,4,-23,-31,-76,-41,-29,37,-38,-1,-36,-11,53,-34,-56,-66,19,-155,381904
41,5,-16,-4,5,2,50,191,-44,-161,-22,-25,113,64,57,12,-39,-87,-55,6,126,-11,8,-45,19,165,-69,-60,-67,29,-197,381905
97,10,-29,1,12,12,120,104,-8,4,-111,53,-33,64,73,54,-70,-107,-114,54,261,20,-32,-116,65,382,-138,-101,-90,-6,-277,381906
153,22,-33,22,28,29,232,171,-19,129,153,25,-74,-98,7,114,-78,-110,-167,96,406,57,-52,-164,129,603,-184,-125,-114,-47,-305,381907
150,39,-16,25,31,34,253,-9,-139,73,125,-20,-88,-96,6,107,-86,-100,-181,71,390,39,-80,-169,99,638,-192,-120,-120,-75,-319,381908
20,28,13,15,-3,6,84,-235,-52,47,-163,-13,15,-78,-48,7,-12,-16,-67,-26,76,-22,-14,-13,-52,237,-47,-17,16,31,33,381909
-16,-1,2,-25,-18,-22,-40,-167,24,-14,15,23,115,0,5,22,59,30,8,14,41,25,58,69,-21,209,34,46,95,94,102,381910
-57,-11,26,-53,-25,-16,-148,112,63,-188,114,39,101,-92,54,7,84,53,51,2,-38,22,97,105,-16,170,71,83,131,110,181,381911
-68,-18,36,-49,-4,-10,-215,-93,30,10,-78,71,175,-91,46,-42,66,64,55,-51,-138,-19,55,112,-42,82,76,79,136,97,221,381912
-52,-15,9,-50,-10,-14,-259,-137,-43,-64,-88,84,141,8,-94,-48,41,50,46,-45,-108,-18,51,85,-61,138,53,51,96,55,153,381913
-75,3,17,-39,-21,-5,-248,-235,3,-181,-69,128,40,346,2,8,98,96,113,-15,-110,15,125,140,-61,133,110,112,131,110,187,381914
-111,-6,9,-50,-33,-36,-301,-143,31,-11,-194,168,31,353,-30,53,152,145,195,34,-117,56,185,218,-40,88,186,188,216,183,198,381915
-22,-10,-13,-59,-14,-14,-192,-7,-108,-121,82,-3,-141,178,-18,93,97,72,90,94,85,101,131,113,38,333,82,118,129,117,-46,381916
36,3,15,-13,14,38,71,167,-59,22,261,-89,-74,-23,-48,15,-8,-41,-55,24,94,23,13,-15,-16,327,-46,-20,-12,1,-113,381917
39,6,10,18,25,36,129,183,-104,-93,71,-45,-74,-206,-86,-35,-59,-77,-100,-26,49,-46,-45,-76,-61,245,-101,-84,-80,-52,-112,381918
22,1,3,30,14,12,11,155,-96,-136,117,-48,11,-203,-114,-56,-43,-57,-64,-61,-29,-87,-57,-43,-116,79,-57,-82,-60,-23,-127,381919
36,16,39,74,34,33,37,78,21,-90,127,-40,208,-108,-17,-26,3,-18,49,-48,-57,-67,5,32,-100,-19,10,-9,10,45,14,381920
28,1,33,38,19,32,72,105,46,110,9,-16,11,-292,27,19,21,-1,68,-22,-34,-39,41,51,-67,-20,16,16,44,73,24,381921
34,0,25,22,20,30,124,56,25,151,-57,79,-29,-99,35,89,49,40,65,60,72,48,47,77,37,60,23,54,88,106,-37,381922
-9,-9,16,15,9,18,49,18,41,-74,-308,-42,16,-56,-13,18,5,1,-1,-15,-37,-16,11,30,-3,-118,-27,20,45,63,-46,381923
-5,0,13,8,7,20,-8,23,-30,82,-173,32,-12,-80,47,7,20,17,22,-29,-77,-25,42,34,-16,-179,3,22,49,55,14,381924
-15,-9,38,-8,19,34,-74,47,19,92,-331,101,-16,-29,11,-19,37,24,55,-59,-137,-33,59,46,-50,-264,28,35,68,67,98,381925
3,4,39,-2,20,40,-29,85,24,66,-173,8,-47,-21,-51,-39,32,10,7,-68,-122,-26,42,25,-43,-250,19,13,45,57,18,381926
-14,0,13,20,27,11,-14,-93,-11,20,-150,-58,69,-18,-35,-82,1,-2,-39,-124,-201,-90,-4,16,-92,-341,-1,-15,36,31,35,381927
-62,-29,-16,14,-1,-13,-44,-126,-12,6,-175,-95,-1,-64,-34,-148,-41,-49,-74,-197,-329,-148,-35,-21,-184,-464,-53,-48,-8,-34,61,381928
-144,-34,28,28,-18,-5,-120,-64,118,28,-227,-101,-63,-200,-58,-214,25,27,48,-268,-573,-212,25,86,-303,-763,55,41,85,22,222,381929
-165,-32,48,37,-21,1,-241,-18,176,43,-248,-127,40,-38,-76,-212,75,87,137,-268,-683,-209,73,181,-317,-880,151,117,180,92,329,381930
-169,-31,65,35,-10,-12,-331,-25,186,38,42,28,118,-84,8,-226,83,85,154,-278,-729,-214,67,214,-336,-899,201,119,180,101,335,381931
-269,-56,74,26,-34,-35,-367,-263,171,-33,98,58,61,-122,-44,-305,90,93,202,-348,-907,-287,84,273,-432,-1124,259,159,227,120,417,381932
-261,-59,59,41,-30,-27,-238,-57,222,-30,50,61,86,-46,-30,-314,50,51,154,-351,-927,-312,67,212,-436,-1129,169,108,173,46,322,381933
-245,-38,45,66,-13,-17,-168,-236,206,51,153,57,121,-185,-31,-331,15,20,130,-353,-955,-319,38,173,-439,-1178,117,88,151,12,303,381934
-160,-34,17,60,5,-9,-26,-114,75,41,-51,-52,90,66,42,-234,26,7,86,-228,-702,-196,76,131,-276,-916,57,87,150,-2,194,381935
-128,-46,8,49,-6,-11,-25,-136,29,-106,-323,-47,46,130,-55,-192,62,15,98,-191,-605,-165,103,139,-238,-845,68,97,141,1,224,381936
-142,-42,17,38,-3,3,-131,-27,-39,-66,-187,-82,84,111,-25,-188,64,28,113,-206,-639,-162,99,164,-261,-960,96,95,142,16,256,381937
-170,-51,-6,18,-16,-18,-155,67,-123,76,8,25,-44,58,-37,-188,40,8,104,-202,-628,-141,69,165,-242,-1018,101,89,141,24,262,381938
-159,-28,5,46,-4,-8,-117,-156,-108,54,-184,-6,-41,77,12,-190,46,18,145,-183,-628,-140,72,193,-225,-1099,117,120,161,43,298,381939
-158,-39,3,35,1,-8,-143,-75,28,38,-335,-44,-54,69,-21,-242,-8,-31,114,-235,-703,-217,28,138,-274,-1223,71,73,98,2,194,381940
-129,-39,30,39,16,15,-132,80,94,5,-30,-6,-95,-96,73,-198,34,13,170,-205,-661,-184,87,186,-224,-1247,96,115,147,47,194,381941
-111,-31,42,44,26,29,-145,63,150,-8,124,29,-47,-12,58,-149,91,79,226,-156,-630,-131,138,251,-171,-1281,141,175,225,109,238,381942
-74,-23,11,35,16,17,-125,53,34,-58,199,-14,78,-41,67,-105,104,74,216,-78,-488,-59,139,225,-75,-1132,123,173,207,125,168,381943
-72,-23,-3,30,4,7,-109,-78,6,24,103,43,-48,-44,76,-76,110,87,197,-32,-398,-15,163,192,-34,-1044,110,147,173,110,205,381944
-17,-15,-2,35,18,23,-14,-63,-46,115,142,6,75,9,53,-6,114,83,161,34,-230,32,177,158,59,-837,72,126,166,92,86,381945
58,3,-9,38,40,21,67,129,4,-12,236,79,-111,75,95,107,112,79,106,139,-7,126,150,144,199,-526,54,123,172,92,31,381946
51,19,-13,37,33,21,101,76,14,-39,237,159,-234,197,86,130,97,72,64,160,49,151,137,138,257,-413,31,116,162,77,10,381947
-1,16,-19,27,15,17,85,-24,79,-17,55,34,-54,190,134,54,59,34,16,78,-49,68,91,98,163,-475,-8,52,112,22,91,381948
-90,1,6,25,17,30,-16,-42,-16,-115,-198,-45,-66,168,67,-97,19,18,44,-63,-319,-57,44,134,-21,-775,44,57,114,19,200,381949
-77,-20,4,16,27,41,-95,-80,-82,14,-148,-166,36,16,-30,-128,-2,6,44,-83,-388,-88,3,133,-52,-763,83,51,109,38,140,381950
14,-15,0,28,26,55,-42,-124,-67,81,98,-50,33,1,-108,-85,-34,-38,-50,-26,-210,-50,-11,-10,27,-428,-64,-35,7,-74,-27,381951
