35,15,15,-2,12,25,42,88,103,71,141,6,74,-10,72,16,-42,-38,-46,25,30,15,-31,-52,-45,-92,-51,-35,-46,-64,-4,3592
15,-3,-1,-21,-12,1,33,115,52,-100,297,-28,108,64,33,7,-33,-34,-50,27,29,12,-34,-46,-39,-86,-49,-42,-33,-63,-43,3593
119,17,-35,-5,5,23,137,11,-108,-58,261,68,-210,164,-77,92,-24,-30,-79,106,214,90,-32,-73,51,150,-87,-56,-53,-70,-167,3594
203,32,-45,11,29,46,218,-122,-64,-4,120,151,-343,110,0,156,-65,-55,-145,154,378,149,-62,-141,94,377,-140,-90,-95,-110,-291,3595
215,39,-30,22,52,69,220,226,-150,5,222,24,-37,170,10,153,-64,-61,-143,146,411,147,-60,-150,94,442,-150,-93,-107,-119,-277,3596
149,15,-41,-8,20,39,148,117,-199,-162,311,-48,50,-85,-22,89,-87,-73,-174,72,299,66,-81,-161,11,312,-155,-129,-144,-135,-192,3597
5,-23,-8,-22,-16,9,-7,0,-178,-70,81,-30,28,-126,-39,-32,-80,-55,-126,-43,42,-50,-77,-95,-115,-50,-87,-101,-100,-91,-23,3598
12,-9,-2,-12,-6,7,19,31,-21,-89,-32,-71,166,-84,-27,6,-57,-26,-92,-18,83,-20,-65,-71,-72,-8,-53,-63,-66,-49,-9,3599
13,-5,-23,-21,-22,-14,58,-70,-24,-164,58,-33,178,-47,-62,57,-18,18,-33,39,151,34,-22,-9,-22,93,-5,-3,-15,4,21,3600
11,-5,-27,-11,-21,-28,96,-103,-79,-23,55,60,-95,61,-6,76,25,50,12,60,177,60,24,31,22,128,28,32,23,51,60,3601
-9,-2,-17,-10,-11,-33,68,26,-45,-55,-49,77,27,-38,14,61,32,47,8,42,138,44,37,30,16,46,18,30,19,44,78,3602
14,-8,-12,-16,-4,-3,58,46,28,-56,-299,-20,-154,-61,56,53,-8,10,-44,50,157,36,-12,-16,13,67,-24,-13,-19,3,23,3603
332,77,-47,48,77,102,382,301,5,-77,213,92,-66,109,122,288,-46,-56,-198,272,695,263,-49,-188,251,786,-197,-100,-101,-91,-429,3604
646,140,-108,62,134,139,701,351,-112,26,383,200,-189,412,156,503,-133,-165,-433,444,1278,441,-136,-445,446,1601,-443,-257,-277,-278,-883,3605
639,143,-111,60,140,128,684,319,-6,-39,404,195,-135,233,160,515,-120,-145,-428,445,1333,448,-116,-435,414,1712,-409,-248,-295,-284,-830,3606
425,108,-54,44,95,75,471,123,-36,35,303,118,-180,163,41,380,-86,-76,-305,297,981,292,-102,-300,230,1287,-258,-180,-221,-203,-434,3607
16,9,-10,-22,-32,-49,39,-223,60,-79,-40,-118,99,-153,-76,59,-66,-16,-113,3,243,-13,-83,-81,-97,323,-42,-101,-110,-78,55,3608
-43,-1,17,-22,-32,-33,-43,-44,51,-112,-89,-43,334,-24,-63,29,11,42,34,2,86,-21,-2,53,-86,66,66,11,14,37,186,3609
-73,-20,13,-39,-46,-33,-67,-87,-21,-51,-61,-73,81,64,-85,2,9,34,49,-16,22,-34,-2,66,-82,-37,70,20,24,41,183,3610
-69,-16,2,-37,-43,-31,-47,-32,60,-124,-25,12,39,195,-66,-27,-36,5,-16,-38,17,-55,-53,-5,-108,-37,9,-33,-22,-12,121,3611
-62,-1,14,-19,-28,-30,-47,68,173,-114,16,12,321,-46,41,-10,-1,27,17,-15,16,-37,-24,33,-84,-51,34,-10,8,23,186,3612
-36,-5,-5,-27,-26,-25,-21,-26,153,-7,51,-101,-41,45,38,15,-3,8,16,10,62,-17,-24,9,-52,-5,22,-10,8,1,71,3613
288,55,-50,21,65,50,306,188,37,42,394,57,-148,296,27,234,-59,-76,-176,211,621,202,-61,-214,179,741,-195,-121,-113,-127,-435,3614
571,128,-64,72,151,125,593,322,-187,82,403,177,-156,157,144,444,-100,-130,-368,387,1136,378,-110,-390,351,1455,-374,-214,-244,-247,-752,3615
674,166,-65,92,172,157,698,225,-135,143,526,293,244,53,119,559,-112,-136,-447,492,1406,471,-120,-447,421,1853,-430,-246,-292,-287,-804,3616
487,114,-64,29,92,96,512,209,-41,121,496,205,140,130,99,429,-116,-111,-388,355,1148,338,-135,-376,242,1571,-350,-223,-273,-259,-544,3617
44,12,19,-36,-28,-15,32,14,80,-72,-97,-101,82,-15,58,98,-47,-1,-118,38,315,15,-79,-64,-109,495,-38,-77,-95,-53,131,3618
-55,1,39,-27,-34,-33,-81,-119,38,46,-259,-92,51,-24,18,11,-11,34,-3,-23,58,-52,-34,36,-150,152,62,-4,-2,30,229,3619
-48,-6,6,-34,-30,-51,-57,-76,7,14,-105,-67,-47,-161,9,17,-5,16,7,-19,58,-48,-34,21,-110,175,39,-4,2,13,179,3620
-113,-36,-2,-47,-60,-64,-110,-122,-104,-13,-142,-131,-38,-141,-18,-36,-15,14,31,-72,-90,-104,-37,42,-160,19,41,4,6,19,189,3621
-87,-14,18,-29,-35,-39,-62,-89,-82,-26,-155,-101,-114,-44,-27,-34,-12,11,25,-58,-86,-68,-21,36,-127,19,31,-4,-3,18,152,3622
-13,10,21,-3,-5,-18,17,-74,-77,131,-127,-68,-172,-122,-19,29,-15,16,-12,3,38,0,-14,5,-60,160,15,-15,0,12,24,3623
750,198,-87,124,207,191,851,524,-250,94,365,297,-21,429,162,644,-88,-133,-387,581,1471,591,-74,-443,578,2024,-442,-214,-226,-238,-1146,3624
1395,341,-191,182,360,345,1538,1020,-314,86,755,673,-233,883,280,1139,-241,-336,-883,1018,2792,1021,-230,-945,997,3837,-912,-503,-584,-588,-1973,3625
1389,334,-169,147,344,329,1494,967,-272,28,916,420,-366,646,223,1134,-296,-360,-986,970,2902,946,-305,-998,875,4090,-929,-575,-683,-668,-1767,3626
824,197,-83,35,168,175,865,521,-163,-48,546,122,-320,218,90,720,-251,-225,-736,554,1979,505,-288,-683,369,2940,-614,-452,-537,-492,-876,3627
-106,0,59,-84,-83,-84,-147,-261,26,-45,-228,-247,242,-310,-47,30,-44,44,-102,-85,251,-139,-97,-12,-302,638,35,-76,-132,-57,438,3628
-238,-42,74,-84,-99,-98,-287,-94,48,-57,-363,-351,5,-316,-49,-93,11,81,108,-172,-99,-206,-20,130,-323,102,161,34,19,68,511,3629
-218,-53,71,-71,-80,-71,-268,-155,26,45,-291,-161,-120,-387,-64,-132,-52,13,45,-189,-135,-234,-97,53,-316,15,96,-28,-28,22,334,3630
-162,-31,53,-54,-67,-65,-183,-209,31,-102,28,-135,-39,-139,-29,-70,-32,23,25,-124,-28,-172,-74,34,-243,103,76,-22,-13,26,240,3631
-126,-21,35,-43,-59,-65,-128,-295,-45,-225,-121,-73,-97,66,-72,4,30,69,88,-56,59,-85,12,86,-150,183,100,29,41,80,177,3632
-54,-13,31,-38,-25,-14,-73,-34,24,-126,-142,12,-85,41,-136,12,-8,9,17,-34,139,-54,-21,4,-111,285,27,-29,-18,30,90,3633
564,126,-37,58,150,174,572,426,-194,0,327,130,115,437,127,453,-139,-167,-356,384,1232,368,-141,-410,349,1738,-402,-247,-250,-232,-912,3634
1237,289,-122,147,327,324,1304,795,-236,-67,863,352,-42,448,150,984,-261,-326,-793,846,2555,838,-283,-866,816,3560,-830,-501,-543,-536,-1780,3635
1360,334,-136,149,336,327,1478,814,-133,-30,761,440,-131,443,190,1150,-254,-312,-922,955,2954,949,-277,-947,865,4191,-891,-546,-625,-610,-1755,3636
899,234,-90,59,180,169,991,235,-119,-6,604,172,-152,222,61,848,-180,-187,-688,642,2217,615,-223,-669,458,3334,-596,-408,-493,-466,-895,3637
-135,-13,64,-95,-99,-109,-169,-311,46,-62,-202,-176,80,-308,-89,39,-28,67,-65,-97,247,-145,-101,17,-336,788,69,-63,-106,-42,550,3638
-298,-60,89,-103,-118,-128,-354,-413,158,-148,-276,-227,16,-90,-35,-121,-3,79,93,-215,-206,-260,-69,150,-407,167,174,9,20,68,549,3639
-179,-31,70,-53,-69,-78,-220,-66,205,77,-271,-129,-84,79,-23,-49,22,70,95,-120,-89,-150,-25,129,-277,309,138,26,37,63,363,3640
-158,-36,39,-64,-76,-79,-193,21,159,83,-185,-108,38,-161,-35,-45,10,37,79,-114,-89,-140,-17,88,-240,319,90,12,22,33,241,3641
-173,-41,50,-51,-68,-77,-188,-330,87,54,-196,-137,75,-11,-2,-59,-1,39,84,-123,-143,-144,-17,96,-222,245,95,12,37,40,234,3642
-71,-16,47,-16,-25,-30,-67,-202,79,35,57,-91,-2,-14,-20,23,-12,37,51,-44,12,-57,-11,57,-126,409,61,0,26,36,150,3643
570,143,-47,85,155,135,633,430,10,6,641,197,126,149,146,529,-80,-113,-297,425,1205,432,-76,-352,409,1978,-344,-184,-186,-208,-887,3644
1323,331,-141,187,353,328,1439,977,-280,49,1036,503,-47,693,306,1122,-208,-289,-810,951,2700,951,-210,-880,915,3996,-843,-468,-533,-554,-1869,3645
1281,325,-121,143,321,292,1377,788,-260,48,644,397,-180,430,169,1116,-228,-281,-876,900,2773,878,-247,-892,796,4175,-830,-508,-597,-590,-1594,3646
719,188,-36,35,152,137,743,398,-1,30,138,136,-210,74,174,709,-165,-143,-575,487,1824,449,-212,-547,297,2973,-481,-341,-431,-395,-632,3647
-141,-21,72,-94,-88,-95,-196,-182,9,-90,-217,-358,-85,-275,-85,38,-42,58,-32,-116,250,-166,-94,24,-344,869,71,-47,-91,-30,448,3648
-244,-38,97,-79,-95,-110,-303,-166,38,-146,-361,-289,50,-197,-84,-55,18,94,161,-176,-34,-220,-26,162,-340,421,197,55,51,108,545,3649
-275,-50,91,-67,-102,-118,-326,-211,122,-89,-423,-154,-125,-348,-51,-91,24,89,226,-192,-124,-225,-9,189,-316,263,225,92,84,147,522,3650
-252,-54,86,-60,-90,-102,-321,-142,132,-72,-412,-54,16,-310,-36,-87,19,81,183,-183,-133,-215,-10,170,-288,201,192,88,82,153,434,3651
-257,-66,62,-71,-96,-111,-332,-274,-5,-4,-531,-191,-57,-121,-94,-110,-12,49,91,-216,-167,-233,-63,114,-304,134,127,30,49,111,360,3652
-222,-42,68,-40,-73,-99,-285,-241,59,76,-233,-167,68,-172,-39,-100,7,45,107,-194,-151,-206,-25,116,-272,115,118,37,51,98,301,3653
120,29,4,8,24,3,110,107,43,10,251,-130,462,-94,49,162,-43,-52,-90,59,474,48,-71,-111,13,935,-115,-79,-86,-44,-240,3654
418,103,-52,46,92,71,453,445,-63,64,450,82,435,139,117,379,-117,-148,-335,257,1067,245,-151,-352,210,1755,-326,-223,-242,-210,-618,3655
522,135,-65,47,118,89,576,433,-136,-25,377,197,-110,187,139,447,-174,-194,-486,300,1290,296,-238,-482,226,2108,-428,-315,-340,-301,-697,3656
293,86,-3,13,65,38,309,319,-103,2,237,139,30,4,174,296,-121,-106,-349,142,884,128,-200,-315,25,1617,-255,-235,-260,-204,-248,3657
-136,-14,58,-48,-57,-96,-183,-121,70,41,-278,-80,128,-211,-42,-7,7,48,17,-135,52,-152,-58,60,-259,519,98,-19,-18,28,357,3658
-206,-37,55,-46,-78,-100,-245,-244,157,101,-288,-127,-114,-55,-119,-71,18,65,110,-174,-133,-183,-30,131,-263,284,151,31,55,77,400,3659
-201,-37,67,-39,-57,-76,-253,-80,163,-36,-239,-157,-94,-16,-114,-88,2,52,100,-186,-215,-185,-43,121,-251,213,130,22,53,71,330,3660
-227,-53,72,-48,-70,-86,-321,-145,54,9,-240,-130,210,-237,-130,-144,-12,23,68,-234,-334,-222,-53,96,-287,92,108,3,30,43,338,3661
-168,-42,45,-39,-47,-60,-244,-30,60,-3,-198,-115,40,-129,-56,-88,-14,13,55,-177,-245,-167,-50,63,-214,200,74,-1,28,35,256,3662
-108,-36,30,-33,-32,-54,-170,-42,156,-54,-71,22,24,-7,-9,-26,-6,18,39,-114,-140,-114,-25,40,-140,331,48,-1,22,23,167,3663
-92,-25,22,-30,-23,-59,-136,-44,89,-144,-135,-14,96,-153,-47,7,42,54,71,-81,-81,-65,40,78,-86,366,80,48,68,52,179,3664
-37,2,22,-2,-1,-38,-50,-103,4,-40,61,4,162,-205,-29,76,61,66,73,-23,61,5,47,86,-16,483,76,56,69,65,161,3665
-59,5,34,-14,7,-30,-70,-74,62,-15,-108,-84,-12,-80,-33,39,24,44,52,-58,20,-37,15,62,-58,396,59,25,40,45,133,3666
-88,-23,26,-40,-18,-39,-110,-196,8,-32,-205,-52,-139,50,-43,-31,-27,-12,9,-119,-32,-96,-47,8,-122,317,15,-16,-12,2,73,3667
-147,-39,54,-35,-40,-40,-190,-119,-30,-102,-264,-72,52,-160,-25,-75,0,17,76,-168,-156,-148,-16,65,-164,135,63,33,33,48,199,3668
-138,-32,46,-38,-35,-44,-182,11,26,-140,-32,-84,-186,-166,-41,-68,14,40,51,-163,-141,-142,-18,63,-158,114,73,28,37,52,222,3669
-146,-40,35,-36,-39,-63,-178,-15,43,-15,2,-121,-13,-76,-80,-73,2,34,22,-165,-145,-147,-15,48,-158,94,67,12,37,49,234,3670
-111,-19,32,-26,-32,-40,-142,-93,7,46,4,-48,206,-229,40,-30,33,33,73,-127,-79,-106,33,72,-100,157,81,34,55,71,212,3671
-102,-32,34,-27,-21,-18,-153,-64,37,96,-69,-11,166,-133,-42,-51,-3,10,51,-139,-72,-124,-9,40,-119,150,40,13,10,38,117,3672
-54,-7,62,5,14,8,-120,169,189,172,-210,-82,221,-264,-36,-28,3,20,42,-111,-15,-88,-12,35,-92,205,36,14,11,53,81,3673
138,41,6,33,50,37,132,236,28,266,-86,13,263,-52,19,164,3,-8,-23,74,387,96,3,-58,102,717,-47,-7,-16,8,-151,3674
233,68,-19,30,72,54,247,152,-13,136,-135,-56,-49,306,36,265,39,14,-54,177,610,191,38,-88,184,1025,-71,-7,-28,-5,-148,3675
327,80,-41,36,88,66,342,152,0,31,-46,129,-97,182,5,344,20,-11,-123,232,790,248,18,-153,239,1308,-147,-59,-63,-56,-373,3676
223,76,6,34,66,47,253,141,95,-89,-228,88,-109,205,-56,273,25,9,-107,170,638,167,4,-106,139,1146,-85,-38,-55,-43,-94,3677
-149,-11,28,-28,-49,-76,-116,-228,100,-141,-112,-41,58,-12,-84,1,41,73,52,-86,-9,-92,9,87,-145,320,102,38,32,52,297,3678
-182,-18,40,-33,-60,-60,-161,-225,45,-100,16,1,99,-168,-104,-38,37,67,90,-117,-131,-119,29,95,-152,192,99,37,56,58,243,3679
-94,-8,66,-14,-12,-8,-136,-188,6,-4,-57,-36,-92,-76,1,-44,-4,4,18,-111,-110,-108,-17,10,-131,263,11,-14,1,-9,137,3680
-52,-8,77,-11,17,21,-131,-185,44,-68,-69,-84,-61,-45,7,-48,-33,-22,-1,-98,-102,-93,-43,3,-130,296,2,-30,-14,-25,88,3681
-52,-28,42,-39,-11,5,-149,-58,6,-70,-74,-197,-17,-117,-32,-51,-47,-39,-2,-103,-120,-102,-47,-7,-129,284,-1,-38,-14,-26,25,3682
-39,-2,40,-1,9,3,-110,-249,17,-2,-115,-100,131,-144,19,-17,3,8,42,-70,-107,-59,-10,28,-73,316,33,-2,20,8,36,3683
549,137,-54,93,173,140,546,267,-159,38,500,271,-74,272,162,426,-81,-150,-285,348,997,368,-83,-349,395,1747,-355,-187,-200,-222,-877,3684
962,247,-74,164,290,260,1021,721,-184,-55,798,338,-36,-103,180,779,-142,-203,-572,639,1867,661,-138,-624,660,2915,-598,-332,-377,-395,-1273,3685
967,262,-81,144,267,238,1062,674,-287,-12,599,277,-182,142,126,844,-125,-174,-623,670,2016,674,-158,-642,647,3160,-605,-344,-411,-419,-1218,3686
612,166,-48,60,139,117,678,289,-141,-72,107,73,212,87,45,576,-94,-103,-477,408,1458,396,-138,-450,331,2485,-413,-278,-337,-324,-606,3687
-175,-20,74,-56,-71,-73,-215,-133,70,-33,-415,-157,25,-262,-59,-28,26,103,1,-161,3,-173,-27,84,-255,536,109,2,-19,22,530,3688
-244,-59,52,-71,-94,-103,-300,-399,127,-82,-164,-196,-58,-191,-76,-115,5,73,35,-216,-174,-224,-39,105,-266,242,110,5,18,63,363,3689
-163,-34,45,-48,-58,-70,-205,-75,132,-35,7,-191,268,-248,-83,-55,16,55,23,-153,-63,-151,-30,76,-170,357,73,8,31,63,248,3690
-154,-35,50,-39,-45,-60,-194,-55,120,48,-151,-272,290,-192,-76,-50,29,47,89,-154,-84,-137,7,101,-136,305,94,42,58,86,244,3691
-131,-22,47,-24,-38,-51,-160,-53,144,89,104,-241,-104,-96,11,-50,20,34,88,-147,-65,-126,2,78,-116,303,82,38,44,80,177,3692
-140,-16,47,-18,-33,-49,-159,-214,-98,68,53,-74,234,-224,62,-41,42,72,104,-145,-76,-124,14,116,-100,263,111,66,65,112,222,3693
-127,-16,36,-16,-26,-40,-143,-112,-49,-26,-178,-15,178,-366,-57,-28,56,72,112,-119,-64,-99,22,129,-75,265,114,70,80,111,172,3694
36,16,5,3,12,0,41,-8,-34,-16,110,33,-178,-74,-7,94,37,30,41,13,224,36,28,27,58,647,12,26,41,55,-129,3695
544,142,-53,90,159,148,581,366,-76,36,236,202,-131,158,199,471,-21,-71,-222,368,1135,390,-23,-274,433,1847,-281,-120,-142,-140,-816,3696
546,135,-50,71,158,130,569,293,-89,-38,6,182,67,53,80,490,-59,-86,-333,361,1224,358,-68,-347,374,2031,-330,-186,-229,-220,-631,3697
-61,0,38,-26,-25,-48,-85,-70,53,-84,-258,-37,141,-37,-61,36,21,54,-15,-70,147,-79,-4,12,-112,635,38,-15,-29,-11,249,3698
-144,-16,41,-21,-45,-75,-167,-31,43,-133,-166,-87,29,-116,44,-20,70,89,106,-90,-57,-112,39,112,-125,350,123,57,63,70,306,3699
-236,-54,28,-52,-92,-117,-274,-177,22,-167,-272,-171,230,-326,-52,-107,53,81,132,-150,-265,-178,36,146,-188,114,153,56,83,80,342,3700
-182,-39,43,-32,-62,-67,-226,-227,65,-119,-124,-196,42,-292,-109,-82,48,75,120,-120,-240,-145,30,133,-140,166,146,58,84,72,285,3701
-147,-35,56,-17,-38,-37,-196,-118,64,-38,-87,-154,61,-333,-100,-62,47,65,107,-90,-209,-120,18,107,-120,208,112,61,82,50,268,3702
-105,-22,41,-10,-23,-14,-142,46,7,2,-65,-75,118,-75,-70,-39,31,31,80,-70,-138,-96,6,61,-81,297,56,42,50,9,135,3703
43,10,22,17,18,22,7,136,-1,146,-32,2,198,133,-10,56,11,0,11,8,107,-4,-8,-23,30,600,-27,-11,-8,-32,-79,3704
227,50,-16,35,67,55,228,197,-33,75,-60,59,626,-90,71,212,-5,-34,-98,151,484,144,-25,-131,165,1083,-129,-74,-71,-92,-311,3705
257,61,-36,25,53,33,284,304,16,44,-23,128,301,9,69,255,-9,-34,-130,176,616,186,-32,-159,196,1258,-154,-82,-95,-108,-344,3706
59,17,-9,-8,-14,-26,75,0,-43,43,-304,-58,108,43,-8,109,19,16,-25,34,296,43,-20,-35,40,841,-36,-14,-37,-24,-70,3707
-155,-34,36,-36,-51,-47,-163,-255,-33,37,-494,-162,170,-71,-80,-72,6,46,28,-151,-124,-140,-45,71,-145,280,66,4,12,41,242,3708
-168,-54,39,-39,-51,-35,-207,-203,-62,-95,-257,-104,178,-196,-143,-122,-23,3,-10,-198,-212,-191,-66,42,-164,162,31,-27,-15,11,126,3709
-103,-24,44,-13,-15,-12,-151,-144,29,-151,-107,-165,333,-107,-69,-66,-1,13,9,-151,-129,-131,-26,51,-92,251,24,-4,7,36,57,3710
-95,-16,25,-17,-19,-32,-134,15,-151,-69,-164,-190,5,-94,-43,-71,-4,0,25,-152,-105,-115,-31,40,-68,285,21,-11,-3,38,64,3711
-75,-15,30,-7,-16,-36,-100,-98,-71,-110,-24,53,285,-178,-7,-33,23,25,79,-102,-58,-75,3,77,-17,320,51,27,30,59,109,3712
-43,-8,15,-12,-24,-42,-58,-194,-68,-156,62,50,270,60,6,24,42,51,112,-39,23,-25,31,103,43,405,70,84,75,93,51,3713
-246,-50,59,-46,-76,-94,-299,-165,95,-109,-170,-4,-335,-82,-66,-145,69,102,215,-198,-357,-185,48,224,-127,-100,214,138,137,176,417,3714
-635,-139,112,-79,-166,-184,-692,-388,146,-54,-407,-214,-68,-331,-114,-455,128,182,426,-472,-1111,-469,131,467,-420,-1130,445,246,276,309,953,3715
-863,-198,127,-91,-220,-247,-922,-636,132,-50,-401,-427,225,-173,-203,-640,170,230,587,-621,-1595,-621,174,616,-557,-1845,578,345,384,416,1140,3716
-544,-127,88,-26,-121,-142,-608,-287,164,-16,-151,-287,97,-163,-60,-425,142,153,469,-398,-1128,-391,155,450,-269,-1298,391,278,321,324,610,3717
-136,-46,24,7,-15,-18,-170,-65,198,-122,-2,-90,-90,64,-56,-135,49,32,179,-118,-388,-116,67,143,12,-321,106,111,136,110,3,3718
-24,-12,1,10,10,1,-34,1,35,-92,-154,22,30,-57,-25,-32,26,6,46,-25,-134,-35,36,36,71,29,19,44,48,25,-67,3719
-61,-10,-1,-5,-11,-18,-63,-147,-55,-18,32,23,159,7,11,-29,29,24,41,-27,-144,-50,44,37,36,52,26,41,48,17,13,3720
22,11,-2,14,29,22,14,-38,-6,-49,-114,67,71,192,-89,35,13,-7,14,32,30,18,35,-15,93,314,-24,8,19,-17,-80,3721
-21,-11,3,-20,2,10,-88,-1,1,-86,-166,-66,100,-111,-93,-22,-5,-16,4,-5,-50,-24,12,-3,27,231,-15,-8,-5,-34,-54,3722
-90,-28,12,-43,-23,-20,-192,-14,-36,-53,-172,-138,103,-21,-16,-91,-8,-3,24,-64,-184,-94,-13,24,-52,72,30,4,13,-16,41,3723
-223,-51,47,-38,-56,-36,-341,-132,-25,45,-235,-100,161,-67,-49,-187,26,50,136,-167,-460,-192,21,139,-163,-296,147,73,81,66,327,3724
-669,-156,102,-97,-170,-151,-787,-474,192,43,-518,-227,45,-45,-150,-551,83,148,386,-510,-1336,-526,81,422,-499,-1484,416,214,236,244,958,3725
-960,-225,126,-124,-244,-228,-1039,-703,120,-147,-380,-389,4,-357,-174,-789,114,189,557,-731,-1937,-734,103,608,-692,-2357,577,306,355,364,1196,3726
-692,-155,105,-52,-140,-125,-743,-367,23,-69,-132,-298,169,-259,-194,-609,130,156,496,-534,-1553,-520,144,515,-419,-1950,458,285,348,336,696,3727
68,17,-5,59,75,71,64,101,9,-5,319,222,-13,129,17,-34,17,-31,39,0,-151,36,47,6,169,-139,-46,37,59,30,-306,3728
189,53,-9,84,88,80,207,194,16,158,245,237,283,218,101,77,-12,-44,-84,96,162,124,19,-81,225,308,-126,-22,-22,-39,-335,3729
174,68,-19,77,76,55,211,46,-21,142,33,98,168,341,75,91,4,-21,-72,106,206,125,39,-61,215,395,-107,-18,-23,-24,-251,3730
98,44,-13,58,47,29,142,-120,-66,-5,-17,-40,392,261,-31,54,18,3,-29,58,115,77,46,-19,142,307,-54,-4,-11,-5,-105,3731
-7,17,3,36,10,5,30,-130,-41,-47,-65,-33,68,145,-21,-30,26,19,47,-22,-74,-15,60,51,60,70,33,38,33,33,-2,3732
-80,-10,-11,2,-25,-20,-57,-102,-28,-94,-70,-55,-104,157,16,-95,9,6,38,-97,-208,-83,30,55,-12,-93,51,25,32,30,64,3733
-245,-42,62,-13,-51,-33,-291,-238,66,-48,-316,-53,-125,-16,52,-243,39,63,147,-238,-590,-229,62,191,-171,-609,171,93,112,115,385,3734
-506,-117,98,-46,-121,-104,-585,-332,76,-13,-471,-184,331,-331,-75,-431,99,141,351,-409,-1116,-411,112,383,-335,-1334,354,221,245,246,748,3735
-855,-210,107,-97,-223,-215,-910,-491,134,37,-529,-424,208,-497,-178,-669,181,236,600,-596,-1725,-599,200,627,-518,-2203,590,370,406,410,1194,3736
-626,-152,77,-47,-146,-133,-672,-384,66,84,-416,-113,24,-173,-152,-522,161,179,535,-418,-1397,-410,198,525,-296,-1861,465,323,389,365,703,3737
68,1,-13,44,45,62,53,-7,-109,86,214,230,-47,155,49,-34,17,-34,84,48,-159,51,64,22,204,-228,-24,61,80,49,-283,3738
184,39,-9,66,90,94,182,259,-156,56,313,141,31,284,106,61,9,-50,-22,123,100,124,35,-62,242,139,-93,6,-2,-33,-319,3739
74,24,1,40,45,54,87,133,-41,-65,157,17,51,84,57,11,17,-18,12,65,-22,50,47,-14,142,21,-12,28,15,-12,-140,3740
49,29,0,41,42,51,98,72,22,-1,148,10,126,151,43,24,16,-2,17,65,-11,45,52,-8,134,69,-8,34,28,-15,-111,3741
2,10,-6,24,14,23,60,-68,129,-10,154,24,-85,175,-6,-35,-15,-28,-2,10,-97,-18,21,-17,57,-15,-22,10,-7,-42,-86,3742
-50,-5,2,9,-4,-2,7,-39,73,-117,209,-131,-136,125,-50,-80,10,2,38,-29,-189,-41,39,35,12,-152,27,40,24,-11,65,3743
-422,-87,53,-48,-104,-88,-388,-336,140,-69,-164,-198,-64,-37,-91,-347,68,97,242,-274,-858,-305,93,279,-267,-1045,264,162,167,138,616,3744
-529,-122,59,-70,-134,-114,-547,-401,52,-117,-65,-275,118,103,-92,-455,85,102,341,-350,-1131,-376,117,347,-335,-1448,320,209,233,210,647,3745
-558,-145,93,-61,-136,-105,-632,-468,149,-4,-188,-238,440,-145,-34,-494,102,104,390,-391,-1241,-396,134,392,-349,-1662,353,228,269,241,705,3746
-392,-101,60,-29,-77,-71,-454,-48,167,61,101,-201,180,-211,-11,-375,80,60,301,-272,-960,-266,116,308,-194,-1352,250,178,220,185,455,3747
86,26,-34,58,39,34,110,287,47,124,421,122,-27,70,5,-1,9,-49,25,79,-55,84,52,-17,177,-154,-46,16,37,5,-209,3748
77,37,-43,57,23,28,123,130,70,234,110,160,46,104,-13,25,9,-32,4,77,-13,75,48,-11,144,-60,-37,9,14,-6,-130,3749
33,21,-26,39,20,32,52,-55,27,27,163,94,-252,83,12,-6,25,-1,22,34,-106,30,58,25,83,-150,5,26,36,23,-57,3750
25,18,-6,45,37,35,25,-22,89,-101,14,139,-96,14,-17,-43,6,-6,11,13,-150,1,27,23,41,-202,4,24,25,14,-49,3751
30,16,3,51,40,29,22,76,47,-15,-46,119,16,225,0,-51,9,-9,3,4,-145,-5,11,29,41,-199,9,19,28,13,-42,3752
28,9,-18,28,19,20,63,-156,-26,-146,9,79,-398,194,-22,-9,26,3,2,44,-61,43,45,13,74,-83,5,19,29,6,-35,3753
-241,-43,18,-12,-58,-53,-218,-227,42,-223,-32,-60,-193,-28,-33,-201,70,72,157,-135,-538,-143,98,188,-130,-706,178,121,129,109,354,3754
-452,-104,55,-49,-107,-106,-474,-160,114,-149,-68,-65,189,-283,-60,-394,73,91,281,-300,-960,-313,102,308,-287,-1288,290,168,196,187,561,3755
-782,-191,105,-101,-195,-179,-851,-391,102,-1,-279,-309,138,-337,-80,-669,94,149,453,-561,-1631,-574,109,509,-542,-2208,477,259,308,317,1026,3756
-721,-182,84,-79,-167,-159,-782,-307,83,196,-242,-275,54,-164,-98,-647,99,124,490,-529,-1631,-516,111,502,-447,-2274,456,280,338,330,712,3757
30,-1,-8,21,53,60,1,279,-56,207,149,38,-103,159,45,-94,5,-53,89,-4,-309,8,45,34,129,-556,-12,53,79,38,-284,3758
112,10,-29,10,56,55,93,96,24,90,185,99,-95,152,33,-19,-15,-70,-19,52,-74,70,7,-61,162,-211,-82,4,0,-31,-278,3759
106,28,-30,37,56,47,125,90,46,41,181,62,6,141,-19,12,7,-41,-26,74,-1,89,22,-43,160,-91,-56,10,4,-21,-221,3760
98,34,-49,61,43,29,127,200,101,177,70,17,36,191,75,5,-7,-54,-43,66,18,59,7,-51,134,-41,-63,-8,-28,-39,-215,3761
102,42,-47,67,49,35,182,126,-14,168,174,90,-2,417,113,50,13,-24,-23,103,86,90,21,-29,151,72,-43,6,-4,-8,-180,3762
67,28,-27,37,17,22,152,73,-32,74,39,108,-37,214,34,46,31,-5,10,84,42,76,26,18,119,17,-3,37,28,28,-89,3763
-514,-118,61,-62,-145,-137,-497,-408,31,29,-501,-204,-85,-168,-106,-429,78,109,302,-362,-1053,-377,77,359,-373,-1417,345,181,194,201,778,3764
-860,-203,82,-99,-232,-229,-895,-603,215,-32,-553,-227,-199,76,-176,-722,144,188,545,-596,-1781,-615,157,600,-588,-2466,558,322,376,368,1164,3765
-799,-202,61,-90,-214,-204,-857,-504,250,-42,-332,-140,31,-105,-161,-686,167,192,561,-538,-1753,-549,201,592,-487,-2520,535,340,408,395,1035,3766
-476,-122,23,-37,-104,-98,-521,-285,120,124,-46,-76,19,-70,10,-438,123,103,390,-304,-1215,-304,164,389,-222,-1868,340,245,308,276,438,3767
6,-11,-45,30,35,29,27,93,-56,11,168,124,-109,189,53,-72,33,-37,99,39,-304,45,86,52,129,-663,17,69,100,53,-230,3768
115,35,-38,54,64,67,166,246,11,90,180,166,-77,205,111,37,46,-18,59,139,-31,149,81,1,201,-295,-16,56,62,15,-204,3769
122,27,-40,44,46,61,166,281,-89,-45,104,160,-379,281,111,52,40,-13,36,140,29,146,78,-8,173,-202,-25,44,44,-6,-180,3770
132,24,-42,42,36,67,155,220,-64,-51,149,146,-494,265,109,52,22,-28,-6,145,58,135,56,-31,153,-150,-49,25,16,-30,-200,3771
116,23,-32,41,49,79,129,145,68,85,-95,29,-202,63,31,21,-8,-49,-54,110,38,96,20,-61,99,-151,-68,-13,-20,-55,-202,3772
67,-5,-40,13,34,51,69,144,-17,105,7,-34,-183,12,-61,-50,-66,-95,-114,29,-65,16,-63,-109,5,-231,-112,-85,-80,-97,-181,3773
-85,-37,-13,-11,-17,1,-92,-76,-66,99,5,-6,117,36,-40,-149,-16,-34,-4,-68,-329,-82,-3,9,-98,-575,-3,-1,-9,-21,73,3774
-225,-57,19,-23,-59,-35,-255,-222,91,108,-165,-89,109,-20,-81,-250,27,29,109,-154,-597,-169,51,138,-184,-961,125,82,84,69,319,3775
-469,-120,43,-67,-133,-101,-535,-435,32,70,-430,-114,105,-32,-131,-437,62,91,252,-333,-1069,-348,80,304,-348,-1594,283,156,191,165,678,3776
-388,-105,17,-30,-97,-75,-433,-235,3,82,-221,-121,-99,150,-61,-389,58,59,255,-270,-972,-273,78,276,-241,-1515,243,145,197,166,424,3777
184,38,-61,72,74,90,214,96,-161,35,398,108,-152,174,70,51,-16,-84,-67,150,89,157,17,-98,208,-117,-126,-36,-20,-51,-410,3778
203,50,-43,69,73,103,221,-84,-127,100,255,138,12,17,38,80,-35,-76,-99,147,165,151,9,-122,177,44,-150,-57,-65,-78,-360,3779
221,43,-39,60,72,98,236,78,-116,222,200,120,-57,162,55,90,-40,-66,-107,142,203,149,-12,-118,181,137,-139,-54,-68,-76,-322,3780
144,44,-33,52,47,48,180,-25,-146,103,233,131,-104,248,88,68,8,-6,-46,119,105,125,8,-30,142,33,-39,10,-14,-2,-158,3781
91,32,-33,34,37,19,141,92,-186,-106,121,263,-188,259,92,45,20,6,-10,81,28,95,27,7,111,-31,-4,31,3,14,-110,3782
36,13,-18,18,24,26,60,-40,-199,-171,120,110,-102,82,-1,-33,-20,-31,-39,6,-84,12,-4,-23,25,-167,-37,-24,-34,-11,-29,3783
-338,-98,29,-65,-84,-70,-358,-335,-4,-129,-172,-205,-222,-284,-134,-339,0,13,105,-269,-772,-271,2,165,-291,-1076,150,55,65,81,508,3784
-469,-115,68,-63,-127,-88,-495,-445,37,60,-202,-283,-543,-153,-98,-398,89,109,286,-303,-1021,-311,96,340,-309,-1516,312,182,208,222,671,3785
-405,-101,44,-37,-97,-77,-435,-162,-25,223,-231,-152,-259,-152,-40,-372,84,97,274,-255,-946,-264,91,294,-255,-1483,277,162,206,215,565,3786
-165,-39,-1,17,-26,-22,-183,50,21,93,-51,192,-229,-35,-32,-205,53,33,153,-88,-547,-98,79,143,-62,-980,124,95,127,124,182,3787
106,29,-28,48,57,51,98,169,-20,68,165,183,-315,100,51,11,14,-36,9,90,-42,101,53,-18,134,-304,-29,20,23,5,-217,3788
73,14,-36,6,28,28,79,-64,-24,-31,207,79,-215,-38,112,29,26,-10,27,100,-17,107,60,-6,113,-263,-4,45,37,6,-110,3789
-5,-10,-35,4,-6,0,6,-247,8,51,200,107,-156,-63,70,-16,56,31,81,56,-126,62,75,55,67,-411,52,80,68,38,16,3790
30,11,-17,24,13,22,54,-264,81,129,172,205,-407,43,78,9,43,14,43,84,-52,87,64,28,86,-329,24,60,54,17,-44,3791
42,1,-27,8,18,24,40,-56,12,18,79,93,-163,79,59,-25,-3,-30,-44,52,-43,49,31,-38,44,-302,-44,-2,-4,-47,-60,3792
127,33,-13,47,57,80,124,64,71,71,58,140,240,114,44,32,-9,-44,-73,110,97,114,25,-79,107,-110,-84,-33,-36,-68,-147,3793
83,22,-30,30,33,40,125,-52,54,125,137,31,162,156,9,30,-10,-28,-53,102,93,105,-2,-67,87,-104,-64,-29,-38,-66,-125,3794
84,15,-50,6,23,27,124,-150,38,36,21,56,-469,79,23,30,-40,-62,-92,95,121,104,-51,-96,78,-54,-95,-57,-62,-82,-194,3795
163,29,-37,2,52,77,142,232,51,-171,-48,200,-238,-157,4,67,-63,-82,-113,128,207,131,-42,-126,98,95,-128,-76,-84,-106,-245,3796
80,5,-21,-15,24,51,68,191,-80,-92,-37,36,-39,-31,-18,30,-13,-26,-51,94,80,83,9,-52,53,-50,-48,-31,-33,-47,-63,3797
113,44,-22,39,43,55,149,94,17,77,27,-48,-26,4,52,101,47,24,-21,152,147,146,60,-3,124,48,-4,19,24,2,-31,3798
30,25,-13,38,13,27,52,96,-15,42,-61,-50,3,66,32,21,27,28,-2,69,-24,68,41,28,39,-139,37,29,36,20,53,3799
70,14,-9,25,28,42,86,69,-49,103,-49,29,-35,147,58,23,-7,-24,-46,59,8,72,-1,-21,60,-54,-36,-13,-12,-13,-72,3800
70,20,-9,17,15,26,93,113,-30,15,63,99,-38,-49,120,30,24,6,-19,78,20,83,22,-2,63,-32,-17,5,0,7,-31,3801
69,47,-5,44,25,12,129,16,15,87,116,232,134,91,99,62,58,43,13,103,39,102,52,38,94,8,19,41,48,50,45,3802
86,45,-8,51,34,31,140,146,-1,179,172,272,167,-46,88,79,45,17,15,114,69,114,40,17,113,64,-2,38,34,44,-56,3803
-14,-1,7,14,1,11,2,-16,-20,155,-102,87,109,-205,52,-35,3,-24,8,2,-118,-10,-9,10,-24,-192,-5,0,-10,11,34,3804
-143,-45,8,-19,-35,-30,-143,-58,11,75,-120,-10,-138,-266,-29,-123,32,14,88,-78,-347,-85,37,91,-111,-540,79,49,49,59,192,3805
-83,-10,14,3,-3,-7,-85,-52,-13,95,-39,8,-26,-4,22,-73,42,39,95,-23,-266,-22,44,95,-38,-471,103,70,75,78,172,3806
-15,9,10,19,18,17,23,-42,-93,-4,69,131,-121,234,-22,7,35,29,66,64,-83,54,37,41,50,-260,60,68,69,62,38,3807
-36,1,18,10,5,25,4,-94,20,-58,3,-55,265,210,-58,-13,46,31,85,31,-117,36,44,59,32,-309,69,70,72,46,29,3808
64,18,-1,11,43,46,80,-113,-72,-100,-91,-72,93,55,50,45,21,-2,19,95,66,97,26,-17,94,-92,-7,23,13,-15,-99,3809
41,1,-10,-5,18,20,57,75,-42,39,-197,29,12,134,58,25,-6,-25,-21,80,72,79,-9,-43,65,-104,-35,-7,-20,-42,-100,3810
43,10,-11,5,15,25,63,264,42,68,-21,8,-145,-57,17,29,5,-6,-19,80,75,94,-2,-38,74,-105,-25,-7,-11,-32,-107,3811
121,22,-34,10,29,33,140,177,7,60,269,92,-117,-8,-13,95,-13,-28,-69,139,236,152,-7,-99,133,132,-86,-40,-53,-71,-215,3812
113,16,-26,4,32,31,121,333,33,73,245,72,-65,-109,-29,74,-31,-43,-84,119,213,104,-29,-107,100,122,-96,-51,-66,-94,-214,3813
63,7,-16,-5,23,21,56,177,93,-8,-11,-44,44,16,-11,32,-9,-22,-36,69,83,54,-24,-53,53,-37,-38,-26,-37,-58,-59,3814
126,35,-27,27,36,44,136,55,28,17,142,-22,-9,295,-31,98,-3,-17,-53,124,207,121,-21,-73,112,118,-55,-30,-46,-59,-142,3815
320,94,-37,76,93,89,352,165,-1,128,294,174,-243,314,134,246,-31,-67,-162,261,569,257,-40,-190,247,620,-180,-89,-115,-129,-427,3816
279,74,-42,49,66,66,303,93,-24,17,332,161,35,-92,117,215,-47,-69,-198,220,540,217,-53,-208,187,639,-191,-115,-152,-155,-298,3817
38,13,-8,20,12,4,38,-37,11,-51,44,-24,20,-45,64,36,-10,-2,-53,49,105,51,-30,-29,3,73,-21,-26,-42,-29,47,3818
27,7,-3,6,7,7,9,-29,2,15,-6,-58,-120,-3,-55,5,-16,-18,-53,33,25,14,-45,-24,-24,-5,-16,-36,-39,-14,-32,3819
72,6,-16,-5,14,25,44,47,-93,-45,18,-22,-120,-248,-56,24,-14,-34,-63,47,76,44,-38,-50,13,85,-65,-55,-54,-40,-110,3820
61,-5,-20,-17,-1,3,41,80,-84,-65,-28,28,-133,-236,-14,20,-9,-29,-57,40,59,43,-34,-58,5,116,-67,-47,-50,-36,-84,3821
-8,4,19,-7,-7,-5,-32,-21,40,96,-140,-42,100,-192,-9,-16,28,12,22,1,-69,7,15,19,-24,-29,7,16,4,20,104,3822
8,10,0,-4,-8,-5,-16,-31,59,233,-185,74,93,-96,18,-17,7,-13,15,16,-60,8,8,-6,-5,1,-10,3,-1,3,-5,3823
149,35,-39,8,19,16,144,153,1,140,60,88,165,-88,59,98,-10,-38,-64,117,218,112,-20,-106,107,321,-100,-44,-56,-60,-219,3824
46,21,-10,7,8,2,54,277,-39,132,-238,-47,198,-282,39,39,4,2,-4,54,56,42,-32,-22,29,70,-15,-5,-19,-14,-64,3825
268,74,-42,41,73,62,300,282,-73,-25,-100,135,-148,150,6,207,-29,-63,-124,226,480,214,-46,-160,217,601,-144,-77,-89,-88,-394,3826
352,92,-41,53,86,84,384,247,-114,-55,-56,166,-161,247,63,292,-18,-37,-162,292,676,284,-28,-195,271,861,-166,-93,-114,-112,-346,3827
102,29,-16,2,12,7,104,39,-154,-21,58,-16,-104,107,71,119,37,41,-37,125,244,111,14,-27,79,306,-9,-5,-25,-21,3,3828
12,-9,-10,-30,-16,-28,-3,60,-100,-73,-110,-48,-258,41,-21,4,-15,-2,-39,18,53,16,-20,-38,-21,68,-22,-33,-42,-43,-16,3829
-27,-19,-5,-38,-28,-30,-46,-22,-72,-9,-260,-15,-19,-89,-35,-46,-44,-38,-47,-26,-23,-31,-65,-47,-60,-51,-31,-47,-58,-70,-31,3830
-1,-12,-9,-35,-14,-15,-10,10,-135,32,-108,-15,-27,47,-75,-13,-20,-21,-35,-1,27,-5,-59,-35,-25,-3,-25,-42,-40,-46,-9,3831
18,10,10,-12,-2,3,21,101,-118,-47,65,-2,-104,-176,-30,32,14,11,8,40,61,34,0,-10,25,39,2,-2,-6,-18,46,3832
-27,10,15,2,-11,-16,-24,16,-17,39,141,-2,274,-127,-11,9,38,31,66,20,-19,13,40,48,12,-87,43,39,32,26,106,3833
127,34,-7,30,38,16,141,50,30,226,287,131,-162,20,22,102,-17,-32,-54,117,264,111,-37,-70,122,278,-76,-48,-39,-51,-166,3834
546,140,-65,98,165,144,623,283,-145,139,391,359,84,404,166,459,-46,-100,-264,447,1072,446,-73,-301,474,1353,-315,-153,-162,-190,-778,3835
1236,321,-164,190,339,313,1389,792,-262,-23,991,530,-229,761,228,1014,-139,-251,-661,938,2430,942,-141,-758,972,3202,-742,-377,-439,-462,-1697,3836
961,251,-124,113,226,212,1078,509,-77,-162,609,329,-138,283,173,823,-152,-199,-632,723,2066,702,-169,-667,654,2859,-611,-365,-459,-440,-1032,3837
-41,2,3,-55,-71,-79,-24,-51,71,-226,-232,-58,39,-170,-60,61,-9,35,-68,12,234,-21,-57,-23,-133,494,25,-54,-90,-51,341,3838
-145,-16,25,-43,-77,-84,-138,55,34,-53,-146,-69,20,-61,-44,-38,28,66,35,-66,-53,-87,-12,75,-172,83,106,16,3,29,390,3839
-155,-29,26,-37,-71,-72,-143,-66,43,-127,-187,-71,19,112,13,-50,19,50,73,-76,-134,-98,-3,84,-161,-18,97,33,26,44,296,3840
-79,-18,34,-28,-30,-22,-68,-164,-52,-74,-100,-66,48,101,-74,-4,4,20,40,-23,-21,-42,-6,36,-88,134,44,5,9,8,151,3841
-6,-14,24,-42,-20,1,-31,-132,149,-116,19,-165,156,-32,-124,16,-34,-31,-30,-1,79,-5,-56,-42,-45,274,-27,-49,-42,-33,-8,3842
22,1,13,-29,-2,-1,-15,-83,78,-80,45,-153,-6,-127,-77,14,-53,-40,-67,10,107,-7,-67,-69,-37,328,-51,-65,-65,-61,-73,3843
76,28,-7,-13,8,-3,67,112,107,-79,168,-10,-32,187,16,119,17,34,-42,108,249,93,3,-26,68,471,-18,-8,-13,-2,-54,3844
-33,-3,13,-19,-16,-15,-33,-79,63,-77,123,50,320,-119,-10,37,6,28,-7,13,68,2,-21,3,-24,210,27,6,-1,8,77,3845
-109,-14,40,-23,-30,-17,-117,-190,31,-131,-73,-111,128,-40,1,-55,-12,-13,8,-77,-110,-94,-38,17,-116,-43,31,-18,-11,-11,123,3846
-86,-21,8,-40,-36,-27,-101,-199,58,9,-3,-11,36,53,6,-51,-22,-11,-9,-63,-99,-73,-34,0,-90,-23,6,-29,-26,-23,74,3847
0,0,-12,-20,-15,-13,-23,-39,107,-54,81,55,28,1,43,18,-9,-1,-17,16,58,-1,-20,-32,3,163,-33,-24,-23,-23,-35,3848
15,11,21,9,3,10,-30,138,89,-109,59,46,2,9,-121,6,2,7,8,2,28,-18,-11,-4,-18,107,-9,-18,-21,-6,13,3849
95,27,28,19,45,44,49,197,137,-7,48,57,337,-149,-64,38,-41,-54,-66,39,153,13,-50,-87,15,263,-72,-75,-82,-59,-97,3850
77,15,23,1,36,23,33,110,83,2,193,34,152,-235,1,35,-44,-45,-70,23,143,8,-48,-77,4,259,-69,-71,-75,-55,-56,3851
15,-4,16,-22,-7,-15,-3,-12,54,-28,153,-68,-17,-92,56,24,0,2,-14,17,90,10,-30,-21,2,181,-10,-23,-19,-6,16,3852
-29,4,8,-13,-25,-31,-46,2,90,-12,-110,-67,-206,-65,101,11,32,35,51,8,25,5,15,48,4,82,53,31,32,41,88,3853
0,15,0,6,-20,-21,10,49,-81,-40,-86,50,-185,-15,-10,46,37,31,36,39,93,38,18,27,38,164,36,16,24,35,47,3854
-207,-56,19,-50,-73,-83,-217,20,-49,-62,-133,58,-85,-90,-70,-106,48,68,127,-120,-292,-128,20,134,-130,-329,137,53,74,87,349,3855
-447,-110,67,-71,-119,-131,-456,-245,71,-30,-238,-206,191,-189,-52,-303,82,123,281,-290,-776,-291,50,292,-300,-989,297,149,175,200,588,3856
-262,-51,57,-11,-49,-73,-258,-333,-22,-21,-186,-98,25,-52,31,-187,78,95,234,-157,-510,-151,63,220,-134,-680,210,143,158,166,261,3857
-10,-10,27,-5,16,10,-17,-96,4,188,-33,-37,41,27,8,-27,4,-7,72,-10,-67,-4,-2,25,34,-99,10,29,25,34,-102,3858
79,1,-8,-14,28,27,80,71,-3,68,-9,-65,35,-45,11,48,-28,-44,-18,50,138,58,-28,-58,87,182,-66,-25,-38,-36,-188,3859
-12,7,-1,-1,7,-12,21,9,96,-40,27,-30,-48,-251,-8,35,44,36,65,42,48,49,33,44,54,75,49,45,35,41,23,3860
-18,0,-13,13,-4,-22,18,81,-3,33,-12,-43,-32,-229,18,41,61,54,85,43,25,51,45,61,56,79,69,64,69,55,67,3861
-7,-5,-27,9,-8,-12,11,77,-118,-1,71,-39,31,-199,-27,27,26,28,44,27,17,24,24,11,31,96,31,22,34,23,13,3862
-4,-11,-15,2,1,-6,16,53,41,-12,146,-25,56,73,-22,28,29,20,-7,10,23,10,14,-6,6,98,13,-3,-5,-6,0,3863
45,13,-10,25,22,7,63,7,125,-105,168,39,-29,270,19,58,25,19,-30,44,91,46,19,-31,30,174,-8,-11,-27,-24,-62,3864
-94,-15,15,-2,-16,-36,-141,-49,92,-35,-131,53,-278,237,-36,-91,10,26,58,-83,-196,-79,-4,49,-103,-213,66,18,17,8,142,3865
4,0,-4,1,4,-8,-67,35,97,-52,-93,74,-13,110,-38,-9,15,-4,50,1,-18,10,9,13,12,-3,14,23,15,6,-49,3866
62,4,9,1,28,28,-26,68,125,30,7,-7,470,-131,86,30,-7,-24,8,31,90,37,-19,-27,34,122,-23,-13,-23,-17,-119,3867
30,-9,17,-8,11,8,-33,-5,53,70,33,-20,22,50,73,16,-6,-6,-8,30,66,19,-25,-22,21,88,-9,-14,-20,-10,-5,3868
-7,-3,15,18,4,6,-8,178,18,175,117,14,-168,144,9,-5,7,1,21,0,-9,4,0,9,4,10,25,3,8,17,42,3869
-2,14,5,23,4,7,61,233,25,8,198,-82,110,35,-81,-14,-5,-17,37,-5,-13,4,12,15,4,29,18,7,14,10,15,3870
-20,-4,-5,13,-12,-16,24,156,-1,-60,90,-5,516,69,-41,-54,-29,-28,13,-34,-76,-50,-14,-5,-35,-41,-9,-21,-16,-18,-6,3871
-24,4,-7,10,4,-9,16,161,-48,-68,-6,77,372,-36,-21,-40,-8,-15,4,-23,-73,-34,-18,0,-27,-60,1,-21,-10,-8,37,3872
-20,11,8,15,8,-9,9,25,-108,-19,-143,72,-28,50,-39,-29,16,21,21,-24,-76,-16,5,29,-25,-92,35,6,10,23,79,3873
-24,2,10,8,0,-4,7,205,-113,-67,-206,31,-212,-95,-25,-23,-9,-4,17,-27,-59,-20,13,6,-16,-62,17,-2,10,15,-7,3874
-90,-22,24,-3,-23,-15,-82,2,-43,-105,-369,46,-67,-382,-2,-68,27,27,122,-53,-173,-53,62,85,-48,-217,90,64,64,69,165,3875
-239,-50,41,-26,-59,-62,-223,-295,114,14,-307,-90,100,-297,-61,-193,45,58,163,-153,-443,-157,51,155,-144,-582,162,89,101,107,329,3876
-91,-7,24,4,-8,-3,-49,-91,99,82,-77,-46,-1,66,-60,-89,-7,-3,13,-69,-190,-61,0,20,-36,-263,38,1,26,32,34,3877
-37,-12,-7,-13,-13,-3,5,-8,-67,-18,122,67,112,-28,-58,-50,-40,-42,-34,-41,-68,-37,-31,-44,-8,-109,-32,-30,-30,-26,-36,3878
-22,-9,-13,3,-6,-5,29,-133,-42,-96,96,55,48,109,1,-24,-12,-9,13,-26,-43,-20,-2,-6,13,-63,-6,2,-4,-6,5,3879
-46,-14,-2,-1,-9,-16,-26,-58,48,-70,18,-16,-125,307,0,-51,12,8,38,-44,-107,-43,9,38,-18,-149,50,27,20,33,88,3880
-38,-11,9,1,-7,6,-52,-16,94,-51,57,-39,-73,270,9,-50,10,6,39,-41,-122,-33,18,44,-16,-159,50,31,30,32,55,3881
39,-11,-11,0,22,30,27,110,-39,-28,-70,12,-256,49,83,5,-16,-25,-19,16,50,33,0,-27,35,68,-22,-20,-16,-25,-144,3882
23,-16,-1,0,11,19,-5,-105,43,-64,-181,-50,-139,-17,53,-7,5,0,-14,1,38,12,12,-1,6,38,-2,-11,-11,-7,-2,3883
13,-2,8,9,9,13,7,111,-11,-63,-8,-58,-188,55,37,-11,15,11,15,0,22,13,24,10,20,3,8,4,11,15,22,3884
-86,-22,25,-7,-26,-16,-80,-76,-36,71,-26,-73,-73,75,-8,-98,8,18,49,-84,-175,-70,18,64,-72,-254,62,12,23,34,158,3885
-347,-96,48,-48,-102,-88,-352,-120,-25,146,-266,-151,106,-214,-81,-312,32,60,184,-277,-681,-273,43,213,-287,-931,186,96,102,109,468,3886
-428,-130,47,-56,-116,-112,-434,-268,-8,-34,-365,-209,227,-372,-124,-396,54,74,277,-344,-895,-323,80,274,-318,-1250,245,136,162,157,496,3887
-8,-20,-22,15,9,5,27,-44,51,81,113,-17,-152,-225,22,-68,-3,-22,38,-30,-153,-7,33,14,13,-277,-8,8,27,14,-57,3888
14,3,-24,22,6,4,51,-11,-22,106,208,0,-84,-66,50,-15,9,5,24,10,-78,23,21,17,32,-150,8,19,33,19,-43,3889
115,28,-22,34,40,35,135,46,-31,-36,307,8,15,180,91,73,6,5,-9,92,111,113,24,-9,120,111,-16,5,26,11,-150,3890
82,12,-20,20,27,34,106,-128,4,53,84,-35,-41,163,77,50,-14,-20,-32,71,113,87,4,-30,91,138,-26,-15,-13,-10,-138,3891
46,19,-1,22,28,36,60,-251,-35,-44,-154,-75,-28,153,-6,16,-9,-12,-7,37,22,45,9,-5,52,32,-8,-14,-9,8,-16,3892
9,-3,13,8,10,26,-4,-182,-137,-113,-141,-90,154,61,19,-18,2,10,18,11,-67,24,19,27,14,-67,24,15,12,22,34,3893
-316,-90,38,-55,-98,-78,-353,-356,5,-76,-242,-284,92,-209,-34,-257,39,82,192,-226,-652,-212,55,217,-234,-844,205,114,120,134,449,3894
-549,-139,57,-97,-166,-161,-594,-156,116,-25,-347,-335,-63,-441,-94,-464,46,96,292,-402,-1118,-388,79,330,-403,-1474,326,164,188,197,702,3895
-1097,-283,117,-181,-318,-295,-1192,-498,270,-26,-648,-367,263,-586,-250,-900,124,217,611,-805,-2183,-787,146,669,-795,-2933,655,335,399,399,1458,3896
-1008,-258,115,-126,-247,-236,-1091,-508,226,-32,-762,-330,186,-391,-157,-833,179,226,712,-707,-2137,-669,209,719,-614,-3002,665,410,491,472,1125,3897
44,8,-17,63,58,59,73,189,-62,188,169,182,9,279,125,-13,74,24,179,68,-227,118,148,102,244,-554,64,134,159,123,-277,3898
177,27,-54,52,71,85,222,215,-60,88,292,199,-89,152,167,106,15,-27,6,157,175,207,88,-50,298,-23,-60,27,31,-6,-347,3899
124,26,-25,45,61,70,152,95,-43,126,74,160,-138,336,88,60,-9,-15,-13,100,124,137,48,-37,202,-76,-37,18,10,-12,-202,3900
94,27,-6,29,51,59,100,63,-41,61,48,81,71,236,37,23,-27,-21,-18,50,87,87,32,-23,140,-115,-27,7,-9,-19,-161,3901
111,28,-7,36,59,59,109,20,-64,25,-23,26,-75,279,57,27,-5,-8,-24,64,131,95,49,-25,136,-53,-23,13,-7,-23,-151,3902
-36,-16,-8,11,-7,-1,-36,-85,22,-37,-163,-60,-121,154,32,-53,31,49,55,-27,-96,3,81,70,23,-353,87,73,47,47,169,3903
-1288,-312,167,-188,-354,-330,-1393,-992,263,-171,-1121,-500,118,-654,-321,-1030,158,303,719,-950,-2426,-939,197,833,-987,-3428,838,429,459,487,2011,3904
-2221,-558,285,-310,-590,-558,-2411,-1471,576,-184,-1658,-802,66,-852,-440,-1804,300,487,1334,-1608,-4349,-1596,359,1449,-1608,-6114,1403,751,883,897,2987,3905
-2107,-533,268,-246,-516,-486,-2280,-1309,571,35,-1253,-696,225,-696,-369,-1763,334,471,1414,-1506,-4382,-1473,419,1454,-1392,-6330,1366,805,963,958,2639,3906
-1331,-343,138,-99,-282,-253,-1402,-748,326,119,-670,-357,60,-426,-162,-1206,231,251,1045,-943,-3107,-878,355,986,-696,-4746,874,620,748,704,1352,3907
156,6,-65,125,130,163,214,324,-86,258,319,293,77,265,98,-87,12,-108,181,101,-406,187,165,34,421,-1160,-59,131,183,104,-652,3908
363,58,-109,117,163,179,425,270,-80,126,465,324,212,340,144,133,-36,-115,-82,257,155,328,80,-154,477,-321,-207,-3,-2,-62,-697,3909
271,53,-83,96,122,131,318,355,-123,194,431,312,-122,509,147,115,-5,-46,-71,204,78,274,105,-92,381,-337,-138,22,12,-34,-454,3910
214,44,-71,74,98,97,255,327,30,266,244,214,-244,358,137,68,-19,-51,-74,154,0,205,82,-96,292,-347,-121,4,-14,-52,-401,3911
173,22,-70,49,84,75,211,326,20,-10,143,185,236,429,113,41,-24,-52,-70,116,-49,167,64,-84,231,-375,-104,4,-23,-59,-336,3912
126,17,-55,47,61,63,175,193,37,48,87,145,27,208,122,34,4,-11,-48,107,-93,149,68,-45,200,-415,-67,19,2,-44,-165,3913
-555,-146,29,-64,-132,-122,-570,-371,184,-123,-533,-235,367,-256,-60,-499,66,131,317,-399,-1324,-366,135,369,-363,-2035,348,205,210,191,896,3914
-1337,-329,154,-167,-330,-310,-1455,-822,282,-159,-920,-673,184,-507,-269,-1146,171,285,786,-972,-2888,-950,237,885,-944,-4163,848,457,529,530,1893,3915
-1720,-430,196,-201,-417,-388,-1894,-1204,242,34,-1123,-665,-28,-397,-317,-1480,242,367,1079,-1241,-3745,-1205,328,1167,-1150,-5434,1092,638,744,735,2276,3916
-1236,-331,127,-109,-262,-231,-1390,-653,157,158,-666,-283,-71,-187,-204,-1168,192,239,929,-906,-3021,-843,309,911,-687,-4643,807,546,661,615,1307,3917
180,12,-64,121,140,155,179,460,-71,184,302,323,-92,378,109,-77,-4,-93,95,95,-384,187,130,-8,408,-1238,-94,91,135,58,-666,3918
375,72,-99,123,156,164,415,514,-61,206,328,336,59,353,66,121,-40,-121,-122,237,191,325,75,-180,485,-457,-228,-17,-31,-94,-733,3919
363,86,-91,117,144,141,413,309,-17,271,339,381,35,258,86,144,-31,-91,-142,240,321,323,75,-189,436,-287,-201,-32,-56,-109,-591,3920
274,60,-74,76,104,108,309,158,-9,190,358,339,-35,236,47,69,-60,-101,-162,145,231,218,31,-180,305,-371,-185,-55,-79,-116,-428,3921
218,43,-75,73,81,89,264,170,-117,264,175,260,-145,142,48,59,-19,-61,-112,145,211,208,58,-113,267,-380,-138,-19,-41,-71,-315,3922
172,40,-47,67,64,71,222,256,-148,60,109,201,-219,182,122,42,10,-10,-40,142,167,200,77,-37,240,-438,-63,30,4,-16,-182,3923
-501,-135,40,-60,-122,-108,-524,-378,-61,55,-301,-176,21,-191,-77,-509,35,82,273,-379,-1065,-341,88,316,-337,-2056,301,179,172,165,779,3924
-956,-242,92,-122,-236,-209,-1018,-586,126,-29,-557,-419,214,-422,-199,-863,126,198,599,-690,-2025,-659,194,647,-636,-3369,612,369,406,412,1314,3925
-813,-215,50,-81,-186,-156,-833,-556,126,16,-632,-270,-209,-233,-167,-758,127,179,573,-569,-1880,-524,215,587,-453,-3216,537,354,415,392,1010,3926
-379,-107,-2,15,-53,-37,-344,-87,13,-13,-277,-28,-459,56,-58,-425,81,75,352,-257,-1166,-201,175,337,-89,-2273,280,237,298,250,332,3927
226,62,-71,117,103,114,335,287,-82,71,136,280,-166,276,52,53,9,-55,6,187,-35,253,100,-36,376,-744,-84,52,73,24,-460,3928
319,81,-98,92,109,108,423,292,-231,-39,195,215,-114,270,30,158,-20,-74,-113,264,229,318,82,-135,410,-313,-161,-13,-14,-76,-494,3929
234,40,-103,55,69,67,297,131,-184,31,-13,251,-307,183,64,115,-15,-50,-112,201,130,252,52,-109,312,-385,-134,-15,-29,-81,-329,3930
263,54,-89,65,73,84,327,175,-102,36,41,262,-141,100,68,153,-18,-48,-143,242,210,280,23,-129,326,-237,-149,-30,-45,-99,-340,3931
251,52,-84,73,69,73,312,167,-125,149,190,193,-353,136,114,125,-47,-71,-153,208,196,249,4,-134,283,-217,-155,-45,-68,-114,-333,3932
201,30,-82,39,57,52,263,183,-39,23,283,173,-147,21,54,65,-93,-106,-174,142,129,167,-40,-170,194,-251,-179,-97,-118,-143,-347,3933
29,1,-45,6,16,17,45,138,-12,-4,214,74,84,-39,19,-73,-35,-51,-84,5,-217,29,7,-52,35,-692,-57,-38,-56,-74,-44,3934
-5,2,-22,20,4,22,-7,-47,-2,147,217,-170,72,174,3,-97,11,4,-19,-11,-315,19,52,26,20,-849,7,14,9,-6,34,3935
51,2,-47,23,18,37,51,115,-75,56,28,-90,-113,102,22,-39,-13,-33,-34,30,-193,58,24,-7,80,-706,-25,5,1,-16,-67,3936
78,5,-40,18,41,57,96,229,16,16,-41,10,70,103,45,-17,-20,-49,-22,53,-106,77,38,-27,107,-598,-45,5,-8,-30,-134,3937
172,32,-54,37,50,63,211,273,-18,-87,-54,12,-89,185,33,69,-13,-32,-77,133,129,175,45,-81,190,-331,-96,-23,-33,-56,-223,3938
189,51,-60,48,49,58,245,176,-87,-30,117,101,-131,298,19,113,10,-3,-72,184,257,218,40,-73,222,-213,-90,-16,-21,-31,-244,3939
199,44,-61,31,51,63,265,228,-112,-96,33,137,26,381,23,102,-55,-66,-126,166,323,194,-27,-146,191,-107,-141,-59,-78,-85,-316,3940
147,30,-40,21,45,59,203,118,-114,-12,136,148,-134,252,26,64,-66,-52,-149,119,272,145,-50,-144,133,-176,-134,-85,-94,-84,-254,3941
154,36,-11,27,63,76,183,69,75,135,373,57,79,91,84,63,-55,-50,-142,108,275,140,-39,-132,117,-178,-125,-76,-98,-75,-204,3942
152,32,-26,19,48,69,185,101,-49,68,231,94,146,13,-35,47,-83,-88,-141,88,267,118,-42,-154,111,-148,-156,-91,-109,-104,-275,3943
88,7,-27,-8,23,50,92,54,-115,28,-13,40,19,-108,-31,-9,-88,-95,-130,21,145,47,-68,-125,46,-313,-131,-88,-95,-91,-165,3944
175,19,-31,20,52,71,190,77,-113,-93,75,44,163,-21,79,75,-48,-61,-123,105,278,130,-40,-124,133,-153,-133,-56,-76,-67,-243,3945
222,61,-35,47,75,67,274,113,-61,-185,301,111,-71,158,144,141,-9,-11,-117,170,357,190,2,-97,193,-18,-106,-32,-52,-53,-248,3946
246,85,-46,51,73,53,330,248,-19,-63,276,212,-215,285,73,198,11,6,-114,228,440,256,21,-91,239,136,-95,-23,-33,-41,-236,3947
165,55,-45,41,36,17,247,307,-4,37,14,262,117,170,83,146,17,6,-84,176,317,209,17,-62,182,2,-60,-15,-19,-26,-218,3948
165,43,-45,33,41,31,216,-111,12,146,-7,202,131,-19,89,110,-21,-42,-133,141,290,156,-28,-118,150,0,-114,-54,-80,-87,-223,3949
95,20,-32,16,29,20,96,-69,-5,137,63,111,-114,-178,41,46,-22,-26,-108,84,146,91,-23,-89,74,-181,-84,-47,-67,-71,-100,3950
93,41,-26,27,29,30,103,56,-66,16,27,28,-275,-11,34,90,44,36,-30,117,152,142,38,-9,113,-198,-15,13,15,-8,-11,3951
103,33,-34,24,14,23,136,171,-59,141,158,65,-332,35,3,120,56,41,-27,138,175,146,53,-2,142,-152,-10,28,32,3,-87,3952
83,15,-48,-7,-1,7,115,151,-82,-48,232,36,-165,145,-14,87,-5,-17,-66,101,157,107,-6,-63,103,-148,-65,-23,-20,-39,-123,3953
228,47,-42,20,61,82,245,115,-115,-20,304,110,21,385,10,174,-28,-60,-147,198,403,205,-26,-151,197,170,-146,-76,-82,-97,-317,3954
347,80,-41,45,103,122,363,-20,-72,66,113,217,210,458,44,239,-53,-83,-236,254,624,278,-69,-235,256,468,-230,-141,-146,-158,-447,3955
505,119,-58,70,143,162,549,381,-144,40,-88,225,-20,335,114,389,-58,-101,-300,376,960,396,-66,-305,381,928,-308,-170,-189,-204,-592,3956
408,97,-56,38,94,102,432,496,-104,-8,293,151,131,156,54,343,-40,-54,-241,317,840,328,-48,-229,292,791,-220,-128,-151,-154,-333,3957
88,19,-9,-11,-1,16,77,-59,11,-2,11,18,55,-56,28,85,2,22,-61,76,234,86,-25,-27,24,19,-20,-26,-44,-27,41,3958
0,-12,2,-21,-21,0,-20,-105,79,10,-89,32,22,-188,14,4,0,8,-16,-1,21,1,-23,1,-49,-253,8,-15,-13,8,93,3959
113,14,-21,0,13,38,101,190,52,37,184,52,121,-295,26,78,-10,-24,-86,73,188,79,-16,-78,49,-16,-81,-47,-49,-35,-93,3960
79,8,-28,6,5,15,87,-37,104,89,57,69,185,-4,-4,51,-11,-20,-84,40,136,55,-29,-73,17,-61,-79,-49,-63,-39,-62,3961
70,18,-33,0,-9,2,99,90,9,-187,74,68,119,312,-17,53,-17,-23,-67,42,127,57,-41,-72,28,-43,-60,-48,-55,-25,-8,3962
178,58,-37,21,45,60,240,382,-135,-59,344,196,107,197,9,155,-29,-49,-116,136,355,151,-54,-134,133,264,-121,-76,-81,-60,-225,3963
447,111,-79,58,120,119,521,404,-147,60,259,206,82,285,65,387,-46,-93,-266,360,874,363,-68,-297,354,947,-275,-144,-164,-146,-683,3964
832,214,-129,103,211,209,928,494,-301,-85,375,349,-157,448,135,696,-89,-162,-514,643,1643,641,-114,-539,631,1978,-506,-277,-315,-295,-1102,3965
836,206,-118,77,197,202,921,497,-330,-152,551,283,172,388,153,718,-121,-170,-562,634,1745,629,-162,-572,592,2171,-530,-315,-362,-350,-1026,3966
619,160,-58,44,147,159,638,169,-144,2,452,111,419,288,71,532,-116,-130,-490,440,1362,413,-161,-469,340,1713,-419,-282,-332,-327,-593,3967
-13,-6,8,-64,-38,-26,-44,-143,-77,-149,-43,-122,247,-33,-37,48,-40,7,-166,-19,230,-50,-100,-92,-150,210,-46,-106,-122,-103,214,3968
-73,-33,3,-57,-58,-49,-91,-124,56,-114,-209,-122,3,-31,-32,-4,-17,15,-62,-32,78,-60,-71,-13,-123,-46,7,-44,-42,-25,161,3969
-59,-20,-12,-48,-53,-53,-38,-273,27,-33,-173,-96,-143,-93,-61,22,-1,24,-24,6,114,-26,-43,-8,-74,-46,12,-13,-17,-9,73,3970
11,2,-6,-26,-15,-18,12,-97,-23,-202,-102,-111,32,59,-40,63,1,14,-28,48,232,29,-36,-33,-11,52,-28,-20,-25,-20,-17,3971
34,2,19,-24,-4,14,-6,-61,61,51,-235,-100,-94,-66,-51,48,-21,-7,-45,32,247,23,-55,-52,-15,49,-40,-41,-48,-52,-78,3972
45,7,8,-25,0,12,23,97,41,138,-104,19,17,36,-42,49,-47,-44,-92,31,285,22,-80,-89,-8,92,-79,-82,-71,-71,-114,3973
360,83,-47,21,75,72,390,489,-115,129,267,158,77,168,98,318,-58,-100,-248,290,886,276,-88,-263,267,899,-249,-149,-155,-151,-535,3974
578,128,-80,54,131,133,630,621,-81,189,448,272,-408,216,213,499,-96,-148,-380,433,1330,421,-129,-421,418,1531,-405,-230,-262,-273,-828,3975
820,185,-93,81,198,210,870,440,-101,112,574,297,-167,-12,153,673,-140,-201,-543,574,1778,563,-191,-586,532,2192,-553,-332,-381,-379,-1097,3976
637,154,-71,38,140,155,681,103,-90,73,378,116,-96,37,19,549,-122,-150,-501,432,1493,406,-184,-498,333,1899,-444,-307,-360,-335,-684,3977
-52,-9,16,-73,-50,-35,-55,-335,-4,-167,-232,-160,-83,-111,-87,32,-33,0,-112,-55,211,-83,-110,-55,-196,268,-4,-93,-98,-66,227,3978
-95,-9,45,-45,-39,-42,-104,-221,61,-62,-331,-193,-66,-208,2,-21,-13,5,-21,-74,4,-106,-75,13,-185,21,43,-36,-32,14,215,3979
-15,1,37,-22,-9,-21,-65,-54,-44,-93,-75,-171,39,-264,-23,5,-21,-19,-81,-46,20,-68,-93,-33,-133,95,-23,-76,-64,-14,51,3980
0,-6,14,-20,-22,-18,-41,206,-29,-66,-122,-139,79,-228,8,21,12,-6,-48,-17,-2,-42,-56,-18,-95,124,-13,-49,-34,9,-18,3981
28,7,15,-9,-16,-15,24,200,-22,-54,30,-104,139,-47,-50,67,19,20,-10,22,13,-9,-30,5,-49,187,5,-11,0,31,-17,3982
73,28,24,9,22,12,69,72,28,-30,53,-69,269,-59,3,100,1,-6,-44,40,72,17,-51,-36,-7,276,-36,-33,-22,0,-107,3983
925,227,-80,161,256,253,976,557,-26,233,744,408,63,490,252,757,-84,-176,-467,658,1622,663,-121,-533,672,2301,-520,-263,-283,-290,-1319,3984
1544,380,-186,223,392,381,1655,1070,-226,183,1187,596,-127,478,282,1252,-191,-328,-906,1098,2946,1099,-244,-979,1085,4085,-939,-514,-597,-600,-2032,3985
1480,367,-181,185,358,347,1585,1003,-272,2,1085,525,-345,308,301,1233,-240,-334,-1000,1042,3042,1020,-304,-1024,947,4268,-960,-580,-686,-667,-1855,3986
1035,269,-98,100,220,222,1097,604,-219,-92,809,307,-124,294,191,913,-194,-221,-822,724,2384,682,-296,-784,537,3409,-697,-498,-588,-536,-1100,3987
-7,19,45,-63,-73,-61,-34,-188,-8,-215,69,-217,-17,-51,-53,119,-65,0,-242,-24,538,-82,-185,-146,-271,936,-76,-187,-228,-150,231,3988
-160,-42,63,-71,-94,-76,-211,-234,56,49,-148,-209,-68,-272,-44,-41,-36,15,-64,-137,160,-193,-135,-13,-326,335,25,-106,-97,-39,298,3989
-143,-34,73,-52,-70,-55,-185,-211,78,-35,-179,-158,334,-319,-81,-43,-19,14,1,-124,143,-177,-96,23,-269,227,54,-67,-55,-6,272,3990
-177,-34,54,-51,-76,-75,-201,-168,-82,-159,-237,-158,307,-256,-96,-49,28,49,71,-127,92,-165,-38,78,-236,87,96,-1,6,43,282,3991
-152,-21,56,-35,-65,-63,-190,-85,-40,-115,-195,-213,258,-296,-53,-35,50,69,110,-105,101,-126,-24,90,-203,59,112,33,37,65,284,3992
-92,-13,45,-28,-43,-37,-135,-89,77,-71,-241,-193,64,-164,-108,5,38,58,89,-64,175,-80,-13,71,-137,118,90,36,40,50,169,3993
412,101,-31,47,96,87,426,177,-9,-14,202,249,-123,168,1,399,-25,-62,-214,310,1094,296,-92,-251,288,1321,-244,-129,-134,-139,-672,3994
1026,262,-118,145,264,231,1124,547,-199,-12,747,630,-136,290,225,889,-118,-206,-596,754,2305,744,-180,-669,735,2980,-644,-341,-402,-400,-1424,3995
1170,305,-123,159,292,252,1294,791,-188,-6,854,462,-47,345,276,1019,-161,-245,-734,858,2675,831,-214,-789,772,3595,-749,-440,-514,-508,-1523,3996
795,213,-78,71,151,119,896,429,-177,-177,717,257,-38,36,199,775,-125,-145,-624,592,2069,556,-224,-595,429,2939,-532,-379,-441,-400,-846,3997
-128,-10,51,-72,-105,-119,-122,-332,88,-137,-200,-136,-35,-295,-25,48,-28,38,-107,-85,316,-131,-128,-25,-294,723,32,-98,-120,-53,394,3998
-271,-47,94,-65,-103,-115,-305,-453,180,-49,-236,-161,28,-277,-32,-104,7,76,60,-204,-164,-244,-70,112,-371,135,157,-11,4,67,511,3999
-283,-60,91,-72,-107,-101,-309,-338,157,41,-66,-217,188,-230,-60,-100,51,107,118,-190,-314,-239,-30,180,-322,-24,194,40,71,124,461,4000
-206,-50,43,-74,-88,-93,-224,-83,34,-98,-260,-241,42,-164,-37,-31,43,65,100,-110,-228,-163,-28,124,-203,145,129,43,57,91,282,4001
-193,-48,47,-73,-78,-78,-268,-223,10,-144,-230,-162,1,-175,1,-59,17,43,73,-133,-280,-176,-67,109,-203,103,106,32,36,76,276,4002
-56,-15,34,-48,-33,-30,-166,-34,126,-111,55,-144,-23,-31,22,57,43,44,58,-9,-73,-43,-32,76,-78,365,66,26,48,79,78,4003
701,173,-58,85,188,175,679,567,-124,-33,716,258,-22,403,137,658,-38,-106,-327,551,1351,537,-97,-372,537,2195,-377,-186,-188,-174,-1043,4004
1237,295,-134,143,329,310,1298,715,-255,80,906,368,287,601,212,1055,-185,-286,-756,894,2479,882,-241,-811,851,3715,-785,-452,-506,-507,-1726,4005
1138,272,-105,109,289,284,1196,543,-146,122,688,202,61,293,151,971,-222,-292,-815,781,2439,749,-300,-834,650,3710,-774,-508,-584,-548,-1432,4006
556,135,-40,-4,92,95,584,54,-28,-3,87,-46,148,-180,55,544,-173,-159,-557,344,1496,301,-282,-513,156,2482,-447,-371,-437,-381,-547,4007
-229,-48,60,-111,-119,-119,-265,-246,98,-207,-407,-322,167,-446,-81,-66,-48,24,-71,-218,51,-278,-162,0,-427,514,63,-95,-123,-61,493,4008
-323,-62,86,-86,-121,-118,-349,-140,203,-123,-174,-240,143,-362,-86,-157,-8,40,42,-282,-186,-322,-123,70,-436,99,123,-36,-33,21,471,4009
-212,-37,73,-55,-80,-68,-218,-144,121,-102,-131,-219,10,-277,-75,-75,-4,23,25,-187,-6,-222,-92,38,-299,246,80,-41,-24,21,277,4010
-155,-22,78,-45,-48,-43,-174,-264,114,55,-74,-190,95,-131,46,-32,23,48,95,-137,57,-160,-44,79,-215,253,111,15,27,66,266,4011
-98,-13,65,-37,-32,-44,-117,-196,109,-60,-9,-108,139,35,-33,52,75,91,154,-56,167,-78,17,105,-126,344,126,72,71,107,216,4012
-12,19,59,2,-7,-20,-27,-212,82,21,16,-69,108,14,-34,127,116,122,151,31,308,5,51,117,-25,491,128,105,86,119,192,4013
153,43,18,14,37,15,160,-138,97,106,65,-77,-142,106,70,206,7,15,-35,104,597,93,-59,-72,68,892,-65,-32,-42,-29,-176,4014
334,82,-28,32,82,61,365,109,-30,-145,258,78,-19,142,50,324,-78,-86,-237,204,941,184,-133,-280,171,1404,-249,-162,-182,-175,-477,4015
411,105,-26,38,94,82,460,192,-87,-203,598,141,22,4,52,377,-99,-114,-343,256,1083,220,-154,-365,195,1669,-312,-220,-252,-235,-558,4016
286,74,-13,13,44,32,311,154,-102,-171,287,74,-58,-9,8,299,-77,-76,-290,176,868,136,-139,-272,86,1449,-229,-178,-217,-198,-341,4017
-168,-31,65,-44,-57,-69,-207,-149,-29,-62,-49,-120,150,-215,-118,-62,2,26,3,-155,-40,-211,-55,38,-270,305,60,-26,-38,-13,326,4018
-166,-42,56,-51,-67,-74,-211,-102,-43,-127,13,-197,114,-90,-100,-91,-21,-12,-15,-183,-152,-215,-73,20,-270,194,37,-53,-40,-18,227,4019
-162,-23,54,-42,-64,-77,-180,-132,22,49,-106,-106,-107,-199,-13,-50,33,54,78,-113,-150,-151,-2,114,-186,188,95,24,45,66,291,4020
-104,1,45,-16,-37,-65,-100,60,143,37,74,-80,-141,-323,42,4,39,38,105,-50,-71,-92,12,104,-107,323,83,51,61,75,196,4021
-177,-31,30,-31,-65,-87,-163,-201,223,-11,-196,-43,-100,-299,-39,-62,15,35,103,-114,-218,-155,-16,103,-169,173,92,35,53,70,191,4022
-174,-30,31,-25,-53,-75,-147,-299,109,-79,-434,-68,-180,36,13,-67,22,40,90,-110,-246,-152,-15,102,-165,125,92,32,59,78,219,4023
345,104,-32,69,96,77,433,160,123,-134,250,124,-461,170,96,335,-32,-69,-166,265,705,247,-50,-195,258,1332,-214,-99,-103,-95,-573,4024
803,210,-101,115,205,180,931,604,-86,-33,632,245,-214,139,189,693,-162,-234,-525,564,1687,560,-186,-576,554,2652,-573,-322,-381,-373,-1243,4025
849,224,-85,112,207,176,953,525,-140,147,398,335,14,292,148,741,-163,-226,-589,578,1878,567,-211,-629,524,2932,-594,-365,-442,-419,-1203,4026
526,142,-57,48,95,53,592,290,-120,61,77,168,-433,213,59,554,-51,-70,-353,391,1388,368,-106,-357,286,2279,-315,-205,-272,-236,-572,4027
-125,7,48,-42,-63,-102,-115,-297,-60,46,-354,-197,-230,-149,-57,88,79,121,84,-32,234,-64,23,109,-170,719,126,57,14,65,430,4028
-232,-13,83,-47,-75,-96,-228,-19,-74,-112,-180,-230,-31,-131,-30,-14,99,133,209,-112,-32,-130,40,214,-211,312,206,108,111,148,423,4029
-138,-13,73,-33,-47,-60,-155,46,-54,-131,-156,-198,117,-204,-11,-4,46,56,104,-109,53,-106,-38,108,-166,406,99,46,34,82,231,4030
-174,-45,43,-62,-71,-93,-190,-37,78,-157,-178,-54,254,-209,-79,-51,13,28,48,-164,-45,-163,-61,65,-202,282,82,9,3,57,250,4031
-194,-40,28,-58,-78,-105,-195,-249,116,-250,-261,23,106,12,-18,-73,18,42,56,-178,-127,-183,-28,87,-225,158,104,20,24,58,289,4032
-155,-26,34,-47,-56,-73,-149,-226,113,-231,-274,-53,-194,-37,11,-44,36,51,67,-144,-107,-133,-9,87,-169,188,97,35,41,57,181,4033
333,101,-6,55,102,81,373,97,-69,-198,-13,82,-83,133,75,325,-8,-43,-158,213,759,220,-47,-178,219,1308,-182,-80,-95,-96,-489,4034
784,196,-62,102,212,195,841,568,-191,-84,265,289,321,260,105,677,-89,-151,-471,531,1640,531,-119,-500,517,2510,-481,-256,-304,-301,-1085,4035
1094,284,-96,140,288,261,1168,564,-221,2,688,448,-40,482,243,928,-141,-215,-701,757,2305,754,-184,-729,716,3462,-689,-380,-461,-459,-1449,4036
828,208,-72,75,197,184,844,439,-222,-19,309,274,-100,367,141,702,-187,-214,-693,518,1887,491,-253,-653,391,3016,-611,-413,-496,-476,-986,4037
-176,-29,62,-80,-85,-87,-247,9,107,-46,-320,-186,110,-328,-70,-54,-49,27,-128,-181,49,-243,-132,-10,-383,625,28,-98,-130,-88,453,4038
-347,-64,68,-89,-129,-134,-411,-130,97,-119,-227,-193,72,-360,-109,-170,21,92,107,-254,-341,-313,-52,174,-402,56,183,54,45,59,533,4039
-405,-97,57,-104,-137,-143,-459,-422,62,-118,-397,-197,58,-260,-120,-230,27,81,161,-295,-484,-353,-42,200,-416,-177,203,72,75,81,548,4040
-349,-81,68,-88,-103,-108,-391,-245,50,-18,-377,-149,34,-128,-74,-193,31,77,159,-250,-419,-299,-10,191,-337,-154,191,68,92,91,435,4041
-317,-71,66,-65,-80,-91,-354,-150,12,79,-288,-120,74,-442,-74,-185,31,62,143,-233,-387,-280,-1,162,-306,-142,171,61,83,83,311,4042
-282,-76,49,-52,-82,-99,-317,-237,44,179,-232,-214,68,-328,-164,-176,22,51,135,-224,-362,-259,-4,146,-268,-140,151,57,70,65,256,4043
497,123,-71,74,129,96,555,378,-105,98,300,104,161,242,87,416,-68,-140,-267,350,1069,327,-85,-329,377,1698,-343,-176,-183,-210,-925,4044
1338,325,-177,198,346,295,1461,766,-171,99,935,512,-57,578,333,1100,-183,-302,-810,937,2706,928,-201,-890,962,3968,-861,-461,-525,-567,-1905,4045
1122,287,-116,139,271,233,1198,649,-80,84,487,407,10,335,214,985,-146,-202,-760,757,2435,748,-182,-764,698,3738,-711,-411,-505,-514,-1361,4046
389,96,-3,-10,67,38,376,366,65,-75,-52,30,-263,-203,24,410,-103,-68,-415,186,1104,161,-167,-345,58,2082,-292,-228,-307,-284,-300,4047
-390,-100,114,-130,-144,-155,-504,-477,192,29,-569,-275,-102,-429,-80,-218,-9,94,46,-393,-459,-429,-82,159,-537,58,183,21,-11,14,725,4048
-554,-129,138,-129,-175,-177,-684,-440,127,-25,-618,-276,462,-330,-113,-374,59,139,226,-517,-915,-545,2,306,-613,-585,312,121,122,134,852,4049
-576,-129,141,-106,-156,-145,-710,-265,196,-124,-432,-273,305,-216,-74,-416,81,148,269,-547,-1109,-563,37,345,-610,-859,337,156,172,166,876,4050
-610,-147,142,-100,-166,-141,-728,-416,105,54,-413,-222,25,-245,-99,-466,78,139,289,-588,-1278,-595,41,365,-621,-1091,349,165,194,174,827,4051
-623,-159,102,-108,-180,-164,-696,-510,186,8,-358,-253,53,-177,-132,-474,60,100,255,-580,-1311,-597,26,327,-592,-1160,307,151,170,167,734,4052
-549,-129,104,-68,-138,-130,-617,-252,128,21,-143,-246,77,-264,-30,-425,79,107,256,-512,-1247,-523,49,308,-508,-1121,293,170,186,161,627,4053
-225,-67,45,-8,-34,-30,-287,-218,63,91,-13,-102,187,-198,3,-216,26,27,99,-304,-726,-300,23,108,-278,-454,99,78,80,28,175,4054
-97,-33,36,3,-6,-3,-164,-368,78,-25,34,-143,161,49,-98,-115,10,11,37,-212,-485,-213,-3,47,-204,-152,37,39,32,-21,61,4055
-59,-18,22,7,-8,-26,-86,-297,23,-32,-76,-76,99,219,-65,-45,30,32,29,-143,-330,-146,19,39,-139,-3,18,49,17,-36,44,4056
-162,-31,24,-16,-47,-74,-177,-156,59,67,-171,-144,45,134,-17,-86,64,81,85,-180,-452,-191,42,104,-204,-201,87,87,66,-3,287,4057
-464,-115,66,-67,-138,-150,-522,-297,34,78,-227,-201,112,-118,-131,-327,98,154,231,-394,-981,-417,76,283,-440,-977,263,171,168,99,688,4058
-484,-130,65,-74,-130,-131,-558,-258,65,81,-82,-112,5,-101,-124,-369,84,125,277,-404,-985,-416,76,289,-419,-1123,262,177,186,97,592,4059
-405,-106,54,-54,-99,-102,-471,-275,19,-40,-214,-55,-135,-105,-54,-328,64,88,266,-349,-786,-354,81,229,-333,-990,221,161,152,69,476,4060
-460,-122,73,-55,-111,-105,-529,-492,109,-87,-365,-170,93,-144,-160,-392,47,89,274,-403,-864,-411,74,250,-395,-1184,243,155,156,65,564,4061
-411,-110,62,-44,-87,-76,-479,-117,126,-8,-351,-110,-55,-9,-94,-378,33,56,241,-370,-765,-378,61,209,-347,-1121,196,125,139,31,472,4062
-408,-113,51,-41,-97,-93,-454,-140,132,82,-347,-1,-116,-125,-58,-394,27,54,208,-382,-755,-379,40,202,-339,-1158,196,108,121,29,446,4063
-200,-60,13,-9,-41,-57,-218,-39,4,51,-148,-6,-81,-191,-60,-216,28,33,105,-209,-384,-197,44,94,-146,-685,78,62,77,-13,117,4064
75,16,-14,32,35,27,68,-22,-34,112,-34,189,-121,32,25,18,11,-6,-28,-13,99,7,36,-59,72,16,-82,-3,6,-95,-181,4065
52,3,-11,22,23,9,44,65,-105,92,109,117,189,54,-68,30,38,20,16,-12,54,10,62,-3,60,54,-22,48,26,-53,-70,4066
-146,-34,33,-6,-32,-35,-168,-21,39,95,-16,-22,82,9,-117,-130,40,39,96,-168,-358,-143,72,108,-113,-388,104,82,74,17,193,4067
-265,-60,61,-31,-53,-54,-329,-50,163,25,-289,-87,23,-106,-158,-254,43,59,163,-265,-703,-258,68,194,-229,-760,167,106,111,76,414,4068
-252,-54,56,-27,-47,-50,-322,-114,42,-173,-351,-67,196,-96,-99,-242,61,71,193,-234,-757,-235,91,215,-194,-783,190,126,137,116,399,4069
-219,-59,21,-26,-58,-55,-279,-33,-8,-115,-86,-105,671,-74,-43,-201,66,80,180,-197,-729,-184,96,213,-144,-687,158,130,148,127,287,4070
-165,-53,19,-12,-36,-23,-210,-22,-5,-92,27,-70,208,69,-46,-171,28,35,114,-164,-663,-156,55,147,-122,-547,101,82,99,82,184,4071
-162,-51,21,-18,-27,-13,-186,-165,6,130,29,-11,-141,-97,-43,-204,-39,-36,0,-194,-682,-193,-21,53,-155,-519,17,-16,7,4,81,4072
-163,-46,35,-12,-22,-13,-191,-29,-10,99,58,60,112,-55,12,-226,-53,-53,-11,-228,-730,-223,-30,41,-196,-550,8,-36,-11,-7,107,4073
-368,-88,64,-26,-80,-64,-408,-211,114,-3,-214,-49,282,-168,-102,-368,-2,23,165,-352,-1103,-363,30,206,-346,-1058,184,70,93,101,474,4074
-491,-117,71,-54,-112,-104,-529,-153,172,13,-276,-111,477,-313,-105,-404,95,138,337,-378,-1297,-376,123,375,-365,-1394,332,213,248,241,681,4075
-608,-151,80,-77,-137,-134,-654,-211,149,73,-453,-186,137,-260,-79,-469,159,202,457,-424,-1491,-412,178,499,-406,-1759,441,292,352,333,868,4076
-518,-122,79,-38,-93,-88,-562,-314,152,231,-447,-258,-35,-154,-65,-430,142,170,427,-365,-1345,-356,186,436,-325,-1689,386,269,322,284,645,4077
-46,-20,-2,24,20,23,-49,-59,69,71,-143,-90,-22,38,-13,-83,40,17,130,-34,-388,-12,83,79,38,-548,53,92,112,54,-84,4078
13,5,5,36,41,38,9,2,63,-41,-201,-22,-29,97,-4,-32,38,21,101,5,-146,18,70,57,60,-360,34,88,79,17,-79,4079
42,9,-9,37,43,41,38,122,-14,-80,-152,-72,35,250,-2,-23,-6,-11,52,-4,35,37,35,-14,48,-237,-10,33,18,-40,-101,4080
-16,5,16,38,29,29,-29,42,-34,-43,-10,-4,247,200,-38,-72,14,29,85,-56,3,-8,47,30,-14,-371,37,53,39,-21,80,4081
5,1,0,31,18,21,13,47,-156,33,72,26,96,104,-65,-35,27,34,49,-12,130,28,59,17,23,-269,22,48,34,-30,55,4082
-155,-46,-4,-13,-37,-37,-144,-33,-222,12,-204,-13,39,-179,-38,-169,19,47,103,-136,-106,-101,60,74,-101,-601,85,75,49,-10,240,4083
-1034,-244,131,-133,-271,-253,-1109,-691,62,61,-939,-434,177,-536,-199,-847,148,263,626,-769,-1784,-750,176,651,-790,-2809,656,358,379,344,1591,4084
-1785,-415,250,-218,-454,-430,-1946,-1041,338,31,-1057,-692,-61,-740,-407,-1440,309,456,1172,-1276,-3394,-1257,345,1229,-1260,-4971,1188,687,780,746,2523,4085
-1686,-416,209,-195,-416,-403,-1841,-949,316,-31,-1009,-597,-82,-651,-220,-1389,309,410,1192,-1178,-3447,-1145,374,1207,-1060,-5070,1133,699,830,783,2147,4086
-964,-248,104,-61,-190,-173,-1061,-489,64,91,-556,-200,-22,24,-74,-879,226,223,829,-670,-2326,-616,309,778,-446,-3579,682,498,610,545,987,4087
58,-13,-35,83,84,101,34,315,22,213,251,219,-143,378,23,-130,36,-45,175,30,-509,103,140,87,293,-1070,14,121,183,110,-448,4088
229,45,-52,92,125,126,234,215,-6,102,280,200,-366,438,27,51,-3,-69,-13,172,-116,222,96,-32,366,-407,-89,34,55,12,-445,4089
212,41,-49,69,102,92,225,63,-26,69,302,253,-602,520,31,52,-12,-61,-42,165,-109,208,78,-53,320,-259,-104,13,18,-11,-364,4090
219,41,-52,68,89,85,225,233,-170,61,325,265,-226,308,-1,39,-50,-85,-97,153,-92,185,33,-93,272,-128,-137,-35,-42,-49,-408,4091
227,45,-38,75,99,99,235,253,-208,85,272,162,247,-34,87,59,-42,-71,-117,162,-65,188,20,-95,260,-29,-128,-51,-51,-52,-335,4092
122,12,-46,37,55,56,124,16,-99,107,65,76,272,-119,0,1,-55,-68,-93,92,-187,113,12,-67,165,-157,-90,-46,-39,-31,-203,4093
-520,-126,44,-86,-140,-123,-567,-180,93,24,-306,-101,-205,-235,-150,-462,56,100,281,-344,-1301,-346,106,352,-337,-1640,330,168,196,223,760,4094
-1095,-262,113,-151,-296,-270,-1173,-547,196,-62,-620,-383,-354,-297,-166,-899,172,251,699,-736,-2405,-730,230,778,-715,-3200,727,408,475,499,1471,4095
-1297,-310,135,-148,-319,-314,-1387,-672,257,48,-915,-503,42,-389,-282,-1082,219,297,915,-875,-2874,-857,286,958,-806,-3975,884,532,617,641,1652,4096
-922,-226,82,-67,-190,-188,-978,-550,211,-34,-627,-234,-2,-247,-151,-830,191,200,787,-604,-2244,-559,269,746,-449,-3314,668,458,543,546,1043,4097
264,52,-68,111,145,145,307,304,-85,37,384,325,-168,448,201,70,25,-64,81,228,-2,296,102,-29,462,-463,-80,70,100,73,-623,4098
367,85,-75,102,158,161,422,453,-147,57,211,289,-39,392,143,202,11,-52,-63,309,426,363,80,-134,470,43,-154,-5,-13,-46,-554,4099
298,67,-75,72,114,117,351,490,-59,10,202,183,-4,257,16,156,-15,-57,-131,245,450,287,51,-177,344,29,-167,-64,-73,-103,-467,4100
262,52,-72,51,97,89,286,-4,-189,-12,57,199,-120,179,33,122,-20,-47,-137,201,440,247,22,-151,271,-9,-132,-65,-78,-104,-375,4101
198,51,-36,47,78,63,211,127,-130,-93,141,75,-172,99,36,102,14,2,-35,167,384,216,61,-65,245,-116,-42,10,-14,-46,-255,4102
107,19,-39,13,36,21,113,229,-53,-29,360,14,-135,40,-31,34,-8,4,-26,93,272,131,36,-52,150,-258,-34,-2,-20,-50,-105,4103
-1229,-313,141,-204,-341,-324,-1373,-682,150,-116,-852,-502,232,-617,-364,-1019,124,279,637,-894,-2218,-882,158,739,-930,-3494,767,357,381,400,1923,4104
-2534,-630,331,-366,-654,-615,-2806,-1439,446,-155,-1873,-1084,159,-1165,-572,-2059,372,596,1562,-1789,-4902,-1796,407,1689,-1804,-7156,1655,877,1016,1043,3548,4105
-2406,-606,290,-292,-580,-530,-2654,-1289,364,-123,-1354,-1080,-81,-897,-465,-2024,393,545,1657,-1662,-4995,-1642,463,1707,-1525,-7403,1600,936,1136,1124,3081,4106
-1373,-377,123,-120,-276,-247,-1513,-739,131,-22,-549,-396,582,-149,-172,-1285,253,263,1119,-926,-3299,-871,353,1060,-632,-5227,933,646,802,761,1379,4107
321,38,-119,148,190,190,351,432,-165,109,686,425,13,565,153,21,9,-121,111,275,-187,363,143,-31,654,-1070,-127,86,154,91,-943,4108
579,98,-162,142,211,216,643,435,-77,174,447,430,-464,391,146,265,-55,-170,-203,453,472,517,72,-277,742,-35,-339,-82,-76,-128,-1022,4109
484,112,-113,132,181,173,569,403,-17,251,496,376,-511,397,132,265,-7,-91,-119,436,427,482,104,-179,643,3,-220,-29,-39,-63,-741,4110
474,131,-88,153,179,161,573,519,-56,164,607,266,-178,105,61,267,-26,-94,-134,424,468,461,79,-181,590,151,-221,-49,-56,-75,-670,4111
463,129,-88,136,169,153,542,588,-177,135,573,222,83,78,42,260,-35,-93,-172,414,516,453,44,-187,559,266,-231,-74,-75,-84,-629,4112
388,96,-90,88,124,131,447,495,-222,81,257,191,-127,303,32,221,-43,-90,-173,367,465,389,27,-176,475,238,-211,-88,-102,-78,-513,4113
-310,-80,-5,-41,-83,-70,-323,-110,-112,27,-179,-57,-439,-286,-94,-296,39,83,205,-135,-779,-128,103,251,-87,-1370,222,122,119,173,608,4114
-996,-248,91,-130,-260,-241,-1074,-643,191,68,-674,-359,-572,-743,-153,-854,141,224,639,-640,-2134,-633,200,697,-582,-3216,660,362,410,466,1454,4115
-1214,-293,120,-137,-299,-289,-1302,-618,264,-43,-716,-390,51,-549,-281,-1047,182,258,802,-804,-2645,-784,240,836,-699,-3982,795,450,535,580,1589,4116
-766,-174,63,-38,-153,-150,-790,-502,172,7,-236,-112,-14,-350,-174,-726,154,163,657,-472,-1888,-430,242,617,-274,-3136,561,378,465,486,782,4117
399,87,-112,119,166,159,491,248,-172,79,605,400,-207,230,73,169,-21,-126,-5,348,313,414,86,-135,607,-294,-190,1,23,17,-850,4118
593,134,-118,132,207,214,700,299,-249,85,463,360,-78,279,89,355,-64,-133,-221,460,814,533,21,-309,645,412,-321,-110,-130,-136,-864,4119
491,117,-83,103,163,178,571,330,-118,-1,344,290,-29,107,81,309,-45,-90,-208,394,753,460,22,-242,526,352,-245,-79,-117,-110,-678,4120
477,121,-74,95,153,168,553,243,-92,42,365,196,-168,-68,153,308,-30,-87,-225,382,795,438,13,-250,477,424,-242,-92,-130,-116,-655,4121
380,95,-70,79,114,127,458,71,-84,111,280,115,-95,71,122,231,-66,-105,-242,296,674,351,-32,-249,362,310,-240,-124,-157,-140,-504,4122
371,93,-75,71,119,132,433,30,-23,42,398,244,-156,110,135,219,-90,-120,-245,278,652,322,-53,-247,330,326,-241,-141,-161,-142,-475,4123
-273,-65,7,-43,-75,-57,-269,-279,107,-82,-104,63,-233,-281,-2,-245,14,58,133,-171,-511,-153,50,174,-178,-1163,183,88,69,110,632,4124
-1078,-238,125,-143,-286,-270,-1125,-663,139,-19,-764,-351,106,-723,-207,-849,178,289,703,-693,-2059,-686,223,771,-697,-3299,744,420,457,507,1652,4125
-992,-234,83,-107,-248,-240,-1011,-623,104,20,-585,-230,206,-164,-187,-831,165,213,698,-614,-2021,-608,208,706,-541,-3334,657,400,464,490,1248,4126
-397,-92,-3,1,-74,-67,-370,-155,-56,-9,-144,0,119,-110,-22,-388,101,73,431,-178,-1020,-152,162,361,-32,-2059,300,245,303,296,342,4127
412,106,-93,141,159,166,503,501,-118,-21,422,220,-36,272,106,227,6,-91,-8,397,472,428,76,-131,581,-76,-167,7,16,5,-610,4128
522,120,-115,123,159,180,622,369,-113,11,520,270,-303,420,44,331,-41,-120,-187,462,795,492,15,-271,596,431,-273,-100,-126,-116,-753,4129
473,111,-108,89,133,138,557,200,-162,20,226,290,-358,232,43,305,-74,-128,-237,422,788,442,-39,-290,516,475,-273,-141,-161,-141,-663,4130
466,121,-109,79,134,123,556,358,45,89,366,195,-207,84,66,327,-78,-117,-225,446,852,441,-37,-279,508,591,-267,-127,-169,-134,-633,4131
499,132,-94,84,141,132,565,547,6,67,409,302,-149,196,123,361,-59,-88,-202,459,919,458,-12,-249,515,702,-250,-112,-143,-123,-555,4132
471,123,-79,67,146,125,534,178,-45,25,273,263,-212,297,78,359,-33,-59,-177,450,928,456,-7,-218,484,746,-212,-100,-130,-106,-469,4133
283,76,-39,18,86,77,331,173,30,-34,133,-8,-182,229,56,239,2,-17,-81,320,630,328,15,-99,351,385,-95,-42,-66,-24,-235,4134
79,26,-31,-20,16,3,133,75,-94,50,-31,-20,-102,31,21,76,-6,-2,-25,168,271,175,9,-27,190,-56,-12,-17,-34,18,-46,4135
16,13,-53,-4,-8,-20,49,-45,-56,-77,-69,-20,-24,-183,-4,-6,-33,-32,-39,86,117,93,-21,-39,115,-229,-14,-40,-34,14,-36,4136
158,51,-49,40,46,34,192,244,-29,-81,77,79,123,-28,58,112,-35,-46,-62,185,373,212,-15,-85,242,92,-82,-47,-49,0,-334,4137
409,125,-78,72,105,75,465,335,-102,60,259,189,-17,265,131,351,-5,-42,-128,403,877,439,15,-171,463,755,-178,-61,-88,-28,-625,4138
425,127,-87,69,94,55,475,314,-112,91,344,261,-114,290,109,393,1,-31,-167,418,934,442,8,-176,443,912,-179,-71,-111,-33,-500,4139
331,84,-42,43,70,59,320,234,42,112,351,187,-30,10,148,297,-15,-21,-141,316,704,330,-25,-128,327,685,-140,-65,-87,-16,-411,4140
388,80,-55,34,89,84,363,424,88,140,422,243,-149,-97,143,302,-90,-103,-245,297,764,324,-89,-242,317,830,-237,-153,-185,-99,-586,4141
360,84,-53,41,84,70,366,305,130,126,398,235,171,-118,127,265,-84,-93,-212,245,673,272,-70,-215,255,756,-208,-133,-166,-73,-480,4142
378,114,-49,67,103,84,438,196,115,31,369,57,237,90,116,311,-42,-62,-139,295,714,322,-28,-167,299,838,-171,-78,-114,-35,-462,4143
311,90,-45,47,78,70,383,153,10,-125,141,26,182,96,155,253,-73,-93,-190,233,636,255,-93,-194,230,757,-189,-121,-149,-75,-423,4144
207,60,-20,40,49,41,258,136,-12,-141,-8,133,235,282,110,145,-89,-82,-196,148,446,151,-110,-169,120,489,-157,-136,-157,-59,-285,4145
176,62,-27,30,28,19,231,168,31,-86,128,206,-160,44,61,131,-73,-71,-172,130,417,136,-84,-153,115,406,-133,-122,-144,-56,-213,4146
158,63,-17,26,33,14,220,62,85,-37,196,-37,-159,-105,53,145,-45,-29,-123,152,420,146,-55,-113,122,377,-91,-82,-105,-32,-187,4147
175,60,-25,33,31,41,242,-66,-107,22,201,27,-68,-69,87,171,-35,-36,-117,183,499,178,-45,-134,164,456,-109,-77,-96,-53,-278,4148
193,63,-13,37,50,58,251,118,-103,-56,117,141,15,-48,102,170,-43,-45,-103,175,536,172,-52,-133,159,481,-118,-70,-100,-66,-277,4149
198,55,-17,27,58,63,248,191,-45,-70,-156,103,-215,19,63,159,-57,-66,-125,163,563,161,-70,-172,148,472,-129,-105,-121,-110,-298,4150
156,36,-33,2,31,24,217,-29,106,111,-159,-12,-109,7,121,148,-33,-40,-109,145,528,149,-52,-143,133,412,-101,-90,-103,-96,-225,4151
181,26,-37,3,27,23,225,-43,-85,-28,-45,55,-122,89,142,180,-18,-21,-58,175,566,176,-26,-104,172,476,-78,-39,-57,-68,-205,4152
205,53,-38,20,33,29,251,53,-183,-92,5,34,-165,-28,107,207,-4,-11,-87,207,626,194,-29,-110,194,544,-94,-43,-63,-58,-235,4153
305,65,-45,51,71,53,349,247,-111,43,125,9,149,159,190,259,-45,-70,-200,251,811,261,-72,-219,243,786,-209,-124,-143,-141,-419,4154
419,93,-38,59,115,107,437,404,-16,77,68,64,-80,311,108,283,-121,-145,-312,272,970,273,-147,-340,262,1042,-320,-225,-243,-235,-600,4155
468,104,-40,46,112,130,503,346,13,49,294,132,-49,330,123,334,-153,-164,-358,293,1087,299,-174,-383,282,1259,-356,-244,-279,-266,-686,4156
441,100,-33,44,102,109,476,350,-23,92,456,169,97,225,104,352,-95,-103,-317,290,1042,303,-133,-320,264,1269,-284,-200,-235,-204,-508,4157
193,45,-16,9,35,38,211,220,51,-17,70,-44,146,28,-3,164,-52,-44,-182,101,541,113,-85,-150,54,678,-129,-125,-140,-92,-93,4158
135,23,-18,-14,14,18,153,102,-19,-121,-17,-59,57,-133,-25,74,-102,-94,-209,21,353,31,-122,-183,-21,511,-170,-168,-173,-111,-223,4159
95,24,-6,4,10,10,138,-123,-74,-8,54,-9,-47,-71,-24,52,-102,-85,-169,-6,231,4,-127,-138,-33,411,-127,-134,-143,-62,-134,4160
95,36,-14,12,8,6,158,-115,-51,16,134,-31,-151,42,-22,118,-20,1,-48,61,243,76,-39,-37,45,451,-49,-31,-44,30,-54,4161
130,44,-18,15,23,21,172,-36,-59,3,-23,47,15,50,-1,152,-7,6,-60,103,283,120,-23,-46,87,549,-62,-44,-42,37,-100,4162
171,52,2,26,45,54,181,91,-75,7,-51,55,25,221,58,205,21,23,-66,149,351,172,-4,-32,134,648,-47,-25,-20,57,-128,4163
627,161,-59,89,166,162,672,278,-137,49,475,357,-14,445,178,566,-25,-80,-311,481,1209,509,-52,-315,506,1760,-323,-160,-167,-107,-861,4164
1082,268,-124,135,277,263,1193,425,-122,85,756,508,165,506,284,912,-138,-219,-651,785,2151,809,-166,-677,793,3031,-660,-368,-424,-375,-1460,4165
1034,270,-93,123,259,257,1131,399,-139,-19,506,477,31,391,182,866,-164,-215,-687,725,2171,728,-197,-689,663,3090,-651,-403,-476,-428,-1276,4166
603,160,-54,37,118,127,652,232,19,-54,203,175,-11,-18,50,548,-135,-137,-510,415,1503,406,-162,-477,291,2209,-445,-324,-383,-339,-598,4167
21,15,22,-59,-45,-30,28,-231,21,-80,-88,-130,637,-231,-1,109,-52,-1,-179,7,463,-16,-97,-109,-141,782,-76,-133,-172,-109,196,4168
-60,-3,28,-55,-52,-50,-56,-202,91,62,26,-109,359,-287,62,26,-51,12,-77,-46,267,-73,-105,-43,-168,454,-5,-88,-81,-47,156,4169
-32,-1,26,-37,-36,-31,-40,-190,-90,-23,-18,-183,404,-181,-13,26,-53,8,-58,-40,270,-68,-106,-38,-146,402,-20,-74,-65,-49,103,4170
-65,-5,39,-47,-35,-29,-79,-146,-7,-62,-180,-122,165,16,7,10,-22,35,-27,-46,211,-75,-66,-6,-143,270,10,-46,-34,-11,222,4171
-102,-24,20,-61,-47,-57,-116,-153,168,41,-154,-114,-96,-119,-99,-17,-23,21,-13,-73,155,-85,-54,3,-157,164,14,-30,-22,-11,144,4172
-48,-1,16,-29,-41,-59,-46,-73,146,14,87,-83,-63,-123,2,29,-8,23,-7,-34,215,-41,-46,3,-98,223,11,-18,-12,-22,90,4173
278,84,-19,41,58,29,330,-81,67,-60,133,33,413,144,70,273,-63,-69,-192,185,786,192,-92,-220,160,977,-192,-129,-131,-152,-435,4174
572,163,-32,90,145,113,641,200,-129,0,196,263,728,210,59,500,-107,-139,-379,390,1352,393,-143,-415,356,1765,-389,-244,-260,-273,-788,4175
664,155,-49,69,147,144,720,496,-172,32,414,180,1,68,64,569,-143,-164,-479,436,1554,437,-183,-495,375,2104,-463,-302,-330,-325,-850,4176
499,110,-37,15,89,96,528,339,-119,91,146,132,-60,11,86,452,-118,-117,-410,312,1253,311,-158,-387,216,1808,-354,-254,-288,-270,-560,4177
-31,-2,53,-42,-49,-35,-47,-97,62,11,-223,-151,50,-247,6,44,-37,22,-91,-68,225,-81,-76,-25,-189,522,2,-71,-74,-49,186,4178
-94,-8,61,-37,-53,-53,-94,-140,132,33,-21,-88,89,-71,18,-17,-22,22,-12,-106,27,-103,-55,30,-190,279,43,-18,-13,20,210,4179
-76,0,33,-25,-49,-50,-48,-212,24,-52,-63,-9,118,80,29,25,20,44,52,-69,14,-59,-20,68,-120,294,68,25,34,54,216,4180
-43,12,24,-10,-26,-20,-11,58,70,-69,11,-64,68,159,-18,48,23,48,49,-43,44,-25,-23,57,-72,352,58,24,40,67,205,4181
-53,8,37,-20,-27,-2,-45,-80,121,-175,-115,-51,175,253,21,50,26,50,48,-44,6,-32,-26,58,-80,329,58,12,31,65,138,4182
-105,-28,33,-41,-43,-27,-128,-376,41,-226,-202,-165,72,25,-9,-25,-3,25,45,-102,-118,-83,-39,63,-131,192,53,-5,13,58,123,4183
454,122,-21,63,129,129,473,156,-81,30,393,1,-3,283,70,371,-88,-115,-255,283,877,313,-111,-292,294,1457,-295,-179,-169,-149,-712,4184
956,243,-117,117,242,229,1032,704,-216,28,737,329,-423,674,147,789,-178,-237,-598,635,1917,676,-199,-647,649,2855,-616,-360,-403,-396,-1330,4185
928,231,-94,102,224,219,994,569,-107,-7,594,312,5,340,171,807,-140,-189,-623,619,1984,652,-187,-632,579,2968,-581,-365,-420,-408,-1104,4186
549,150,-14,42,115,118,580,240,-5,8,363,154,315,16,115,547,-70,-64,-415,361,1361,370,-111,-384,260,2154,-320,-248,-286,-256,-458,4187
-82,-3,64,-77,-63,-65,-93,-119,112,-90,-116,-94,293,-265,-84,57,-11,53,-64,-97,231,-90,-55,-5,-219,642,38,-54,-60,-34,308,4188
-206,-33,62,-77,-82,-96,-235,-273,16,-19,-195,-211,256,-111,-44,-47,18,80,77,-174,-50,-155,-27,116,-271,188,140,37,49,60,463,4189
-157,-31,43,-55,-67,-67,-200,-225,97,47,-119,-170,149,-74,-23,-36,7,54,29,-142,-6,-131,-30,76,-220,200,96,3,24,36,321,4190
-159,-44,40,-66,-72,-63,-219,-323,-66,-50,-171,-152,-68,48,9,-67,-14,25,3,-166,-34,-150,-54,44,-230,116,69,-18,9,15,281,4191
-124,-29,61,-42,-44,-33,-171,-289,-12,-87,-192,-138,-47,33,-54,-50,-10,23,13,-152,-10,-139,-47,33,-205,111,64,-13,1,15,211,4192
-79,-15,60,-21,-31,-16,-108,-142,107,16,-2,-69,197,27,-44,-25,-20,13,8,-131,54,-112,-44,12,-163,173,36,-9,-3,9,142,4193
166,52,4,22,43,45,191,48,-138,61,289,140,314,171,14,191,-28,-25,-108,70,514,98,-50,-120,50,783,-101,-67,-63,-70,-242,4194
476,120,-50,63,117,109,518,186,-144,-74,506,-27,-164,394,46,452,-59,-75,-289,294,1120,343,-72,-306,280,1603,-283,-159,-175,-190,-609,4195
585,133,-43,65,148,146,598,353,-124,88,144,30,-104,193,86,510,-83,-100,-363,348,1306,392,-97,-365,311,1903,-354,-212,-242,-247,-665,4196
398,71,-12,17,89,94,374,42,-10,-55,-116,36,-81,137,7,348,-111,-101,-343,187,970,207,-138,-320,115,1552,-287,-220,-244,-241,-362,4197
-86,-30,54,-49,-43,-37,-128,-235,99,-102,-174,-114,144,17,-40,-17,-43,21,-68,-151,66,-138,-78,-22,-254,395,27,-65,-70,-59,380,4198
-150,-39,53,-41,-60,-57,-176,-189,-10,10,-316,-124,25,-80,-42,-46,11,58,39,-171,-113,-150,-26,76,-240,160,103,0,25,39,350,4199
-141,-30,29,-43,-62,-62,-161,-207,-140,27,-117,-124,-38,-8,-44,-55,19,50,51,-164,-143,-130,-13,76,-208,139,82,5,34,47,338,4200
-101,-24,35,-34,-40,-44,-119,-202,-163,34,22,-104,6,75,-49,-19,17,44,51,-127,-96,-89,-4,67,-145,213,64,9,32,50,263,4201
-78,-30,32,-39,-33,-38,-120,-242,-175,-8,-59,-153,-98,-14,-65,0,11,42,35,-97,-65,-64,-5,49,-111,274,44,2,24,37,229,4202
-97,-26,47,-37,-32,-27,-158,-6,-4,36,-267,-144,50,-54,-113,-22,25,54,37,-119,-107,-84,6,49,-127,208,53,7,30,42,227,4203
167,25,10,5,40,51,125,83,-2,-3,74,-78,15,-86,-25,166,-7,-16,-99,65,352,104,-23,-101,80,778,-110,-64,-56,-54,-252,4204
519,104,-41,42,130,150,504,303,-187,-94,466,116,-107,35,40,434,-81,-118,-344,296,1039,341,-104,-360,327,1707,-352,-205,-223,-228,-723,4205
470,100,-38,23,113,124,445,355,-240,-79,282,-4,35,68,25,391,-118,-124,-366,238,1014,275,-152,-359,238,1690,-348,-229,-257,-254,-618,4206
237,45,5,-16,48,48,209,296,-153,-61,91,-57,-314,192,0,241,-66,-36,-221,89,642,126,-106,-185,59,1187,-153,-132,-159,-141,-211,4207
-153,-52,30,-75,-74,-92,-182,79,-42,-114,-173,-169,-448,-51,-33,-8,34,86,21,-143,-4,-111,-12,92,-193,290,110,23,22,45,311,4208
-206,-46,48,-51,-74,-100,-237,-76,89,-147,-103,-156,91,-118,-86,-54,62,101,105,-171,-148,-135,36,154,-195,53,152,67,89,103,414,4209
-167,-48,39,-54,-56,-87,-192,1,122,-9,36,-41,303,-141,1,-66,17,43,58,-180,-106,-139,1,91,-161,84,77,25,45,55,259,4210
-105,-21,55,-20,-25,-39,-136,-120,19,85,-10,-20,160,-122,-27,-55,13,38,17,-168,-64,-122,-14,58,-158,115,56,8,22,22,196,4211
-132,-30,42,-23,-38,-44,-167,-230,52,11,-218,-179,-30,-69,-38,-75,3,26,38,-185,-106,-136,-14,58,-175,34,65,16,18,22,182,4212
-131,-43,35,-24,-52,-58,-180,43,55,-12,-386,-118,122,-32,-36,-98,-29,-18,26,-201,-144,-153,-31,40,-181,-3,43,-1,0,7,116,4213
-75,-28,14,-18,-34,-51,-119,131,20,1,-80,64,-52,-100,-21,-52,-25,1,0,-147,-50,-100,-36,17,-134,112,22,-6,-6,14,60,4214
-6,-7,12,4,-3,-10,-37,196,-83,-88,150,105,-48,-97,0,16,-18,-7,-27,-85,87,-42,-36,-19,-76,281,-21,-28,-16,-8,-4,4215
72,16,9,8,21,25,70,-86,35,-56,41,142,98,133,78,66,-42,-31,-77,-32,231,9,-47,-80,-24,476,-76,-61,-62,-74,-99,4216
-8,-7,-3,-19,-15,-14,-4,-155,-39,-49,61,86,-43,91,75,0,-57,-43,-95,-97,89,-70,-73,-77,-102,321,-58,-73,-83,-83,41,4217
-148,-31,24,-25,-40,-40,-155,-178,27,19,-128,-7,18,-134,21,-94,-30,4,-29,-195,-189,-165,-42,15,-208,-12,29,-33,-25,-20,224,4218
-116,-27,29,-20,-24,-22,-145,-73,105,42,-284,-118,38,-161,-43,-64,13,41,46,-147,-177,-116,11,64,-134,-4,61,31,33,33,201,4219
-72,-19,22,-19,-16,-12,-104,63,89,-19,-153,-109,19,-120,-70,-32,6,27,58,-109,-120,-76,25,64,-96,77,50,39,25,34,136,4220
-120,-23,27,-27,-37,-37,-133,16,-79,-149,-219,-40,243,129,-65,-79,-1,14,52,-152,-215,-119,5,69,-142,-20,57,26,25,24,127,4221
-100,-9,44,-16,-27,-30,-129,-101,-75,-77,-134,26,-196,172,-53,-61,12,22,44,-123,-190,-94,-1,57,-103,5,41,26,37,23,147,4222
-89,-30,38,-34,-30,-29,-150,70,17,-82,-19,24,-167,-63,-54,-55,13,17,4,-121,-190,-101,6,32,-100,9,15,6,14,7,140,4223
92,18,25,2,34,40,38,298,7,-18,152,22,-80,-13,26,91,7,6,-41,20,126,51,28,-38,57,397,-56,-9,-6,-24,-100,4224
215,48,-4,10,68,71,177,136,-3,83,70,-20,-144,-185,26,186,-24,-48,-132,103,402,133,-9,-142,139,760,-148,-76,-82,-100,-285,4225
195,52,-3,19,55,55,173,-1,73,24,153,77,-22,-61,36,166,-31,-33,-128,85,387,103,-28,-124,105,750,-114,-63,-75,-87,-211,4226
112,32,-8,7,23,14,106,59,-39,-9,-183,238,-156,18,45,103,-44,-35,-110,20,273,41,-40,-92,44,603,-77,-57,-64,-78,-123,4227
-37,3,35,0,4,-21,-64,-26,45,-36,-361,60,-166,-31,-68,-21,-13,25,-12,-95,-21,-77,-16,25,-93,191,34,-5,3,-1,161,4228
-95,-30,38,-13,-16,-32,-142,117,-52,59,-52,-159,-124,-11,-39,-86,-19,2,-26,-159,-153,-138,-41,27,-153,-3,43,-25,-6,3,143,4229
-118,-40,26,-24,-29,-35,-161,-144,-12,55,-206,-154,115,-82,5,-94,-8,7,11,-152,-185,-138,-17,45,-150,-66,49,0,11,27,154,4230
-63,-4,28,-7,-9,-14,-110,-41,53,-232,-79,-6,151,49,-70,-34,34,43,54,-83,-103,-67,31,77,-74,14,83,46,51,45,132,4231
-99,-2,28,-4,-24,-34,-142,-2,8,-183,-68,-63,539,43,-47,-61,31,47,52,-120,-169,-97,26,88,-104,-90,95,43,49,59,186,4232
-81,-6,30,1,-14,-17,-119,-172,106,25,-84,-37,363,14,-16,-56,27,37,56,-100,-136,-79,39,78,-78,-64,88,40,58,52,123,4233
47,24,3,1,15,23,13,88,27,-54,29,63,-198,-73,-22,43,19,19,5,0,106,17,43,5,38,241,0,20,29,18,-29,4234
116,51,-2,18,32,38,111,67,-8,-88,241,43,177,-76,54,146,55,47,3,95,280,107,68,1,127,469,8,55,36,25,-64,4235
123,58,-7,26,33,23,120,135,-156,-117,295,89,-78,-28,71,161,60,46,-6,106,296,118,74,5,130,522,7,42,30,23,-51,4236
17,21,-3,-4,-9,-21,8,121,-39,-46,254,-19,10,-44,-4,65,12,23,0,11,117,10,27,17,11,299,15,18,13,1,41,4237
-68,-5,21,-21,-21,-33,-93,-24,32,59,55,-32,-163,-21,-20,-11,-2,15,31,-55,-51,-64,4,46,-54,98,44,31,23,20,140,4238
-139,-32,26,-34,-46,-44,-176,-177,215,65,108,-71,13,-141,-45,-76,13,37,64,-112,-209,-111,25,101,-95,-80,88,42,45,44,241,4239
-54,1,32,4,1,-14,-94,37,116,110,-77,-107,-80,-25,28,13,76,77,75,-22,-86,-16,96,105,-4,60,91,71,81,68,153,4240
-109,-17,35,-6,-35,-43,-162,147,84,51,-141,-94,-45,-126,92,-52,40,45,63,-84,-213,-91,57,96,-73,-77,90,50,64,60,208,4241
-81,-20,13,-9,-40,-47,-115,68,78,95,3,-106,7,-102,55,-48,-3,6,31,-78,-177,-88,9,53,-59,-5,49,24,39,30,118,4242
-71,-3,3,-16,-25,-41,-72,-59,100,84,41,16,90,-143,-51,-44,-15,-12,38,-70,-153,-84,1,28,-50,32,13,20,18,9,92,4243
-123,-18,-4,-21,-43,-58,-98,-226,22,10,-47,-25,86,-104,-129,-63,-1,3,55,-81,-203,-95,23,55,-67,-59,42,36,37,31,116,4244
-61,-14,-19,-15,-32,-52,-33,-134,76,-73,-136,-24,23,173,-76,-23,-7,2,6,-34,-81,-46,17,26,-23,74,17,10,24,18,42,4245
-42,-14,-16,-15,-28,-52,-22,-46,-43,-98,-28,22,-213,166,-47,-3,-8,6,-7,-15,-35,-26,12,15,-12,114,16,8,19,10,33,4246
-19,4,-2,-15,-8,-9,-29,-73,-100,-64,51,-54,-358,112,-78,-9,-20,0,-25,-26,-24,-40,-12,0,-33,109,0,-3,5,-6,9,4247
-54,-14,10,-18,-19,-14,-90,-53,-153,-44,-227,-116,-497,61,-56,-56,-25,0,5,-59,-117,-84,-14,13,-89,-35,14,14,12,-1,35,4248
-64,-25,-2,-19,-25,-30,-75,-177,-51,-107,-157,-98,-227,160,-38,-28,15,18,52,-32,-91,-51,32,35,-60,-28,38,47,30,16,65,4249
-89,-18,-9,-19,-38,-50,-76,-67,17,-112,-95,-84,-159,42,8,-16,70,64,121,-20,-106,-25,92,118,-45,-85,129,114,93,83,186,4250
-65,-9,1,-9,-29,-26,-56,-76,8,-21,-114,-49,-158,-32,-13,4,75,67,122,2,-66,-6,89,113,-13,-42,129,123,105,91,114,4251
-40,-13,11,1,-20,3,-47,91,-79,-58,-98,21,-159,73,5,-18,28,17,42,-20,-41,-26,26,30,-25,-8,50,37,39,23,18,4252
-47,-23,1,-20,-15,2,-49,-81,-91,-267,-37,17,-250,37,-34,-52,-37,-36,-43,-51,-30,-57,-25,-60,-67,19,-29,-41,-24,-48,-71,4253
54,1,3,5,8,35,28,24,25,-156,97,30,-217,219,-46,13,-24,-30,-58,23,126,15,-6,-74,14,207,-67,-42,-36,-60,-103,4254
129,22,-11,13,39,48,112,159,93,96,157,159,-242,154,37,81,-25,-33,-83,75,266,67,3,-99,83,411,-83,-50,-52,-71,-154,4255
129,30,-21,7,33,28,134,35,-64,-100,120,129,22,224,52,125,-26,-34,-104,112,335,90,14,-113,105,519,-105,-50,-59,-82,-199,4256
88,30,-4,9,14,3,121,146,-85,-219,226,-6,154,121,-10,133,17,20,-35,120,307,88,43,-41,118,489,-44,0,-5,-23,-75,4257
-28,12,8,-7,-13,-20,3,-149,-72,-109,69,-117,1,-132,-115,40,37,43,25,34,82,13,44,41,29,214,37,36,40,36,108,4258
-127,-27,11,-26,-39,-38,-127,-33,-23,-121,196,-129,8,-140,-66,-78,-16,11,20,-75,-148,-107,-19,45,-86,-39,45,7,19,18,120,4259
-69,-42,13,-38,-18,-7,-126,-37,53,-108,7,-99,186,-125,-44,-115,-99,-83,-94,-100,-149,-146,-102,-75,-103,13,-75,-97,-82,-65,-77,4260
-68,-41,21,-30,-6,-6,-130,-30,61,-104,-20,-74,26,-228,-27,-101,-70,-61,-53,-100,-188,-136,-56,-43,-102,-10,-54,-60,-56,-42,-22,4261
-75,-40,6,-25,-12,-25,-123,-13,42,-117,21,-77,29,-363,-37,-104,-50,-39,-33,-93,-201,-121,-21,-10,-84,-21,-23,-32,-35,-2,70,4262
-41,-26,7,-6,-17,-35,-89,-38,-64,132,-32,34,-65,-337,65,-80,-48,-35,-26,-62,-171,-94,-16,2,-63,13,-10,-29,-23,4,45,4263
-37,-15,1,5,-25,-51,-53,32,-15,155,-222,123,-39,191,45,-30,-1,4,5,-25,-117,-53,10,32,-27,59,28,5,15,34,48,4264
-32,-22,-11,-6,-29,-52,-23,-6,62,159,-120,86,84,146,82,-15,-8,-2,-6,-13,-77,-41,7,-1,-28,98,-1,1,9,19,1,4265
-60,-13,-16,-9,-40,-63,-42,4,137,237,-125,-8,-83,57,33,-20,-3,6,24,-10,-100,-49,26,6,-54,55,11,20,26,16,45,4266
-128,-21,-13,-11,-46,-71,-115,-165,121,167,39,-8,-99,-45,-36,-89,-1,9,62,-67,-214,-99,16,48,-113,-141,43,39,40,39,129,4267
-68,-7,-3,4,-29,-33,-70,-86,177,100,197,54,146,-50,5,-46,-5,0,49,-31,-114,-60,8,21,-77,-61,16,28,17,13,12,4268
-13,-12,-3,-5,-23,-22,-21,22,31,168,90,66,171,-85,-2,-23,-21,-18,0,-1,-14,-36,-6,-31,-42,58,-26,-5,-20,-35,-90,4269
-13,-7,8,8,-23,-25,-21,56,-88,48,-27,29,-34,-123,3,-21,-19,-1,7,0,-13,-37,9,-29,-61,42,-11,2,3,-26,-24,4270
-10,-11,7,8,-12,-20,-13,244,-22,90,49,16,212,-150,3,-31,-38,-19,-21,-9,-2,-53,-8,-50,-75,54,-29,-26,-19,-41,-60,4271
8,5,10,0,8,-2,-11,199,66,17,194,-15,-319,-90,38,-7,-16,-6,-29,18,41,-22,15,-42,-54,110,-34,-7,-10,-35,24,4272
13,7,6,3,7,5,-4,238,-135,60,19,61,-419,-118,-17,43,31,42,15,60,75,24,53,3,-14,121,17,32,31,7,108,4273
28,11,23,16,20,17,19,106,-92,53,5,-24,-262,-159,38,38,11,10,-2,59,96,13,28,-15,-18,140,4,16,13,-23,-4,4274
30,-4,16,4,7,13,15,23,32,109,-86,-33,77,-72,90,14,-27,-23,-39,39,78,-18,-15,-41,-31,141,-31,-23,-16,-47,-67,4275
84,9,-14,-2,12,10,76,-69,78,38,135,68,-70,31,0,74,-24,-19,-69,91,199,44,-15,-67,37,325,-55,-30,-31,-54,-124,4276
138,37,-13,14,39,27,137,50,-106,117,-6,36,-138,59,79,128,-9,-17,-73,139,301,93,-9,-80,74,482,-69,-28,-34,-52,-175,4277
60,17,5,13,10,4,37,217,-100,11,-65,30,104,-66,8,70,19,12,0,83,139,30,28,-5,12,300,-6,16,21,-5,-132,4278
-37,-9,11,-8,-13,-28,-55,139,-75,-31,43,-98,111,11,-6,-5,20,21,31,15,-42,-42,21,31,-54,91,38,25,31,26,59,4279
-82,-14,9,-9,-27,-52,-86,-147,33,119,-19,-61,-64,47,-60,-37,15,30,39,-16,-138,-75,17,58,-76,-6,60,23,48,52,93,4280
-28,-10,-2,6,-15,-30,-33,-80,114,70,-177,-50,9,44,-6,-7,7,14,8,22,-70,-35,8,32,-32,101,25,5,31,34,52,4281
-22,-4,-12,4,-8,-18,7,171,113,-39,-5,-79,142,103,-1,2,16,9,-7,38,-41,-24,15,23,-21,144,14,-7,11,31,-36,4282
43,26,-17,29,9,-14,95,112,-110,-90,119,-31,83,206,63,74,22,11,-22,96,77,47,27,18,40,291,9,-3,25,29,-101,4283
470,127,-74,95,134,104,550,382,-97,143,440,244,-23,259,192,390,-51,-101,-236,399,875,357,-39,-265,378,1364,-265,-136,-127,-140,-752,4284
1114,276,-148,171,296,278,1235,734,-217,112,817,510,6,701,264,902,-157,-241,-630,853,2142,823,-154,-697,823,3075,-685,-351,-401,-414,-1562,4285
1193,292,-149,149,302,296,1285,707,-152,-38,733,488,-6,493,206,989,-199,-269,-789,899,2442,862,-200,-816,786,3543,-765,-454,-518,-518,-1545,4286
790,189,-78,67,178,183,786,217,-130,-51,408,167,226,120,128,651,-203,-215,-698,562,1775,493,-239,-669,352,2752,-596,-437,-495,-471,-922,4287
-64,-24,32,-82,-64,-49,-186,-314,47,-12,-143,-168,481,-351,17,-33,-114,-64,-243,-80,182,-167,-176,-171,-342,655,-100,-194,-216,-178,255,4288
-207,-40,77,-68,-62,-37,-331,-177,167,-24,-377,-114,91,-372,-97,-124,-20,41,32,-138,-167,-212,-63,59,-348,109,107,-4,-12,18,382,4289
-152,-15,75,-33,-38,-11,-219,-142,155,-100,-133,-53,-75,-213,-121,-57,35,77,101,-67,-124,-136,0,104,-249,105,137,59,55,66,347,4290
-138,-33,32,-29,-57,-53,-140,-49,59,0,-160,-88,-147,-365,-159,-56,20,42,100,-57,-102,-122,-9,72,-222,106,94,42,49,51,248,4291
-111,-33,26,-30,-51,-54,-111,36,48,19,-98,23,-144,-269,-100,-55,4,26,53,-44,-66,-113,-21,22,-210,124,62,11,22,22,165,4292
-84,-17,30,-15,-30,-27,-102,-19,165,15,-20,-125,82,-64,-42,-35,24,50,55,-33,-68,-100,-23,29,-181,99,78,32,44,37,158,4293
485,114,-55,81,132,126,523,254,-29,52,167,100,313,158,88,392,-81,-112,-261,371,965,311,-100,-324,273,1471,-285,-154,-166,-193,-784,4294
990,223,-132,127,252,243,1077,539,-170,-56,571,313,270,279,228,779,-200,-263,-647,706,1977,649,-222,-719,593,2905,-662,-381,-438,-460,-1442,4295
1096,265,-120,131,275,264,1180,587,-117,136,734,287,114,328,199,879,-211,-267,-762,772,2261,704,-254,-811,610,3354,-737,-447,-523,-520,-1459,4296
766,196,-51,79,180,177,793,238,2,64,354,139,144,127,27,649,-158,-161,-609,530,1709,445,-209,-591,297,2708,-514,-353,-428,-400,-869,4297
0,-8,43,-65,-51,-52,-63,-6,180,-150,-51,-153,58,-224,-88,52,-64,-1,-154,-9,304,-119,-126,-103,-286,884,-45,-118,-144,-110,186,4298
-203,-36,80,-72,-83,-76,-270,-186,110,-136,-168,-186,125,-249,-21,-91,7,70,40,-127,-140,-231,-55,85,-360,277,126,-1,15,44,424,4299
-273,-48,82,-60,-98,-99,-317,-335,63,-64,-207,-204,132,-136,-46,-125,54,105,125,-138,-310,-240,-8,160,-345,41,196,64,98,112,471,4300
-235,-60,54,-66,-96,-100,-281,-438,35,-25,-230,-272,22,-175,-94,-112,43,77,116,-110,-280,-206,-1,129,-273,65,153,50,79,90,379,4301
-246,-60,67,-53,-83,-65,-289,-226,11,50,-258,-206,159,-253,-77,-122,52,90,137,-121,-350,-211,16,160,-267,-46,176,78,103,109,414,4302
-255,-56,68,-45,-80,-70,-281,-285,67,-24,-305,-89,231,-173,-84,-117,81,116,185,-111,-374,-185,52,191,-231,-106,207,118,141,146,419,4303
307,64,-35,44,72,63,334,121,-94,-234,201,110,-202,35,71,299,-3,-34,-115,290,633,235,-22,-173,230,1206,-157,-68,-47,-66,-475,4304
907,233,-98,155,244,225,990,605,-173,-62,741,246,-38,131,218,748,-112,-174,-500,692,1789,642,-146,-579,638,2767,-531,-281,-315,-333,-1188,4305
858,218,-81,129,223,193,953,554,-162,126,344,178,121,149,156,737,-125,-169,-546,640,1816,595,-174,-602,536,2876,-532,-308,-384,-374,-1012,4306
476,125,-33,46,98,67,531,149,-41,61,261,-19,108,115,62,474,-66,-58,-351,371,1192,310,-131,-367,207,2087,-289,-195,-264,-227,-370,4307
-173,-27,37,-65,-89,-119,-152,-266,53,-85,-12,-234,76,-166,-7,-18,13,63,22,-90,21,-153,-56,37,-272,541,79,-3,-30,21,446,4308
-239,-46,45,-69,-102,-124,-235,-256,81,-103,-120,-109,214,-255,-25,-115,16,55,78,-148,-193,-203,-41,83,-295,215,119,22,27,66,411,4309
-190,-26,55,-53,-71,-90,-217,-170,106,-51,7,-52,100,-90,-31,-95,18,50,63,-136,-166,-180,-51,62,-244,204,111,17,24,68,314,4310
-215,-56,42,-67,-87,-99,-253,-122,80,35,-163,-112,43,-272,4,-115,-10,30,58,-151,-211,-191,-61,45,-255,119,85,4,10,66,269,4311
-170,-47,42,-53,-62,-63,-209,7,63,12,-189,-200,71,-58,27,-81,3,30,87,-112,-160,-152,-36,51,-213,156,97,28,40,77,265,4312
-116,-32,35,-45,-46,-47,-151,-39,-3,76,-57,-204,1,-34,43,-42,22,40,90,-69,-107,-123,-26,52,-172,221,86,47,48,83,209,4313
-30,-5,31,-24,-8,-13,-38,-207,-11,51,-37,-89,212,-56,26,38,33,41,63,18,53,-42,-8,16,-91,439,53,45,39,80,85,4314
141,44,6,10,48,35,163,-44,0,67,33,124,-234,167,40,185,11,-2,-61,147,405,91,-26,-106,49,907,-65,-26,-34,1,-154,4315
65,30,9,6,22,-5,74,242,-19,61,-100,111,1,72,-26,119,18,22,-24,73,259,27,-36,-70,-34,726,-11,-7,-20,15,27,4316
-16,7,22,-2,7,-8,-43,17,-9,-137,-280,32,-65,92,-32,27,14,29,-7,-10,64,-54,-32,-30,-129,487,29,-3,-9,21,118,4317
-202,-58,62,-36,-49,-51,-297,-277,48,-137,-346,-126,41,-241,-75,-160,7,42,69,-182,-334,-245,-27,51,-310,-46,105,18,27,38,372,4318
-126,-39,58,-36,-22,-21,-214,-140,-13,-108,-473,-37,-158,-237,-85,-108,-17,5,44,-111,-213,-190,-37,-13,-227,93,38,1,10,1,188,4319
-169,-33,53,-35,-43,-46,-198,-47,29,-253,-233,1,-220,-333,-23,-88,28,56,131,-88,-256,-173,13,82,-186,41,117,63,83,47,306,4320
-201,-43,31,-41,-65,-85,-200,-275,53,-34,-30,27,92,-232,-132,-72,67,96,180,-68,-285,-154,58,127,-144,-6,158,105,124,72,364,4321
-198,-30,39,-33,-55,-83,-207,-323,120,45,-193,35,20,35,-56,-68,80,106,194,-61,-297,-137,58,140,-119,-38,170,116,142,76,330,4322
-169,-29,54,-21,-34,-55,-196,-158,136,-6,-92,-38,24,129,27,-64,68,89,162,-48,-275,-127,36,114,-97,-19,149,99,116,59,268,4323
-483,-113,104,-72,-112,-117,-565,-197,71,83,-401,-244,101,-222,-40,-348,82,133,296,-319,-896,-385,53,268,-373,-841,300,173,185,143,761,4324
-1002,-243,166,-141,-249,-241,-1140,-498,72,11,-642,-392,100,-583,-188,-785,162,230,619,-714,-1946,-762,156,605,-746,-2294,619,341,392,360,1435,4325
-1030,-253,171,-121,-246,-218,-1174,-691,154,80,-546,-439,262,-648,-180,-857,162,227,678,-761,-2137,-793,157,653,-729,-2638,646,369,447,428,1364,4326
-752,-198,101,-68,-177,-166,-808,-398,78,-33,-412,-276,249,-363,-120,-615,152,174,578,-521,-1647,-532,167,515,-414,-2066,506,341,400,397,849,4327
-27,-11,-9,52,26,18,22,-137,-22,-36,-23,113,-257,208,126,-31,90,40,161,18,-279,38,115,90,176,-297,91,131,169,159,-97,4328
113,35,-21,54,59,68,155,163,-64,-53,115,90,-307,138,49,63,17,-21,-31,78,38,98,36,-76,192,169,-55,6,13,27,-227,4329
97,17,-17,15,49,69,90,80,-50,69,117,37,27,122,-73,28,-37,-69,-98,34,52,46,-12,-147,126,238,-115,-56,-66,-27,-246,4330
74,9,-2,16,46,55,51,-89,-25,-99,47,85,157,239,-1,25,-28,-52,-78,24,44,40,-17,-123,100,235,-84,-39,-56,-4,-193,4331
41,17,1,15,39,22,27,-260,41,55,99,100,304,60,10,35,24,1,5,33,10,44,33,-36,89,184,13,35,8,70,-120,4332
-30,0,-8,13,2,-33,-44,-114,68,215,148,104,190,-128,-83,-6,53,33,74,-8,-108,0,64,23,24,36,83,72,41,109,104,4333
-662,-151,93,-89,-174,-191,-740,-286,172,142,-420,-317,-236,-383,-193,-516,112,157,374,-496,-1300,-499,112,373,-512,-1532,447,231,231,320,1031,4334
-1312,-305,184,-175,-342,-339,-1452,-844,286,6,-843,-575,-355,-488,-366,-1045,208,299,781,-953,-2607,-971,199,797,-980,-3342,851,462,514,584,1826,4335
-1478,-342,213,-163,-362,-349,-1638,-886,383,-41,-974,-547,85,-372,-259,-1196,273,356,988,-1055,-3068,-1065,260,970,-1030,-4063,1009,582,671,715,1955,4336
-1115,-262,134,-93,-247,-239,-1235,-573,270,109,-519,-219,174,-404,-187,-942,222,243,836,-790,-2504,-787,250,737,-675,-3433,768,496,591,585,1229,4337
-53,-9,-26,68,48,29,-51,211,-29,233,256,209,124,254,109,-115,88,6,226,-9,-548,-1,148,48,167,-887,82,165,203,157,-235,4338
186,33,-81,77,79,52,243,212,-117,99,253,356,148,343,148,96,25,-54,-27,162,21,158,95,-175,277,-64,-112,25,30,-42,-439,4339
70,13,-49,54,42,21,126,183,-73,38,156,214,64,134,107,24,42,-19,7,92,-105,77,93,-122,167,-194,-25,57,48,-35,-190,4340
55,25,-33,51,52,37,88,95,-36,-21,146,210,-155,2,-70,-8,1,-50,-20,57,-135,23,48,-158,107,-198,-49,11,13,-82,-228,4341
70,25,-3,57,68,63,65,40,18,-15,206,199,-164,186,-22,-22,-41,-77,-70,18,-138,-21,-1,-205,69,-172,-87,-39,-25,-129,-176,4342
-43,-5,6,22,29,42,-59,89,50,37,46,-49,-170,57,20,-117,-41,-61,-37,-73,-314,-122,-24,-181,-17,-385,-44,-32,-31,-105,1,4343
-1026,-256,134,-151,-254,-223,-1151,-629,236,6,-682,-492,-31,-501,-229,-905,48,134,440,-814,-2133,-872,63,378,-816,-2790,526,226,263,230,1482,4344
-1991,-484,270,-248,-491,-456,-2220,-1267,429,-68,-1372,-814,150,-953,-408,-1634,301,438,1194,-1448,-4067,-1496,327,1155,-1401,-5504,1260,688,803,780,2758,4345
-1880,-470,230,-213,-447,-409,-2080,-1078,203,-121,-1155,-635,-4,-823,-264,-1569,352,442,1329,-1334,-4046,-1342,415,1187,-1140,-5674,1249,786,923,878,2349,4346
-1032,-269,102,-61,-204,-173,-1123,-303,160,-83,-577,-164,-27,-198,-61,-938,250,234,928,-723,-2606,-691,345,666,-393,-3881,750,560,681,615,1017,4347
243,51,-67,156,155,163,301,475,-78,33,280,341,-119,431,142,34,72,-51,158,187,-219,242,192,-176,576,-735,-40,137,189,109,-673,4348
368,85,-99,135,157,152,451,402,-147,34,339,313,-259,277,137,149,-36,-127,-148,228,192,283,56,-407,531,-90,-223,-49,-41,-75,-715,4349
312,75,-91,103,136,130,362,335,-89,175,147,223,-112,190,84,142,2,-75,-124,218,198,268,75,-361,463,-41,-161,-18,-20,-49,-546,4350
274,74,-73,86,124,124,301,81,-53,34,206,208,-92,415,101,150,23,-45,-90,205,201,255,83,-332,417,-15,-115,16,-16,-23,-379,4351
200,60,-55,75,92,99,227,-32,-75,54,-2,164,303,207,6,90,10,-39,-58,137,94,186,56,-303,329,-125,-69,16,-6,-6,-280,4352
138,43,-51,45,77,77,170,-29,-7,-20,142,122,214,-34,54,25,-12,-53,-55,84,20,127,33,-307,253,-198,-69,5,-22,-20,-303,4353
-278,-75,-15,-41,-62,-55,-288,-135,-38,-10,-53,-75,-188,-193,-84,-287,27,23,145,-224,-712,-189,62,-96,-93,-1126,144,94,97,98,374,4354
-676,-158,50,-82,-162,-149,-712,-564,43,-32,-369,-164,-98,-364,-224,-588,104,131,408,-489,-1488,-465,147,176,-379,-2185,414,243,274,279,876,4355
-766,-196,68,-88,-178,-165,-814,-515,11,-36,-442,-181,-14,-397,-107,-684,117,135,468,-550,-1729,-543,161,222,-427,-2567,462,274,325,321,882,4356
-568,-149,24,-49,-122,-113,-593,-168,147,9,-293,-118,19,-184,-77,-526,111,103,410,-381,-1402,-369,176,106,-221,-2200,358,247,308,281,625,4357
-11,0,-49,51,36,42,31,44,34,68,73,142,-103,192,23,-87,44,-6,122,22,-394,43,110,-243,214,-878,45,99,124,86,-108,4358
159,39,-61,82,83,78,206,140,-42,198,221,188,-59,249,96,36,3,-59,-32,126,-46,133,61,-389,287,-387,-84,8,5,-46,-337,4359
191,40,-60,73,93,101,197,291,-82,194,109,209,41,-15,80,48,-38,-91,-119,116,32,120,10,-481,249,-248,-148,-52,-65,-112,-316,4360
95,27,-34,56,63,77,82,307,-7,124,74,213,74,-53,69,-2,6,-19,-38,64,-130,60,50,-404,171,-430,-40,10,12,-43,-153,4361
107,15,-57,32,49,46,99,238,-42,3,50,165,35,-48,30,19,1,-30,-37,87,-69,76,48,-434,199,-324,-57,15,6,-55,-224,4362
52,-2,-45,15,25,34,43,21,-19,54,84,110,37,-3,-45,-27,-12,-32,-27,33,-145,22,47,-436,143,-415,-55,7,-8,-58,-115,4363
-279,-70,19,-46,-68,-38,-304,-203,118,-33,-143,-23,120,10,-189,-305,-3,11,101,-223,-745,-238,48,-256,-140,-1206,130,62,65,45,375,4364
-816,-203,87,-120,-205,-172,-891,-571,176,-141,-514,-228,-46,-180,-175,-727,90,143,430,-605,-1789,-631,129,111,-528,-2616,485,238,281,280,1082,4365
-822,-205,80,-95,-190,-164,-879,-511,90,-115,-298,-223,83,-101,-110,-730,142,168,538,-582,-1869,-598,193,170,-433,-2809,519,319,374,351,981,4366
-449,-98,32,-16,-71,-55,-445,-84,160,-6,-12,39,-64,-29,-34,-435,122,107,413,-282,-1222,-274,193,1,-64,-2022,348,273,317,275,399,4367
169,44,-42,92,99,109,233,411,55,35,541,272,-210,249,60,58,58,-4,97,178,-67,192,130,-363,423,-506,3,107,108,57,-375,4368
267,52,-80,70,97,103,322,186,-143,26,162,131,-61,314,66,128,2,-48,-40,218,173,226,85,-504,423,-127,-113,6,-8,-49,-419,4369
227,35,-91,48,77,72,272,91,-91,11,34,48,-57,207,58,89,-46,-94,-117,159,152,183,13,-558,334,-85,-160,-58,-70,-102,-465,4370
197,51,-63,47,69,65,223,117,-6,11,59,177,-99,303,140,84,-23,-51,-108,157,130,171,24,-512,297,-100,-102,-42,-49,-62,-317,4371
176,56,-60,56,55,54,226,19,-34,-1,-14,161,-28,243,121,97,1,-30,-60,164,133,173,58,-471,304,-84,-67,-17,-18,-34,-189,4372
165,57,-45,62,55,65,233,128,-67,-46,-42,171,151,85,114,108,3,-35,-63,157,160,176,61,-469,300,-29,-84,-14,-27,-37,-187,4373
-43,3,-11,9,-5,6,-20,-8,85,-7,-29,7,-211,-15,84,-63,42,26,32,-10,-239,11,75,-338,125,-537,55,26,35,35,162,4374
-309,-65,23,-30,-83,-75,-317,-119,-67,-78,-228,-165,-98,-31,-20,-279,66,91,200,-202,-764,-189,94,-149,-68,-1254,233,108,142,142,482,4375
-370,-93,16,-43,-98,-77,-392,-325,7,-19,-153,-182,-95,-209,-58,-322,87,95,276,-231,-901,-222,130,-67,-76,-1462,270,171,206,194,532,4376
-245,-69,-14,-16,-58,-41,-249,-137,54,84,-134,-94,-178,-172,-45,-223,80,62,240,-136,-675,-102,132,-135,55,-1186,188,147,175,147,270,4377
81,15,-64,37,36,45,135,209,-69,101,191,133,-352,93,52,26,21,-27,33,83,-57,137,81,-340,291,-388,-29,34,37,12,-242,4378
136,35,-54,53,53,56,187,226,-76,142,311,175,-278,76,39,77,15,-27,-19,113,63,152,64,-349,289,-232,-40,21,0,-27,-242,4379
181,33,-42,35,70,90,192,199,-10,101,223,108,20,257,9,60,-43,-80,-114,94,126,123,-11,-403,246,-128,-115,-58,-81,-94,-328,4380
176,23,-17,33,77,109,165,247,-27,84,163,163,-108,222,126,41,-59,-84,-141,67,127,93,-41,-408,202,-126,-139,-87,-99,-110,-324,4381
199,29,-18,43,80,115,198,242,-96,88,105,127,-156,44,82,78,-18,-51,-97,102,202,133,14,-347,231,-35,-106,-42,-69,-91,-242,4382
175,29,-45,26,55,80,192,218,-82,-8,193,70,-73,58,32,75,-37,-60,-111,91,202,113,-3,-332,204,-24,-111,-53,-80,-107,-274,4383
101,24,-22,21,41,62,110,-39,31,-80,57,88,112,14,-4,38,3,-4,-49,55,84,72,18,-227,145,-184,-30,-3,-31,-44,-95,4384
-4,-4,-6,-13,9,26,-16,-222,85,-46,-217,40,178,81,-72,-55,-19,-19,-15,-26,-117,-27,-1,-181,38,-433,1,1,-15,-22,6,4385
-4,-3,-21,-2,12,19,6,-69,-2,-111,-9,49,359,202,-52,-46,-30,-39,-10,-9,-115,-7,-7,-166,46,-402,1,-14,-15,-16,-14,4386
39,9,-22,4,21,29,44,47,-6,19,-45,11,-99,66,-47,-31,-41,-58,-36,27,-42,20,-26,-195,73,-296,-43,-41,-34,-40,-91,4387
136,34,-23,36,52,62,130,207,-32,195,-183,67,-40,12,-77,51,-21,-50,-77,107,120,100,-16,-235,147,-71,-89,-47,-43,-62,-180,4388
144,45,-16,51,56,65,170,-17,-5,227,-7,97,22,120,16,104,31,0,-11,163,175,156,56,-168,201,9,-46,10,8,-12,-127,4389
114,36,-28,45,24,34,164,271,89,-12,110,37,-110,10,32,79,6,-12,-15,139,131,133,30,-174,169,-20,-47,-6,-13,-28,-72,4390
157,45,-46,34,52,41,206,177,-112,38,98,-1,-122,160,-28,92,-13,-37,-39,143,189,137,7,-201,198,91,-84,-33,-33,-66,-137,4391
149,22,-56,11,34,41,171,52,-112,-70,98,-9,-361,12,-45,72,-46,-61,-92,123,191,123,-21,-241,178,124,-134,-71,-74,-85,-235,4392
102,12,-41,10,18,34,129,-27,-44,-83,50,-8,-101,109,-39,54,-46,-45,-106,97,136,102,-34,-229,151,73,-109,-73,-76,-71,-127,4393
85,21,-44,12,18,16,132,-125,21,-157,-39,72,301,82,-56,67,-34,-30,-69,93,120,110,-27,-209,160,56,-69,-44,-49,-43,-109,4394
173,35,-54,21,43,38,208,53,-98,-35,71,-9,105,103,-29,124,-37,-49,-83,155,267,179,-21,-262,230,257,-115,-54,-66,-61,-229,4395
295,61,-42,48,85,84,323,-37,-106,7,285,7,-52,-79,13,207,-61,-82,-151,222,479,239,-31,-341,299,544,-194,-89,-114,-117,-405,4396
311,71,-15,47,94,101,332,81,-64,43,224,-14,-15,-21,50,204,-74,-80,-163,206,508,223,-45,-352,282,606,-200,-107,-143,-125,-368,4397
140,28,-9,14,28,43,155,50,79,79,-6,21,8,83,45,100,-46,-29,-94,78,248,108,-36,-246,156,267,-88,-56,-85,-58,-116,4398
27,14,11,20,6,11,37,-64,124,57,102,-7,-15,184,30,24,12,28,6,-9,51,42,7,-137,89,-46,25,14,-3,10,71,4399
93,20,5,22,34,42,81,-48,75,125,261,48,124,192,-34,40,-34,-16,-66,-4,135,43,-30,-207,84,32,-54,-35,-63,-54,-73,4400
115,26,18,22,51,55,101,68,60,72,-9,-9,147,253,70,53,-39,-14,-95,-8,179,49,-44,-212,71,66,-78,-41,-85,-70,-93,4401
94,16,12,8,36,44,94,146,-55,145,78,-79,49,-92,86,57,-17,-10,-62,-2,184,57,-22,-176,67,46,-60,-22,-67,-65,-68,4402
138,17,-28,11,28,45,158,251,-202,-68,107,-9,-6,-38,-8,110,-14,-16,-71,47,305,111,-13,-177,99,181,-72,-29,-55,-68,-108,4403
412,98,-75,65,97,97,478,261,-202,-244,191,163,-20,123,66,328,-50,-73,-213,275,816,327,-41,-333,301,879,-228,-119,-147,-174,-580,4404
874,211,-150,126,213,189,1007,548,-196,-105,616,328,-103,360,226,689,-171,-224,-585,605,1751,626,-185,-690,590,2176,-586,-338,-405,-426,-1264,4405
845,210,-146,99,192,167,986,510,-117,-43,532,245,-404,330,179,709,-142,-191,-557,626,1807,627,-153,-631,556,2342,-554,-309,-397,-409,-1079,4406
555,147,-87,45,114,102,632,231,-99,-14,329,181,217,203,28,503,-81,-106,-383,435,1308,427,-92,-412,297,1753,-354,-214,-289,-283,-508,4407
-10,-8,-17,-61,-44,-37,-12,-177,-122,-17,-77,-122,459,-39,-270,66,-22,19,-29,41,238,12,-45,-12,-129,401,1,-31,-74,-46,223,4408
-77,-13,12,-39,-45,-42,-79,-126,35,-137,-52,3,355,-185,-68,28,30,60,117,29,48,-10,-8,126,-104,134,101,57,36,63,281,4409
-77,-9,22,-5,-28,-21,-59,-119,-77,-174,-9,-38,-100,3,-10,-4,13,36,90,13,0,-25,-28,131,-97,51,80,25,24,58,243,4410
-58,-10,17,-14,-19,-4,-54,-45,-47,-77,118,-162,-34,-204,-51,-28,-23,-9,39,10,-21,-37,-38,96,-88,42,11,-24,-28,12,90,4411
-48,-13,17,-22,-14,1,-38,33,-40,-59,77,-137,-255,-140,-19,-18,-32,-20,21,12,-25,-30,-43,97,-61,59,-21,-36,-32,3,44,4412
-11,-16,17,-26,-5,10,-18,29,-24,-100,31,-136,-205,82,71,-25,-72,-52,-44,17,4,-18,-93,63,-36,101,-68,-74,-62,-33,-40,4413
380,89,-38,48,105,111,397,305,-171,-112,352,134,135,214,115,311,-60,-80,-168,327,721,315,-69,-64,318,1025,-229,-107,-121,-100,-535,4414
622,149,-92,82,148,143,694,464,-79,-26,342,232,-103,51,206,557,-68,-105,-303,511,1280,513,-63,-191,521,1785,-353,-169,-209,-185,-782,4415
680,183,-82,101,170,147,793,523,-43,94,445,301,-215,86,172,603,-114,-127,-397,546,1465,542,-99,-252,540,2090,-421,-235,-295,-256,-825,4416
479,129,-31,48,115,107,536,270,-100,-5,471,122,-61,12,137,410,-125,-114,-371,347,1108,337,-150,-156,305,1664,-339,-238,-296,-244,-525,4417
-18,10,46,-42,-24,-14,-40,-192,-41,-8,-209,-135,8,-165,-49,29,-54,5,-74,-34,182,-39,-95,182,-94,430,-26,-73,-109,-56,184,4418
-114,-23,47,-46,-55,-30,-158,-231,23,-54,-318,-238,81,-79,-60,-51,-36,28,22,-120,-33,-104,-72,279,-137,93,48,-16,-34,9,220,4419
-39,-5,40,-10,-24,-22,-55,-117,109,-41,-175,-130,29,140,30,26,1,54,51,-57,97,-29,-25,296,-57,189,47,20,-2,13,130,4420
2,15,24,3,-16,-21,25,-112,8,-20,-140,-54,96,157,112,77,2,42,20,-15,206,15,-23,273,-23,287,14,16,-21,-18,107,4421
-67,0,33,-8,-38,-39,-37,2,45,12,-102,-10,28,18,16,13,3,36,44,-61,80,-36,-15,313,-99,92,43,37,-18,-16,151,4422
35,23,31,17,11,3,70,-35,168,157,-209,90,107,45,-33,88,14,36,30,20,249,59,6,291,-36,273,-9,26,-18,-36,-26,4423
492,120,-40,81,140,113,562,249,-62,203,246,252,152,33,158,454,-26,-57,-193,383,1105,402,-37,40,329,1403,-262,-90,-142,-181,-712,4424
910,230,-107,127,240,204,1003,671,-198,131,575,335,19,347,168,773,-107,-156,-477,684,1909,688,-116,-244,581,2554,-531,-250,-329,-364,-1195,4425
871,219,-110,102,200,166,964,638,-85,57,423,312,85,317,136,745,-153,-185,-591,643,1910,626,-182,-295,468,2681,-574,-352,-419,-421,-1092,4426
540,144,-54,48,99,64,607,402,-41,86,86,62,478,67,78,510,-106,-100,-412,430,1360,386,-149,-77,182,2035,-365,-252,-325,-299,-583,4427
-58,5,26,-51,-63,-84,-61,-90,44,39,-201,-212,-11,-204,31,39,-24,35,-49,11,233,-45,-78,339,-267,580,25,-59,-94,-34,251,4428
-127,-11,57,-33,-56,-75,-136,-88,77,119,-69,-136,-10,-215,4,-23,16,50,59,-13,37,-80,-42,439,-245,287,97,-1,4,41,279,4429
-152,-28,44,-44,-71,-92,-155,-366,5,2,43,-78,109,-251,-6,-57,0,17,94,-32,-52,-108,-51,454,-225,181,81,-6,0,47,225,4430
-154,-39,18,-53,-81,-99,-146,-123,-21,39,-101,-86,95,-301,-21,-77,-15,4,95,-39,-95,-102,-52,453,-192,126,62,-11,3,59,167,4431
-131,-34,13,-43,-71,-91,-107,3,-16,52,138,-6,-18,-107,75,-44,-12,19,77,-12,-62,-70,-26,459,-138,165,60,-3,15,76,192,4432
-105,-14,12,-20,-60,-84,-97,34,-30,-19,154,67,-165,115,-80,-10,9,43,99,18,-49,-47,-19,489,-91,184,89,16,44,99,194,4433
156,43,-25,22,19,-1,146,127,-3,-27,319,202,164,232,56,152,-52,-55,-73,180,405,131,-73,304,115,774,-117,-85,-76,-26,-334,4434
505,125,-49,69,122,115,480,502,-114,106,391,293,681,348,165,419,-92,-120,-270,414,1062,379,-104,94,370,1660,-322,-180,-209,-169,-735,4435
554,148,-50,69,126,121,524,566,-33,23,270,188,78,627,114,494,-85,-97,-296,454,1232,426,-103,84,400,1902,-323,-189,-219,-185,-696,4436
373,95,-29,19,70,56,371,87,-99,-53,127,168,-113,406,69,375,-53,-38,-208,321,959,283,-84,205,243,1572,-193,-129,-174,-131,-418,4437
-39,-16,22,-60,-45,-40,-46,-118,-8,-174,-226,-79,98,1,-17,38,-24,29,-17,-10,187,-44,-51,428,-113,553,22,-33,-59,-18,115,4438
-197,-46,49,-58,-67,-59,-189,-247,13,-92,-421,-253,130,-257,-49,-92,-5,61,96,-150,-156,-168,-27,538,-240,61,111,38,26,49,337,4439
-183,-47,42,-46,-70,-76,-160,-208,-79,-173,-267,-194,19,-191,-57,-70,20,70,155,-124,-132,-127,5,551,-194,31,124,81,67,73,248,4440
-139,-44,20,-56,-65,-70,-128,-217,-62,-165,-205,-195,60,-172,-26,-38,10,43,117,-97,-55,-91,0,512,-173,101,86,52,44,37,152,4441
-103,-36,18,-37,-54,-42,-118,-286,-20,-22,21,-123,97,122,-19,-44,-36,9,38,-106,-39,-101,-42,448,-210,107,39,-2,-4,-9,45,4442
19,-5,15,3,-4,-7,7,-41,29,13,149,26,-60,163,41,46,-45,-19,-7,-10,160,-21,-58,385,-139,354,-22,-13,-24,-38,-132,4443
383,115,-38,90,104,75,443,335,21,95,464,141,-239,360,114,380,-43,-61,-149,311,877,291,-70,188,169,1296,-202,-70,-110,-130,-611,4444
742,197,-107,119,179,152,859,643,-125,49,635,315,-240,405,121,663,-112,-145,-394,582,1614,559,-131,-82,412,2326,-449,-218,-274,-297,-1052,4445
744,189,-97,86,173,151,813,495,-181,36,422,285,-244,299,74,642,-156,-170,-476,560,1664,513,-177,-157,329,2481,-497,-293,-353,-358,-963,4446
446,110,-34,27,95,87,464,202,-179,-38,19,39,-203,-91,37,406,-141,-122,-374,330,1141,272,-170,-28,39,1866,-352,-265,-304,-287,-487,4447
-97,-25,51,-66,-62,-61,-114,-93,-126,9,-198,-148,119,-291,-78,-16,-77,-15,-94,-44,133,-123,-109,303,-363,551,-30,-106,-110,-74,216,4448
-191,-46,38,-72,-77,-94,-190,-81,-7,-3,-69,-131,12,-84,-124,-85,-41,11,29,-84,-76,-155,-70,398,-359,251,52,-31,-24,8,267,4449
-147,-29,32,-50,-64,-80,-140,-197,-6,5,-10,-76,151,-181,8,-42,-4,40,86,-23,-45,-108,-20,424,-249,264,75,10,24,53,223,4450
-147,-35,35,-46,-64,-71,-154,-103,171,13,-241,-117,261,-125,19,-66,-13,28,95,-52,-91,-117,-31,404,-237,198,56,10,20,41,189,4451
-116,-40,53,-45,-38,-38,-165,-50,153,45,-329,-114,176,-77,-146,-90,-48,-17,51,-73,-113,-139,-72,343,-238,175,18,-28,-15,-7,74,4452
-120,-46,52,-54,-25,-27,-180,-121,93,-5,-282,-183,-153,-211,-76,-112,-54,-24,64,-86,-151,-151,-65,335,-223,119,26,-30,-16,0,47,4453
-57,-20,40,-20,-21,-19,-66,-104,-7,30,-120,-109,-99,-155,-24,-50,-60,-29,49,-22,-23,-89,-69,302,-136,268,-5,-34,-19,-8,-36,4454
85,24,15,22,21,18,118,58,26,81,29,70,29,-4,-25,72,-53,-32,-14,85,243,31,-68,232,-22,615,-69,-49,-52,-41,-163,4455
50,14,-5,0,2,-15,92,33,31,9,-21,36,40,9,-101,61,-41,-19,-17,57,204,13,-66,233,-51,570,-51,-51,-52,-37,-75,4456
-25,2,16,-2,-27,-30,5,-10,-50,-52,-123,-73,81,95,-14,18,-38,-1,18,9,80,-49,-62,267,-115,390,0,-29,-23,-5,68,4457
-174,-48,45,-34,-54,-59,-213,-150,42,-29,-4,-147,208,-134,-20,-109,-6,46,117,-110,-229,-162,-48,368,-235,-31,110,39,42,66,242,4458
-123,-41,47,-40,-28,-26,-192,-54,12,-75,46,-65,179,-38,6,-60,2,50,131,-57,-151,-100,-23,359,-170,45,83,51,60,79,204,4459
-115,-35,30,-26,-21,-23,-171,-2,-17,-28,-23,-33,-80,-164,8,-44,-1,39,116,-55,-112,-83,-17,321,-155,63,68,53,63,65,139,4460
-84,-21,26,-6,-18,-20,-137,108,40,59,-3,-42,-81,-95,-12,-29,7,48,133,-44,-85,-55,7,321,-142,89,78,72,75,74,91,4461
-45,-13,-3,-19,-23,-25,-90,-41,102,-143,-59,-58,23,-86,1,5,-14,33,77,-7,-4,-35,-13,262,-137,195,33,35,44,43,59,4462
-21,-6,14,-12,-8,-15,-65,-72,73,-67,-56,-73,12,-85,26,35,24,55,73,21,28,-16,9,256,-127,230,43,50,50,46,72,4463
-166,-39,42,-28,-46,-53,-215,7,59,72,-191,-175,43,-97,-33,-62,64,103,188,-64,-232,-109,68,353,-229,-133,148,128,126,116,313,4464
-316,-75,55,-55,-87,-88,-375,-190,-8,103,-232,-203,31,-206,-61,-180,82,121,283,-162,-519,-207,89,431,-308,-533,231,167,179,172,457,4465
-309,-82,70,-49,-64,-66,-376,-121,55,7,-177,-191,-285,-177,-52,-212,54,86,256,-173,-564,-230,65,386,-310,-614,206,138,155,150,400,4466
-258,-66,49,-21,-51,-56,-304,-161,102,27,-52,-120,-237,-169,-8,-187,39,65,218,-140,-495,-194,42,341,-255,-531,169,115,131,124,290,4467
-56,-10,9,7,-3,-14,-63,-28,112,17,34,26,-16,-92,62,-54,-7,-13,81,-15,-141,-70,4,176,-95,-66,19,20,30,30,-37,4468
-8,-1,7,4,5,-1,-17,181,-47,-90,-3,-40,-36,59,34,-40,-49,-47,6,0,-58,-58,-40,104,-88,64,-33,-25,-27,-30,-94,4469
32,21,14,17,25,31,7,134,-85,-98,-57,28,3,50,-5,14,-21,-9,37,47,13,-9,-11,131,-39,180,-8,0,15,8,-68,4470
3,8,19,17,13,17,-19,-46,-51,2,50,17,-163,-27,-14,15,7,22,66,40,-14,-2,22,159,-46,146,40,30,42,48,34,4471
-52,-2,11,-1,-13,-22,-50,-65,-7,81,-16,52,-73,-64,-12,-6,40,45,123,14,-89,-29,44,206,-67,33,84,62,64,65,162,4472
-103,-8,13,-2,-23,-35,-68,-68,19,42,-84,5,54,-75,-26,-35,48,56,172,-13,-161,-67,62,247,-85,-66,111,77,76,90,130,4473
-247,-47,36,-12,-59,-58,-241,-243,210,106,-259,-93,427,-59,-20,-188,26,57,217,-146,-460,-210,47,306,-222,-415,163,87,95,101,330,4474
-478,-124,63,-65,-119,-113,-513,-326,209,77,-392,-161,-193,-239,-118,-391,33,86,327,-336,-935,-395,47,437,-403,-1009,276,145,164,177,593,4475
-549,-153,62,-89,-143,-119,-579,-139,16,-37,-453,-274,61,-377,-132,-445,51,108,392,-393,-1115,-430,63,504,-439,-1292,339,186,220,232,659,4476
-460,-119,44,-44,-111,-106,-454,-148,119,-15,-304,-192,96,-157,-104,-344,80,103,393,-290,-942,-314,101,499,-311,-1130,313,215,236,236,480,4477
-98,-40,-3,20,-2,-11,-85,35,-94,-49,92,41,-6,90,10,-65,26,25,149,-27,-278,-43,44,259,-40,-264,80,85,111,88,-31,4478
41,-26,-18,4,26,34,36,-80,-138,-33,202,136,-228,-25,-23,43,12,2,42,63,-1,50,45,154,25,109,-12,36,41,10,-167,4479
17,-28,-7,-11,14,36,2,-73,-159,-66,52,35,-102,-51,4,27,3,8,32,34,-31,36,42,173,-27,89,2,38,28,6,-78,4480
-13,-17,20,5,19,35,-31,59,-21,16,237,34,-80,-144,-41,1,6,29,57,10,-99,-1,40,194,-70,11,43,47,47,27,30,4481
53,7,11,24,39,46,30,-2,49,-16,21,150,-107,-3,2,43,1,23,20,60,12,38,32,156,-37,152,12,30,29,7,-89,4482
12,8,19,15,23,27,-4,-131,15,-3,-33,48,-12,162,30,5,-6,13,5,26,-48,-8,20,149,-73,80,14,19,9,-7,-23,4483
-130,-53,9,-35,-36,-16,-163,-153,-82,48,-100,-28,-72,208,11,-108,-12,19,55,-80,-293,-115,25,202,-178,-246,61,32,37,8,173,4484
-373,-111,62,-65,-85,-70,-447,-286,-70,-80,-219,-169,33,-209,-64,-304,43,83,243,-251,-782,-270,89,384,-336,-902,240,137,151,127,491,4485
-314,-84,75,-28,-43,-36,-387,-229,-16,-70,-357,-124,98,-166,-121,-282,46,73,213,-226,-745,-238,72,350,-274,-879,215,117,139,128,375,4486
-149,-45,22,-10,-12,-2,-193,-229,-88,-119,-185,-176,-428,106,-27,-170,-11,9,103,-112,-454,-143,20,214,-134,-510,73,48,68,48,29,4487
68,12,-15,34,39,37,55,76,14,-93,194,-57,-73,193,75,0,-31,-47,6,38,-34,18,-4,62,48,44,-65,-8,-16,-27,-260,4488
51,9,-30,22,10,5,63,49,12,-191,-38,-59,138,183,-14,9,-37,-40,6,41,-8,21,-1,51,45,103,-71,-10,-27,-33,-167,4489
27,9,-6,3,11,20,45,129,69,66,-302,11,248,-9,-42,13,-30,-17,16,33,-25,18,12,74,35,113,-42,-3,-11,-13,-113,4490
22,7,13,9,9,20,25,71,50,34,-29,157,-62,45,-16,15,1,18,50,40,-35,15,31,112,49,96,19,14,21,26,-36,4491
11,16,3,28,6,20,4,15,59,-87,100,109,100,85,42,12,39,41,100,48,-41,26,65,145,62,73,60,55,43,60,2,4492
-4,14,1,14,-2,18,-2,-12,78,-91,-214,43,129,90,39,27,61,58,140,49,-35,32,92,172,70,85,67,88,70,91,18,4493
-93,-22,18,-16,-17,-5,-83,-113,66,75,-569,-90,-312,119,1,-41,50,67,150,-14,-188,-45,83,182,-16,-84,99,85,81,101,150,4494
-123,-40,18,-30,-11,-12,-116,-107,8,-126,34,-111,-84,6,-9,-93,17,22,122,-62,-264,-93,30,156,-72,-163,72,47,46,67,116,4495
-153,-54,14,-35,-24,-25,-157,-212,-75,-164,-98,-138,121,-129,1,-134,3,-3,132,-106,-350,-131,16,155,-116,-274,62,39,43,48,112,4496
-139,-57,-6,-18,-27,-34,-142,-35,-104,40,-223,-48,147,-121,-3,-128,-21,-14,86,-108,-328,-124,1,122,-114,-248,28,19,31,16,92,4497
-49,-30,13,12,12,-2,-64,4,-139,59,-67,-6,130,-10,-40,-62,-14,-5,62,-32,-172,-61,28,97,-44,-66,12,20,23,9,63,4498
42,2,18,23,39,35,20,54,30,49,-12,149,17,-65,-15,20,-5,-7,38,47,-5,10,42,67,11,139,-18,15,3,-12,-64,4499
22,6,1,13,22,18,0,169,142,119,-44,113,102,36,-17,13,8,14,36,53,-32,5,51,97,-12,110,16,25,14,4,26,4500
73,6,-9,29,35,36,73,239,74,-10,113,80,126,59,-41,43,-14,-11,-12,82,69,35,9,36,8,239,-30,-4,-15,-37,-95,4501
76,8,-13,30,38,31,85,90,-37,-20,106,38,187,-13,-47,61,-13,-10,-33,80,97,42,-2,28,11,294,-45,-17,-28,-61,-64,4502
40,-9,-26,4,12,6,39,76,-178,-143,-2,-5,-47,-196,-5,21,-39,-36,-54,43,43,-6,-26,16,-18,233,-54,-46,-48,-71,-33,4503
-111,-47,-6,-29,-40,-29,-121,-4,-64,-164,-61,-7,-8,-83,-94,-93,-18,4,11,-69,-235,-112,0,88,-144,-104,25,-11,-3,-19,197,4504
-212,-48,28,-18,-57,-42,-200,-161,75,19,-44,58,235,-24,-99,-131,57,78,158,-95,-403,-126,81,225,-156,-361,155,97,107,87,363,4505
-239,-49,0,-24,-69,-70,-202,-62,59,-37,25,-145,-129,81,28,-139,70,81,199,-98,-433,-120,86,257,-125,-434,181,122,135,118,313,4506
-165,-38,-12,-25,-45,-29,-150,-178,-56,-150,83,-124,-265,180,11,-117,28,31,114,-92,-359,-105,36,176,-83,-337,102,60,80,68,213,4507
-39,-24,-30,-21,-7,15,-43,-208,15,-148,-6,-87,196,39,-53,-39,-29,-27,28,-34,-131,-31,-17,53,1,-20,-15,-16,-3,-7,-12,4508
13,-5,-28,-11,9,30,4,-43,25,-32,105,45,369,53,4,5,-13,-23,35,13,-27,19,11,39,52,118,-25,2,-8,-1,-82,4509
44,3,-28,3,15,19,49,226,43,7,61,65,142,172,27,24,-15,-35,10,12,42,37,5,-2,65,206,-38,-7,-25,-19,-134,4510
26,8,-11,14,15,24,13,250,-21,30,-90,-37,57,4,-2,-14,-43,-52,-10,-22,-2,-7,-33,-9,22,152,-47,-34,-41,-33,-70,4511
51,13,5,19,25,41,20,-5,-29,31,-16,-27,294,-112,-22,7,-5,-23,25,16,33,28,-8,25,63,200,-30,-1,-17,7,-53,4512
59,14,13,33,29,41,38,-15,-38,126,107,48,236,-126,83,17,-3,-16,25,25,46,40,11,36,71,242,-17,9,6,4,-32,4513
-186,-42,37,-14,-27,-34,-213,-20,-75,-74,-177,-16,-247,-153,-19,-160,33,56,156,-151,-410,-135,48,190,-130,-342,150,79,90,102,399,4514
-454,-103,78,-51,-104,-96,-501,-313,176,-67,-471,-152,-170,-102,-80,-364,75,109,332,-334,-925,-326,97,373,-304,-1045,328,175,204,219,699,4515
-472,-109,81,-42,-99,-88,-532,-269,175,-23,-247,-175,184,-49,-74,-406,79,107,358,-355,-1014,-341,103,391,-293,-1213,318,191,225,232,655,4516
-306,-75,46,-13,-50,-35,-337,-94,150,155,18,-29,-20,-115,-31,-287,47,56,252,-227,-748,-218,73,271,-155,-894,201,129,170,165,389,4517
34,16,3,56,49,49,44,49,53,151,190,140,-136,100,77,-3,24,4,103,62,-100,67,81,99,139,-65,24,64,74,61,-41,4518
88,20,-41,46,37,21,119,278,56,28,59,72,39,225,35,67,13,-7,40,136,73,125,62,53,166,176,-4,36,30,19,-149,4519
125,24,-52,43,35,18,168,247,10,29,79,206,114,212,60,102,-4,-27,-39,169,173,132,48,-7,159,328,-60,-14,-22,-45,-176,4520
85,7,-54,33,14,4,155,127,-19,2,210,134,-63,161,11,76,-13,-32,-54,152,140,95,31,-7,107,299,-58,-30,-32,-52,-128,4521
71,20,-23,42,36,21,158,98,50,-23,-23,44,-55,151,42,60,4,-18,-14,133,115,84,50,19,101,283,-25,0,-11,-33,-98,4522
66,12,-20,31,28,29,114,188,63,-8,40,26,31,204,57,31,-19,-34,-48,99,80,63,21,9,56,257,-31,-26,-31,-48,-77,4523
-169,-46,26,-17,-29,-20,-188,-28,137,-4,-16,-88,60,-36,31,-158,28,39,95,-96,-375,-126,54,175,-147,-358,124,52,67,55,332,4524
-345,-83,83,-25,-67,-46,-414,-197,324,81,-246,-179,169,-221,3,-320,50,72,211,-256,-778,-268,62,294,-275,-903,232,115,143,141,519,4525
-307,-86,69,-17,-54,-42,-374,-207,388,198,-246,-127,433,-220,25,-310,28,46,214,-263,-756,-255,55,267,-233,-912,195,103,131,129,414,4526
-116,-33,22,12,-10,-13,-148,108,196,234,144,162,144,-80,53,-129,62,45,213,-91,-381,-70,100,211,-8,-438,133,122,141,118,131,4527
95,20,-32,30,39,36,94,52,33,134,183,173,-267,10,115,58,36,5,72,55,64,109,72,62,172,166,5,39,53,36,-184,4528
110,27,-20,30,43,55,83,-199,32,249,209,64,-149,-177,95,52,2,-7,-25,33,98,83,25,8,138,213,-36,-19,-7,-5,-138,4529
136,39,-14,35,58,65,122,239,67,160,297,104,-207,-9,15,78,1,-9,-38,46,169,107,20,-3,143,307,-58,-20,-21,-15,-142,4530
122,47,-22,54,55,51,144,194,-4,-77,217,80,-288,-4,28,92,12,-6,-16,64,203,118,37,19,146,359,-42,1,-4,-1,-180,4531
75,28,-30,21,26,20,103,103,0,-195,119,-24,-229,-20,24,51,-12,-20,-17,23,134,73,18,6,110,305,-47,-17,-25,-13,-200,4532
60,15,-30,8,1,-1,86,26,-7,3,118,12,162,62,27,44,-13,-24,0,17,124,70,17,17,99,306,-40,-18,-20,-12,-119,4533
99,22,-39,2,19,11,110,128,-91,137,351,54,249,-34,0,76,-8,-22,-50,54,198,100,7,-11,124,397,-64,-40,-44,-27,-134,4534
35,8,-18,4,1,-2,41,-125,-61,4,287,1,42,-102,72,44,11,11,-11,25,101,56,31,38,75,263,-8,-8,-4,5,-8,4535
63,14,-3,14,17,30,47,-156,-2,122,107,57,87,34,68,47,-4,-3,-24,43,121,65,21,15,84,296,-25,-10,-14,-13,-52,4536
87,13,1,16,32,54,45,100,61,-56,119,128,121,73,0,44,-6,-8,-30,51,133,61,16,13,82,323,-40,-23,-35,-20,-137,4537
70,29,-2,31,21,38,80,111,180,23,6,85,149,76,19,50,13,-3,8,71,124,72,50,40,99,303,-14,-10,-18,5,-52,4538
0,6,-1,24,-1,0,44,87,77,52,54,-20,41,46,-7,-5,14,-1,23,42,19,36,37,56,66,173,15,-10,-3,12,-5,4539
70,18,-28,24,5,14,130,93,12,90,113,-57,-45,116,48,61,-9,-37,-23,104,162,91,5,-3,121,375,-49,-36,-39,-21,-158,4540
50,3,-32,9,-9,-11,119,-31,43,59,42,-47,113,192,-30,50,-30,-58,-48,97,153,57,-25,-16,103,371,-70,-69,-66,-51,-184,4541
27,2,-11,11,-1,3,92,187,-17,88,53,-31,-41,9,-61,41,-8,-37,-34,91,105,48,4,-4,89,317,-46,-52,-45,-30,-164,4542
44,13,-8,18,11,22,104,11,-8,37,-55,65,-56,-25,-8,52,-10,-27,-53,103,133,69,2,-17,99,372,-55,-54,-45,-28,-172,4543
173,52,-10,35,56,70,231,38,-33,59,152,172,-5,-46,31,119,-45,-77,-134,157,348,138,-37,-111,183,679,-148,-118,-108,-84,-339,4544
333,80,-41,40,89,101,381,102,-21,84,249,112,-284,259,28,233,-71,-125,-254,224,632,221,-66,-228,261,1074,-258,-185,-188,-166,-526,4545
307,89,-32,47,76,81,343,-11,49,154,276,179,-77,124,17,257,-23,-42,-194,215,617,224,-31,-147,229,1062,-168,-119,-125,-105,-365,4546
234,78,-16,35,61,72,271,128,28,39,236,160,170,87,49,228,13,11,-104,159,520,198,-7,-75,193,934,-82,-50,-57,-54,-150,4547
63,20,2,-3,15,26,64,111,20,-50,-46,114,-162,-17,-29,88,22,28,-12,22,230,60,15,22,49,544,-8,-6,-18,-19,86,4548
