-53,6,42,-1,-11,-19,-76,-201,152,-71,12,-111,-103,-69,-72,-21,-20,-6,-13,-51,-74,-128,-62,10,-81,73,14,-45,-17,-1,90,161128
57,14,26,4,16,9,15,-47,43,-5,116,-54,-131,86,-47,46,-43,-32,-57,9,91,-55,-77,-40,-12,291,-32,-79,-55,-32,-113,161129
124,25,-5,8,19,15,90,172,67,-124,114,86,-10,138,5,105,-34,-38,-94,72,262,27,-74,-80,57,508,-67,-92,-86,-59,-248,161130
258,50,-32,9,46,23,256,259,29,-84,239,169,142,55,1,258,-55,-68,-222,207,651,189,-76,-206,186,1028,-178,-163,-183,-139,-506,161131
98,5,-15,-36,-9,-18,83,-61,66,27,54,54,-43,-30,-37,144,-48,-43,-156,80,405,91,-69,-137,51,705,-103,-138,-147,-113,-242,161132
-86,-25,4,-37,-46,-58,-107,-274,8,-15,-63,-67,-75,56,-15,-30,-15,-4,-30,-78,10,-35,-53,5,-88,149,15,-64,-42,-21,74,161133
-71,-16,18,-27,-29,-42,-78,28,2,-61,28,-86,-4,-18,19,-11,-7,-2,-7,-77,32,16,-45,19,-51,147,13,-42,-20,-4,49,161134
-109,-16,39,-18,-26,-18,-134,-48,-10,-49,-37,0,-127,-90,-27,-48,25,43,90,-105,-79,9,-3,92,-60,-55,78,27,48,60,181,161135
-79,-12,44,-10,-19,-18,-124,-67,-153,-173,-1,-88,-155,-127,-45,-38,38,47,76,-97,-42,41,8,89,-42,-41,80,27,56,63,182,161136
-139,-34,33,-39,-38,-43,-175,-137,-63,-230,-143,-87,-209,-240,-65,-73,51,64,100,-117,-138,19,22,122,-68,-175,114,54,88,78,212,161137
8,17,9,-12,-3,-15,27,20,37,-45,-23,-24,-77,-190,-49,69,41,29,35,27,174,163,16,36,68,234,26,8,28,47,15,161138
58,30,-21,-22,-5,0,95,-101,-42,-96,-7,72,-82,-131,-41,113,-15,-23,-73,65,325,172,-28,-70,70,484,-64,-66,-60,-25,-111,161139
-90,-18,11,-46,-33,-13,-118,-110,-28,88,-49,-63,-76,15,-41,-36,16,20,65,-60,-48,-12,-10,61,-70,-4,56,20,28,42,127,161140
-156,-40,37,-36,-32,-19,-191,-220,59,147,-183,-91,191,-7,-25,-100,53,71,175,-113,-291,-107,31,173,-136,-312,158,86,117,127,370,161141
-231,-62,36,-42,-54,-51,-247,-145,87,38,-405,-166,126,-166,28,-168,31,47,159,-172,-477,-219,5,168,-201,-550,158,73,121,112,378,161142
-64,-27,17,-16,-12,2,-83,-73,50,-120,-184,-54,-36,-144,19,-71,-33,-25,2,-82,-198,-144,-45,11,-105,-168,-2,-29,3,3,104,161143
-35,-32,-1,-4,3,0,-63,-122,41,-314,-15,-25,-122,94,-62,-65,-32,-25,-4,-63,-178,-149,-21,-8,-100,-132,-12,-34,-9,-16,85,161144
-22,1,2,15,4,6,-54,-297,139,-213,-6,-90,-58,-183,1,-30,5,17,38,-36,-178,-129,13,40,-69,-126,40,18,40,35,92,161145
-19,-9,3,8,-7,10,-59,-211,-52,-93,-278,-7,67,-66,-57,-32,-12,6,22,-39,-164,-138,-17,30,-60,-96,29,0,26,20,19,161146
8,-14,6,-9,13,21,-13,43,-98,-2,-212,69,-97,90,-100,17,14,24,37,20,-73,-87,9,22,-1,10,26,17,31,29,15,161147
-74,-28,7,-33,-17,-25,-63,-259,-82,41,23,-31,-66,42,-52,-26,35,45,86,-19,-194,-125,31,73,-30,-152,73,55,52,58,177,161148
-260,-47,26,-28,-57,-76,-247,-306,147,-3,-125,-130,-39,81,-4,-168,70,96,206,-159,-575,-261,53,216,-154,-702,201,132,153,142,420,161149
-301,-59,19,-12,-59,-89,-317,-313,105,-73,-379,-168,-223,-87,49,-242,41,73,193,-223,-719,-313,29,202,-205,-920,183,107,148,144,462,161150
-521,-95,89,-24,-93,-92,-606,-326,77,25,-555,-153,-39,-327,-48,-471,80,123,358,-434,-1278,-515,77,359,-390,-1713,339,212,267,222,744,161151
-459,-97,95,1,-71,-55,-542,-175,100,-32,-357,-92,1,-116,-62,-421,115,131,404,-369,-1248,-425,123,399,-275,-1744,342,247,326,264,539,161152
66,-6,-8,49,37,35,57,97,-86,83,256,78,66,381,56,18,22,-18,45,37,-99,50,37,16,153,-241,-26,18,49,34,-228,161153
106,-5,0,31,44,41,91,26,-201,127,122,29,128,180,27,21,-37,-78,-58,31,92,100,-27,-83,138,10,-123,-59,-73,-62,-261,161154
98,-2,-20,8,24,27,94,38,-44,-36,169,8,211,163,-13,40,-40,-63,-63,37,173,145,-30,-84,147,115,-118,-54,-78,-64,-236,161155
66,14,-27,5,6,13,95,-7,1,89,131,43,308,118,-2,80,22,3,-17,56,204,188,21,-24,151,154,-35,-2,-5,-9,-110,161156
107,15,-57,8,5,-5,161,111,7,-68,174,128,-73,247,45,122,21,-5,-34,106,328,238,35,-43,178,314,-53,-21,-14,-14,-134,161157
43,4,-27,6,5,2,64,37,0,-191,206,60,-4,-60,-8,40,-5,-21,-44,13,181,146,7,-30,71,115,-51,-28,-42,-28,25,161158
-746,-163,141,-58,-155,-108,-870,-458,293,-44,-248,-442,176,-414,-180,-676,86,162,436,-656,-1613,-594,65,493,-622,-2278,467,280,326,277,1259,161159
-1199,-246,236,-32,-214,-167,-1361,-476,458,-12,-757,-630,192,-665,-190,-1082,253,342,910,-970,-2827,-999,239,948,-881,-4018,888,590,723,616,1929,161160
-968,-197,187,14,-149,-122,-1069,-519,376,-85,-824,-281,55,-261,-157,-889,272,319,882,-737,-2505,-805,290,870,-617,-3703,798,586,726,606,1449,161161
-465,-110,59,65,-47,-37,-462,-178,140,-259,-333,-24,-64,-91,-33,-465,175,156,539,-317,-1465,-396,220,491,-194,-2344,432,363,464,375,517,161162
87,1,-44,94,61,44,204,168,-81,124,78,97,-58,206,24,8,36,-24,79,108,-196,46,100,27,198,-598,-7,69,101,69,-407,161163
116,11,-50,67,53,36,234,46,-46,-236,215,167,-46,254,26,41,-9,-59,-45,92,-24,37,40,-70,148,-316,-92,0,-14,-35,-339,161164
138,18,-39,60,67,45,239,130,-178,7,207,250,-49,406,49,77,8,-30,-53,127,76,61,40,-72,148,-137,-91,0,-29,-36,-282,161165
96,7,-27,32,51,49,164,56,-10,147,28,187,-19,213,87,48,21,0,-39,106,25,29,46,-40,95,-178,-44,13,-18,-17,-183,161166
81,13,-20,30,42,57,115,-7,15,-44,256,34,-108,157,141,30,22,-4,-10,76,-23,-2,51,-24,76,-238,-24,29,-10,1,-184,161167
23,2,-28,24,29,28,40,156,-41,-227,97,50,25,210,15,4,36,15,9,37,-106,-37,62,16,35,-341,10,47,18,27,-60,161168
-215,-50,30,4,-24,1,-243,-46,-54,-161,-216,-109,36,-74,-103,-209,82,93,180,-164,-620,-222,106,203,-159,-1063,191,158,154,138,386,161169
-317,-84,53,-3,-41,1,-350,-236,-16,-3,-328,-129,-66,-41,-85,-314,101,101,261,-248,-899,-304,113,270,-214,-1471,259,201,218,191,439,161170
-369,-90,50,-17,-55,-13,-404,-163,42,-39,-350,-177,46,51,-90,-369,105,108,314,-287,-1042,-336,128,311,-228,-1699,282,227,252,212,498,161171
-249,-60,33,19,-16,9,-286,234,26,30,-265,-199,-38,99,-75,-289,89,77,256,-195,-821,-220,119,240,-84,-1455,197,185,211,178,310,161172
206,32,-19,71,101,102,221,500,8,209,252,146,0,7,82,96,21,-47,-43,155,169,178,56,-82,270,-146,-103,-6,-13,-32,-308,161173
220,24,-21,35,82,81,250,253,-41,93,132,202,103,-52,96,112,-40,-94,-171,152,337,212,-22,-183,230,96,-184,-84,-121,-119,-422,161174
190,26,-50,16,58,40,233,161,6,-13,47,146,35,31,-19,117,-37,-75,-173,146,368,231,-19,-169,227,154,-157,-78,-115,-115,-332,161175
129,42,-53,24,34,35,180,108,73,-31,-84,146,78,36,62,116,11,-11,-77,137,302,231,50,-70,224,79,-71,-12,-46,-44,-114,161176
80,29,-41,14,29,22,95,68,58,-23,-74,145,-229,-7,31,85,26,15,-29,109,240,196,60,-44,188,-14,-36,14,-23,-18,-86,161177
9,-2,-23,-7,12,6,-20,-19,-34,20,-86,94,-72,-63,9,18,19,15,-2,42,92,125,55,-12,111,-203,-12,33,1,-7,-19,161178
-227,-39,49,-3,-24,-35,-327,-210,47,-85,-255,-40,-90,-55,11,-197,93,100,196,-158,-494,-111,107,205,-111,-1007,197,169,164,144,460,161179
-362,-82,59,-16,-64,-48,-457,-83,84,-145,-407,6,-113,-17,-54,-324,111,115,299,-256,-834,-240,125,302,-205,-1473,285,227,237,219,502,161180
-240,-69,40,-14,-39,0,-280,22,-36,-60,-163,-8,-184,-162,-56,-234,66,62,213,-161,-633,-182,91,196,-114,-1212,175,160,176,152,300,161181
-94,-31,9,6,-3,25,-85,61,-12,-144,126,-31,-114,-5,-12,-112,43,36,128,-61,-354,-69,69,109,-20,-829,89,110,111,90,147,161182
69,8,-48,11,16,16,132,273,-140,-82,118,42,59,50,77,49,28,-2,17,91,42,80,49,-9,112,-268,-15,52,18,24,-115,161183
110,41,-38,48,38,45,183,97,-114,197,59,52,82,85,69,91,32,8,-8,131,154,102,54,-37,117,-104,-26,44,-11,0,-146,161184
65,34,-38,34,24,33,171,-3,-109,186,231,-84,1,342,2,67,38,23,1,96,98,62,58,-19,80,-151,-16,46,-6,0,-40,161185
10,-1,-48,3,-1,6,128,58,-68,-139,9,-118,-32,207,-83,22,15,0,-22,54,16,11,21,-32,18,-219,-13,14,-21,-8,-3,161186
51,-4,-29,3,17,25,122,103,-182,-118,-214,-105,26,65,-26,17,-11,-30,-46,47,54,13,-11,-52,12,-163,-41,-8,-39,-24,-94,161187
94,9,1,13,54,82,101,124,-66,-64,-183,-44,154,44,3,18,-26,-40,-47,47,90,18,-22,-68,14,-117,-65,-20,-60,-41,-115,161188
272,34,-33,17,81,117,271,363,38,-18,43,47,-37,4,5,143,-87,-115,-203,171,464,146,-56,-231,140,405,-219,-124,-189,-146,-445,161189
256,35,-26,4,58,74,292,311,-28,-25,155,-32,-161,-132,74,177,-76,-95,-241,175,516,165,-66,-233,123,507,-204,-126,-200,-153,-389,161190
227,44,-43,22,46,34,277,128,51,140,323,108,-202,68,88,158,-52,-70,-208,156,485,166,-49,-200,104,468,-174,-107,-168,-130,-261,161191
182,50,-33,31,55,23,210,109,66,76,321,220,-170,-33,46,112,-51,-51,-167,105,368,116,-44,-158,57,325,-138,-81,-141,-105,-144,161192
0,7,-10,3,0,-8,4,100,-65,-12,-13,24,-70,-246,17,-28,-13,0,-36,-15,-8,-12,-18,-29,-53,-187,-5,8,-25,-21,74,161193
26,23,-21,2,3,0,62,24,-110,-92,-102,109,-41,-96,38,22,11,21,-10,41,58,60,8,-10,34,-116,13,26,8,9,49,161194
40,23,-26,0,5,-8,92,-65,-38,-35,32,-66,-9,82,-37,52,16,19,-22,74,128,93,9,-29,81,-26,5,8,-2,-9,45,161195
-8,9,7,0,0,-3,29,-104,-40,28,22,-74,-119,-109,-14,-3,24,20,14,36,5,35,30,12,39,-204,31,38,23,11,51,161196
-7,4,7,8,2,14,36,-53,38,140,-103,28,40,-184,-3,-11,9,-2,-3,24,-29,17,15,-4,31,-240,0,26,5,-10,49,161197
48,13,-8,11,20,21,106,87,5,83,53,-49,28,321,49,41,0,-3,-34,68,91,59,6,-44,69,-92,-38,6,-24,-28,-89,161198
541,113,-92,58,129,108,635,257,-118,107,370,219,-1,448,169,447,-76,-117,-336,443,1123,461,-51,-369,427,1312,-348,-187,-251,-224,-799,161199
774,160,-123,54,171,142,874,457,-216,240,247,291,64,247,118,630,-177,-241,-620,573,1738,624,-162,-640,506,2228,-592,-372,-487,-426,-1121,161200
580,109,-78,8,109,97,605,304,-249,35,385,178,-34,4,85,441,-216,-246,-600,367,1407,410,-240,-601,243,1884,-561,-384,-505,-436,-806,161201
300,69,-18,-5,57,51,269,-110,-215,88,262,88,-28,-129,5,216,-147,-134,-361,138,805,181,-191,-345,8,1106,-321,-230,-321,-279,-401,161202
-6,7,16,-28,-13,-12,-83,-269,-46,393,-71,-69,93,-30,-28,-16,-46,-11,-78,-68,125,-46,-95,-60,-186,198,-38,-52,-95,-65,79,161203
-57,-9,18,-31,-34,-22,-112,76,3,297,-204,-34,185,-102,-136,-23,-16,13,-21,-65,22,-48,-61,6,-167,26,30,0,-24,10,181,161204
-72,-25,10,-35,-35,-31,-103,118,128,27,-208,-22,116,-11,-31,-21,-4,9,5,-57,-7,-41,-39,11,-150,-24,28,8,-3,12,126,161205
-30,-8,2,-25,-26,-41,-34,212,-74,-22,21,-77,-30,-8,73,2,-20,-7,-17,-35,57,-18,-30,-21,-117,52,-10,-16,-27,-8,58,161206
-82,-9,4,-20,-41,-56,-71,40,-16,-18,268,-128,14,-106,48,-43,-7,13,9,-69,-41,-45,-16,19,-151,-95,20,15,-5,15,180,161207
-77,-12,6,-20,-43,-42,-63,-82,-108,74,29,-67,0,-268,-14,-15,18,32,14,-44,-34,-18,3,36,-136,-103,30,36,27,32,106,161208
123,32,-30,3,7,-11,178,-110,-65,107,186,104,-66,-40,57,148,-20,-24,-120,113,394,145,-24,-124,47,487,-108,-50,-76,-58,-234,161209
194,58,-25,8,42,21,248,101,38,114,194,114,127,93,28,200,-30,-37,-163,154,551,191,-36,-167,89,716,-141,-68,-113,-96,-205,161210
256,46,-35,-12,54,50,248,155,-100,0,81,7,30,11,37,205,-76,-78,-207,170,638,205,-81,-215,90,838,-206,-116,-160,-135,-304,161211
234,31,-20,-22,48,50,183,223,17,-77,17,48,167,-50,25,142,-115,-104,-227,116,557,138,-130,-223,14,779,-211,-148,-195,-164,-227,161212
-52,-25,25,-38,-17,-4,-114,-2,14,-31,-287,6,79,-17,-126,-62,-42,-2,-21,-81,-36,-93,-59,-9,-170,-12,15,-7,-27,-15,193,161213
-8,15,21,-9,2,4,-38,-82,5,-3,-98,48,-71,112,-67,-2,15,30,13,8,17,-43,7,16,-65,29,44,20,23,28,131,161214
19,20,15,4,1,-13,7,-111,49,23,121,-11,101,108,29,7,-6,-9,-57,18,56,-45,-29,-41,-48,103,1,-29,-27,-21,71,161215
-54,-6,11,-21,-25,-34,-55,-143,142,-31,114,-25,89,23,63,-49,-21,-10,-44,-38,-99,-103,-52,-33,-102,-81,6,-16,-23,-22,94,161216
6,2,-10,-15,-16,-12,9,-133,-15,128,-40,28,39,-82,87,-5,-37,-34,-56,0,0,-52,-53,-61,-42,41,-42,-21,-39,-48,-62,161217
71,9,-10,4,10,11,79,-272,-34,69,-125,39,-76,109,90,41,-35,-40,-76,39,129,-10,-56,-93,3,218,-61,-35,-57,-62,-117,161218
291,47,-54,8,60,29,331,108,-124,-118,184,175,-103,57,93,235,-58,-79,-199,229,613,199,-73,-214,185,855,-197,-127,-147,-134,-460,161219
680,138,-137,24,122,85,771,269,-186,-193,509,279,-202,243,165,601,-138,-169,-510,549,1554,558,-129,-531,454,2168,-485,-316,-388,-332,-980,161220
621,148,-121,23,96,66,683,309,-99,10,492,195,-92,124,153,601,-102,-130,-515,512,1594,553,-112,-508,390,2261,-452,-297,-385,-325,-854,161221
272,80,-46,-23,20,0,280,232,-81,53,184,87,11,52,47,324,-55,-42,-300,222,917,268,-98,-276,90,1403,-230,-157,-242,-190,-260,161222
-67,4,16,-62,-51,-59,-90,26,129,-172,-10,-32,-7,-51,-33,42,9,41,-29,-29,187,4,-40,-20,-145,412,22,6,-43,-16,141,161223
-81,-11,30,-55,-57,-41,-113,-15,3,188,-194,-134,-29,-214,-13,10,10,39,14,-35,90,-17,-27,15,-143,252,47,15,-2,18,121,161224
-95,-28,37,-69,-48,-38,-168,146,2,168,-306,-171,14,-254,-36,-59,-17,-3,-2,-103,-40,-81,-65,-6,-189,67,26,-16,-22,-7,121,161225
-66,-12,49,-28,-19,-25,-139,64,34,10,-80,-93,-6,-187,14,-16,26,33,41,-64,-21,-45,-13,35,-144,53,47,36,26,34,159,161226
-50,-3,30,-11,-22,-31,-92,-101,13,163,-63,-57,38,-260,2,-19,23,32,35,-42,4,-34,-6,20,-119,81,34,37,23,29,165,161227
1,8,33,13,-5,-14,-28,135,88,71,181,34,47,-183,20,23,11,15,11,-10,79,12,-25,-5,-75,188,15,9,9,21,118,161228
121,22,7,7,14,15,99,238,-107,-89,224,16,23,1,-2,111,-26,-41,-96,70,337,98,-61,-114,10,555,-96,-69,-86,-64,-134,161229
127,20,-3,-24,6,22,111,29,-2,-73,39,-46,17,60,-70,133,-20,-43,-97,84,382,103,-42,-118,27,635,-109,-63,-101,-84,-203,161230
179,26,-33,-31,15,22,213,45,12,-99,24,-66,-190,141,-84,225,-32,-46,-148,165,600,185,-43,-171,109,939,-152,-94,-125,-102,-302,161231
57,19,-24,-44,-18,-17,104,-215,-70,-90,70,-87,-115,20,-56,153,-3,-2,-99,91,397,102,-38,-107,15,678,-58,-45,-65,-59,29,161232
-148,-3,15,-47,-55,-48,-136,-315,95,-144,-10,-165,159,-36,-99,-32,43,77,59,-59,-99,-73,15,64,-143,4,94,55,61,51,315,161233
-80,-2,-6,-21,-46,-48,-96,-181,36,-8,78,-100,-15,49,-56,-13,22,47,25,-42,-69,-64,-9,21,-91,24,42,26,41,20,181,161234
-30,-4,9,-28,-20,-17,-59,12,-68,5,-193,5,-154,-29,35,2,-7,-4,-1,-23,0,-43,-30,-19,-61,107,0,-1,5,-5,95,161235
64,9,1,-12,5,1,61,37,-99,-127,81,47,-113,211,6,80,-23,-32,-39,59,210,48,-45,-81,25,378,-65,-31,-36,-37,-111,161236
27,24,22,0,6,-8,62,-46,-36,-260,50,-43,243,170,-50,78,-1,4,-35,53,199,49,-44,-60,21,369,-34,-20,-28,-14,-47,161237
65,29,23,12,13,6,79,112,55,-156,124,8,100,-334,27,82,-9,2,-72,60,221,66,-44,-91,22,412,-35,-38,-35,-25,-51,161238
155,46,-6,17,35,35,161,177,88,153,45,204,25,-160,42,133,-32,-36,-124,105,379,120,-45,-148,79,629,-118,-78,-86,-79,-199,161239
452,101,-62,24,92,73,490,216,-50,49,443,149,-30,82,92,400,-99,-127,-330,332,1062,370,-113,-379,293,1590,-344,-217,-263,-225,-670,161240
403,94,-79,-6,50,31,463,275,-112,191,404,116,87,149,170,409,-85,-102,-326,314,1074,359,-101,-355,255,1662,-299,-198,-262,-212,-558,161241
177,67,-21,-13,11,-7,202,-1,-10,293,55,-4,109,108,38,231,-21,-14,-166,144,617,179,-42,-172,75,1064,-116,-81,-128,-98,-94,161242
-16,25,40,-6,-16,-20,-55,-98,9,174,135,-9,-74,-186,-12,44,10,46,-10,-15,123,-17,-5,-12,-91,383,23,6,-2,-6,261,161243
-4,14,32,-28,-6,-9,-47,-130,42,164,97,6,104,-48,7,64,14,44,13,9,140,1,2,-5,-52,398,21,11,22,17,113,161244
-55,-5,20,-53,-30,-16,-98,-240,160,65,-16,2,66,-150,-31,9,1,20,16,-30,40,-48,-13,8,-82,257,33,14,17,23,68,161245
-31,2,48,-36,-11,14,-101,-59,81,-3,-87,-53,141,-135,-96,-11,-19,-9,-14,-53,17,-79,-42,-31,-94,230,-5,-14,-11,-6,83,161246
-62,-15,43,-27,-13,-6,-155,129,10,85,-132,-26,95,-6,-46,-70,-36,-27,-24,-105,-108,-133,-76,-41,-143,92,-12,-37,-19,-24,98,161247
-78,-20,21,-18,-20,-34,-167,-35,12,106,-42,-86,-67,-199,-26,-94,-34,-32,-11,-122,-166,-159,-72,-33,-155,-2,-1,-34,-19,-27,117,161248
-13,-5,4,-18,-15,-35,-55,-47,-44,-28,-83,-29,5,-91,47,1,-19,-20,-36,-36,-2,-73,-55,-44,-74,200,-16,-34,-16,-28,90,161249
26,20,-8,3,-12,-27,33,99,-13,-66,110,80,81,-54,80,80,11,16,-17,46,143,25,-13,-23,5,371,0,-6,6,1,73,161250
37,32,1,21,-9,-20,83,-105,62,-11,41,23,-38,32,137,122,28,30,-1,87,231,76,12,-13,51,489,-5,8,14,8,2,161251
-53,9,24,2,-28,-27,-27,-450,-52,-58,-126,24,97,78,152,45,57,65,86,26,28,9,46,66,-16,195,77,67,71,53,79,161252
-90,-7,24,-12,-31,-36,-88,-230,1,-79,-23,-44,63,-151,52,-2,37,58,106,-13,-72,-26,29,78,-42,46,88,68,76,61,107,161253
-38,7,25,15,-18,-18,-41,16,100,-21,209,-94,145,-108,-11,34,34,50,73,15,6,21,35,46,-5,150,57,35,62,49,92,161254
-58,-15,37,4,-23,-3,-86,-64,48,24,79,8,6,69,-7,2,37,54,83,-18,-49,14,49,52,-39,60,53,47,68,45,124,161255
-100,-22,51,-3,-15,-1,-159,16,-3,6,-108,-57,-110,-26,-64,-77,28,36,103,-99,-191,-58,15,71,-112,-151,71,53,76,39,225,161256
-92,-18,51,-5,-17,2,-158,76,47,98,13,-118,69,30,-56,-109,-1,0,55,-125,-223,-87,-21,49,-131,-215,53,7,42,18,119,161257
11,11,32,23,15,24,-19,259,76,103,204,-87,86,138,-31,-28,-10,-22,-13,-49,-46,-10,-19,-15,-48,33,0,-39,2,-10,-11,161258
20,10,18,10,2,15,38,99,31,143,93,-54,194,199,-40,-5,-33,-36,-60,-19,40,12,-42,-57,-37,183,-48,-65,-39,-56,-21,161259
-129,-7,43,11,-16,-10,-124,-77,127,103,147,-35,144,-75,38,-101,23,47,85,-106,-267,-97,20,91,-114,-232,83,40,83,50,265,161260
-124,-2,44,27,-6,-15,-155,72,242,31,-170,-19,162,137,-32,-81,77,85,155,-78,-306,-78,67,170,-76,-302,156,96,147,124,250,161261
-102,-9,32,21,-7,-8,-154,110,140,162,-112,30,97,134,40,-87,56,50,136,-67,-284,-92,56,130,-54,-283,123,75,114,103,263,161262
-12,3,34,20,20,28,-63,92,163,78,51,16,146,103,18,-37,11,0,66,-28,-121,-45,32,50,5,-62,35,26,48,28,52,161263
-17,-32,25,-11,-2,-3,-77,-207,84,-96,66,-67,-85,-57,53,-38,10,-3,37,-48,-122,-61,6,29,-16,-49,16,5,23,16,55,161264
-49,-22,36,8,-6,-7,-124,-67,10,-336,-28,-79,-35,-180,-38,-48,25,39,66,-63,-200,-79,21,59,-35,-152,70,27,59,52,119,161265
-29,3,30,26,16,5,-136,71,101,-23,-46,67,155,-185,37,-34,31,36,79,-43,-180,-64,32,61,-23,-137,67,40,62,42,122,161266
6,19,26,30,19,17,-104,21,116,18,58,176,98,-36,5,5,31,22,58,-8,-98,-27,37,46,15,-37,39,26,51,37,55,161267
-25,2,3,-3,-15,-18,-85,-60,31,32,5,99,18,125,25,19,46,41,66,9,-83,-8,43,64,28,-24,72,49,74,66,33,161268
-97,-12,14,-3,-25,-28,-115,-14,-5,151,-176,-41,-133,179,-37,-36,61,71,122,-46,-240,-66,49,122,-38,-249,121,76,114,93,179,161269
-130,-5,34,20,-13,3,-134,-149,-2,40,-182,-38,27,-44,1,-110,54,60,135,-111,-372,-126,47,136,-90,-435,121,72,117,98,287,161270
-201,-23,55,19,-27,-2,-202,-147,40,-58,-132,-145,179,-167,-70,-183,49,55,162,-184,-540,-198,42,160,-144,-670,157,91,131,109,371,161271
-210,-24,53,23,-25,-1,-191,-99,-97,-17,46,-202,59,-147,-112,-170,74,71,195,-159,-554,-182,71,189,-114,-725,176,119,172,131,259,161272
23,9,5,24,22,28,76,2,-134,-12,-97,-125,-70,102,-39,26,28,1,31,30,-32,29,36,22,72,-37,4,17,34,13,-71,161273
21,-5,-17,1,16,23,61,-4,-96,74,-146,-137,39,270,-11,48,33,10,23,45,44,57,37,9,81,78,-1,11,11,2,-63,161274
-3,9,-6,7,13,21,32,149,-69,12,-147,2,83,-109,-39,49,70,53,62,33,-1,57,69,57,65,17,42,57,60,49,15,161275
33,16,-10,9,21,24,57,30,-90,87,-27,-44,103,-187,-38,39,8,-3,-11,34,77,50,14,-17,66,129,-29,-6,-6,-10,-54,161276
65,21,7,27,50,52,49,11,-75,-74,54,-70,-13,69,-9,7,-49,-65,-81,-1,89,15,-52,-90,27,163,-101,-80,-84,-73,-92,161277
74,18,2,4,22,31,39,-33,-110,-530,-74,-24,25,2,-100,-5,-82,-90,-122,-12,104,2,-76,-113,7,203,-134,-118,-124,-101,-131,161278
-432,-82,95,-30,-91,-54,-479,-291,75,-91,-358,-350,59,-232,-176,-380,38,78,248,-371,-907,-382,31,265,-340,-1180,248,140,165,145,663,161279
-796,-147,148,-32,-164,-125,-841,-588,197,141,-493,-246,39,-192,-75,-641,204,255,634,-585,-1772,-629,190,647,-503,-2417,607,415,490,414,1241,161280
-656,-116,96,3,-122,-107,-657,-569,175,60,-537,-133,-65,76,-60,-522,220,245,620,-448,-1604,-501,225,618,-318,-2285,570,409,506,420,991,161281
-400,-88,42,19,-62,-61,-385,-229,198,-76,-473,-98,35,134,-87,-362,132,133,397,-280,-1134,-317,161,379,-152,-1690,352,249,345,275,536,161282
14,-9,-28,57,32,14,75,76,-127,29,12,8,-58,145,-23,-55,7,-32,37,8,-253,-8,47,6,118,-504,-12,11,55,24,-186,161283
168,26,-36,64,64,47,218,199,-88,-232,82,83,-218,157,0,59,-36,-80,-90,108,115,98,11,-120,183,30,-136,-66,-66,-82,-348,161284
182,48,-5,78,74,69,198,123,-106,-174,360,69,-276,40,-9,68,-22,-54,-58,109,150,110,19,-84,167,99,-108,-45,-46,-56,-245,161285
126,23,-14,50,53,52,147,96,-11,-10,251,15,-196,-7,-37,28,-43,-52,-74,54,78,73,-15,-81,107,51,-83,-61,-55,-53,-207,161286
78,13,-20,30,24,31,144,28,-21,-51,-27,102,-263,-22,17,38,-19,-27,-66,50,60,67,3,-45,83,25,-41,-31,-34,-34,-176,161287
28,10,-10,8,9,10,104,-85,131,-97,-10,102,-110,75,-18,8,14,1,-19,31,-6,30,30,-12,65,-63,-5,-9,-9,-11,-59,161288
-42,-12,5,1,-3,9,-35,-21,-30,-93,74,-18,122,-90,-25,-60,6,5,24,-51,-177,-46,21,32,-21,-304,31,9,16,9,32,161289
-91,-36,17,-5,-12,-10,-131,8,-92,-90,36,-112,48,-74,18,-121,-11,-7,42,-100,-308,-100,-5,51,-66,-492,53,16,31,22,22,161290
54,5,-1,23,19,11,35,234,-70,22,10,126,-14,70,50,7,-5,-19,-35,34,-8,31,-8,-27,64,-95,-16,-20,-16,-9,-123,161291
176,45,-30,34,38,30,194,264,-5,193,248,205,-3,158,58,140,-13,-27,-100,143,305,142,1,-97,171,324,-90,-63,-79,-50,-196,161292
138,35,-16,27,38,32,130,-18,49,139,176,174,-295,107,122,85,-26,-51,-95,84,237,83,-21,-91,103,254,-92,-79,-89,-66,-186,161293
110,18,-3,23,43,42,94,215,57,61,133,87,-150,-53,89,52,-33,-62,-88,53,183,60,-24,-86,52,203,-97,-73,-86,-68,-196,161294
35,8,-17,11,14,7,28,89,17,-18,-26,49,36,-132,-12,18,-14,-25,-34,14,68,14,-20,-32,8,53,-40,-22,-41,-36,-47,161295
37,15,-8,28,16,-3,31,52,44,81,-20,57,41,-121,-13,17,2,1,-8,18,49,6,-1,0,18,18,-14,-8,-22,-8,-11,161296
78,17,-29,19,20,-2,78,82,-77,183,260,46,-93,-56,-3,73,23,15,-9,72,149,54,23,-5,69,156,-22,4,-19,3,-64,161297
85,25,-20,14,29,17,101,155,-104,235,189,91,0,212,-8,113,32,25,-6,100,204,91,30,3,98,234,-19,20,-7,2,-152,161298
169,43,-32,23,47,46,185,213,-97,30,160,19,-22,163,13,171,11,-16,-70,153,370,149,14,-73,154,478,-74,-22,-59,-49,-272,161299
337,73,-48,29,84,79,356,170,-193,-44,218,104,-106,273,-33,280,-58,-100,-246,249,748,258,-66,-245,246,1009,-231,-156,-191,-166,-508,161300
290,50,-8,12,81,90,284,89,-149,-172,191,-28,13,223,-45,203,-111,-133,-276,175,647,181,-125,-264,141,919,-252,-192,-239,-204,-434,161301
321,42,-23,-10,73,96,282,72,-74,-52,43,-45,-99,-126,-29,212,-135,-149,-339,169,717,186,-145,-303,125,1040,-296,-234,-282,-245,-471,161302
36,7,31,-13,24,53,-41,-118,45,47,-330,-132,94,-166,-30,7,-20,-5,-59,-24,96,-16,-49,-16,-61,204,-20,-35,-65,-33,103,161303
-36,18,38,19,7,29,-71,73,33,-32,-135,-68,200,-96,-19,-23,41,53,62,-35,-59,-29,6,95,-43,-42,80,55,31,62,191,161304
-20,27,-1,42,-9,-21,22,-31,10,26,44,-61,121,35,43,46,82,83,80,27,32,38,50,106,33,52,97,84,73,76,161,161305
-60,-1,-37,12,-48,-67,36,-282,-66,-12,-141,78,-90,103,34,20,58,62,70,2,-12,30,42,91,22,-7,84,70,55,58,146,161306
-31,14,-8,18,-23,-17,65,-65,-52,-154,-14,49,-136,164,6,47,61,61,76,22,18,48,56,102,45,23,77,72,65,65,101,161307
25,18,-17,2,3,9,99,73,-69,-80,-85,-10,-41,197,-25,77,21,42,24,66,143,83,17,38,80,175,12,31,19,25,-16,161308
133,40,-39,10,28,14,192,28,41,100,8,114,102,232,32,164,-11,-4,-70,158,392,169,4,-70,163,530,-75,-31,-60,-31,-298,161309
95,26,-14,-10,16,6,111,55,-35,57,-48,3,-40,141,-26,124,-27,-24,-90,107,331,113,-22,-88,96,497,-74,-55,-77,-53,-213,161310
240,46,-20,0,54,57,209,150,-18,75,192,72,31,179,38,186,-70,-82,-199,165,551,185,-80,-204,147,821,-183,-140,-174,-142,-422,161311
306,41,-39,1,57,68,241,263,24,-20,143,125,6,147,32,221,-121,-140,-316,166,692,191,-145,-300,140,1067,-287,-219,-268,-230,-442,161312
-8,-19,39,-27,-2,19,-111,33,88,-30,-246,-15,-1,-154,52,-31,-48,-27,-92,-82,24,-72,-77,-51,-107,173,-53,-54,-82,-68,101,161313
-8,-17,35,-28,6,34,-82,16,-61,-168,-85,7,-27,-174,9,-35,-34,-20,-30,-58,-11,-61,-47,-16,-74,120,-24,-18,-47,-25,2,161314
48,4,35,5,33,34,-21,5,-27,-90,-38,-87,3,-113,-13,-16,-46,-32,-62,-39,38,-55,-67,-44,-53,190,-51,-47,-72,-51,-68,161315
56,7,9,-1,20,19,-5,37,-34,67,-76,-11,64,-4,-17,22,-36,-23,-89,-12,84,-43,-61,-59,-47,245,-57,-65,-77,-60,-77,161316
11,-2,-4,-6,-7,-7,-33,31,66,144,-137,153,-83,-80,13,27,13,18,-9,3,28,-33,12,13,-38,171,10,5,5,6,71,161317
-15,3,-14,-9,-17,-38,11,44,77,388,-160,59,-51,277,75,54,41,35,37,41,60,-4,44,49,4,191,30,40,28,39,13,161318
241,58,-43,15,39,12,277,143,-51,-150,147,90,-60,73,114,264,-21,-34,-142,229,594,204,-15,-137,197,907,-150,-74,-112,-74,-427,161319
209,49,-34,5,23,6,218,128,-122,-243,54,55,-50,11,34,218,-57,-52,-179,172,559,160,-65,-155,124,883,-166,-95,-147,-116,-353,161320
141,34,-20,-4,14,-8,145,184,-47,-95,186,68,-128,-155,-8,134,-77,-63,-165,92,435,93,-85,-158,44,720,-154,-104,-156,-121,-256,161321
110,34,5,6,5,-2,122,159,-58,-71,204,4,-4,-63,-16,128,-44,-21,-121,83,376,93,-64,-110,24,644,-106,-75,-118,-85,-189,161322
-67,-3,26,-19,-29,-36,-71,-47,-1,-113,-42,-83,-33,-60,-2,-5,16,48,23,-38,3,-21,-12,46,-93,134,35,25,13,20,105,161323
-82,-7,22,-4,-25,-24,-108,-5,68,93,34,-65,25,24,-76,-48,-18,9,7,-70,-68,-50,-26,24,-109,27,14,3,-4,1,71,161324
-78,-6,43,-1,-10,6,-104,-37,89,84,5,-23,22,-48,3,-64,-18,-7,7,-78,-87,-53,-27,19,-109,-32,8,6,-6,-4,76,161325
-65,-13,27,-11,-14,9,-68,-166,10,-17,123,-27,-19,93,-4,-42,-8,4,42,-45,-58,-17,-6,40,-64,-14,29,37,19,25,68,161326
-29,4,11,0,-6,4,6,-123,45,13,45,-68,98,112,-31,6,-5,19,51,-5,22,25,13,39,-14,83,32,46,15,32,-8,161327
-59,6,24,8,-16,-6,-15,38,-17,59,-39,-38,104,2,61,-21,-2,25,51,-40,-50,3,9,58,-50,-4,51,56,29,29,23,161328
-9,30,28,27,8,5,19,-4,19,75,19,77,-148,-109,99,19,20,32,64,6,33,42,30,40,10,100,30,63,42,37,7,161329
72,29,6,9,34,18,53,146,-61,158,1,37,-165,7,14,57,-22,-20,-23,47,179,74,-8,-48,46,321,-56,1,-35,-41,-141,161330
119,16,-29,-7,25,8,97,130,-22,121,-38,52,55,-130,-2,104,-41,-42,-102,75,292,95,-34,-114,54,475,-110,-45,-77,-77,-216,161331
178,43,-26,10,30,10,170,261,84,-21,26,-128,-83,-151,1,188,-13,-16,-120,131,446,166,-16,-114,116,706,-108,-37,-83,-56,-184,161332
-35,15,33,1,-18,-18,-58,54,125,17,-93,-111,48,-99,-48,29,64,83,75,-13,-22,-4,60,97,-33,96,92,104,71,76,189,161333
41,22,0,5,3,-1,39,110,12,20,-91,123,-62,21,-11,69,7,5,-1,34,126,15,15,2,24,299,-5,36,-1,15,-80,161334
30,26,16,10,14,10,31,97,65,-9,-59,63,-123,143,4,23,-44,-37,-55,-9,96,-39,-38,-46,-26,277,-47,-20,-53,-30,-151,161335
-19,2,19,-14,-7,3,-33,38,118,-35,-98,-49,2,100,-2,-15,-43,-26,-43,-48,-29,-87,-43,-18,-83,130,-22,-13,-38,-18,-84,161336
-49,-14,22,-14,-20,-21,-62,-147,37,-35,-115,3,125,70,-33,-19,-3,17,20,-40,-79,-79,4,32,-73,62,36,42,15,29,14,161337
-43,-11,4,-20,-23,-43,-42,-188,-13,100,-246,36,18,-37,13,12,16,30,36,-8,-23,-37,23,42,-36,111,43,57,36,42,14,161338
59,12,-31,-8,-1,-41,73,64,-19,79,1,111,61,2,86,103,-1,6,-22,67,197,63,23,-31,54,405,-29,17,-20,-10,-157,161339
152,31,-27,6,16,-10,160,173,20,101,59,-4,72,34,-13,155,-34,-43,-111,129,399,125,-29,-109,92,663,-98,-50,-88,-70,-295,161340
91,15,-10,-3,7,-1,88,64,54,-103,46,-5,-107,-347,39,83,-71,-62,-136,52,298,61,-69,-134,10,543,-117,-84,-116,-96,-215,161341
-10,3,18,-11,-11,-4,-2,-107,41,-185,159,-17,-72,-248,42,30,-24,-5,-35,-6,99,-1,-32,-33,-47,269,-11,-4,-31,-17,14,161342
-73,-9,5,-21,-36,-36,-59,-136,-17,-137,213,-17,-123,-280,-59,-11,16,29,33,-34,-40,-32,8,42,-64,77,49,54,30,37,130,161343
-58,13,4,-5,-21,-26,-37,-3,-15,-289,82,62,-70,-124,62,21,52,53,79,-5,-17,11,60,74,-20,78,74,97,73,60,122,161344
-110,-15,-8,-33,-32,-45,-85,-127,-78,-36,-16,136,1,83,82,-27,27,40,71,-33,-108,-31,31,66,-54,-50,66,83,63,48,103,161345
-81,-10,5,-20,-21,-38,-59,-106,-46,-36,-92,-96,-58,54,-86,-23,21,33,68,-29,-94,-33,32,62,-44,-54,59,81,59,38,84,161346
-73,-5,13,-16,-10,-21,-49,-53,2,-11,-7,-152,211,66,-95,-33,21,27,75,-37,-109,-37,37,56,-38,-76,56,81,70,34,139,161347
-48,0,14,4,0,4,-66,8,-33,-128,-6,-162,126,62,-38,-30,21,19,70,-26,-98,-25,36,53,-32,-67,42,67,59,33,124,161348
-20,-5,4,-8,-8,-1,-38,109,-17,-113,-9,-140,84,107,-3,-2,-2,4,30,0,-7,-6,18,19,0,75,13,38,31,18,37,161349
-63,-21,7,-16,-29,-23,-82,13,16,-11,-35,-2,7,124,22,-16,14,32,62,-8,-84,-32,33,56,-27,-40,50,67,59,41,142,161350
-302,-55,63,-34,-60,-58,-360,-267,139,38,-202,-70,135,-35,-77,-200,93,135,288,-186,-631,-214,110,283,-200,-793,268,222,238,192,585,161351
-425,-76,84,-31,-81,-73,-467,-307,127,14,-222,-23,173,-105,-81,-311,135,163,406,-267,-935,-295,159,387,-250,-1253,355,300,325,269,608,161352
-102,-13,24,8,-3,-16,-91,-175,-72,-63,134,53,86,101,-45,-65,58,54,146,-32,-277,-49,97,108,4,-380,92,130,128,107,115,161353
-20,6,12,1,5,-7,6,-133,72,-18,-22,109,86,-28,6,2,21,25,62,16,-78,12,51,38,41,-119,21,81,69,45,-27,161354
1,-3,1,-3,6,-5,23,-78,52,2,-15,102,10,140,74,20,-3,7,18,21,-18,21,26,11,37,-24,-7,51,27,16,-62,161355
122,19,-40,13,28,13,119,75,-111,-88,112,187,-51,46,29,99,-51,-58,-113,94,248,108,-15,-118,105,351,-123,-45,-72,-74,-271,161356
146,34,-26,0,31,29,137,94,-80,-123,119,41,66,173,48,126,-33,-38,-114,109,327,139,-7,-119,112,461,-103,-49,-69,-74,-242,161357
123,34,4,16,42,41,111,-7,-5,-108,311,40,47,-27,113,129,10,5,-55,107,305,137,15,-64,98,440,-44,18,-18,-33,-112,161358
-497,-96,115,-52,-104,-85,-622,-453,127,40,-267,-136,-13,-333,-91,-384,122,177,349,-389,-1046,-394,103,392,-403,-1372,383,287,293,244,995,161359
-764,-171,146,-69,-152,-123,-891,-277,163,-32,-444,-229,75,-360,-147,-642,163,227,578,-582,-1749,-624,168,598,-542,-2387,572,411,483,410,1160,161360
-634,-132,122,-22,-114,-95,-727,-298,76,-47,-270,-176,-11,-302,-61,-554,175,210,570,-474,-1596,-511,192,560,-397,-2248,521,405,480,388,896,161361
-549,-109,80,13,-99,-88,-610,-414,66,70,-113,-124,-89,-98,-105,-483,161,169,541,-387,-1422,-433,187,492,-287,-2078,448,379,445,350,738,161362
-21,-4,-7,60,28,11,-48,36,149,70,146,173,-145,323,14,-44,81,32,164,34,-304,-4,130,110,140,-585,82,137,165,116,-91,161363
144,28,-39,38,64,37,138,86,-84,115,96,214,-291,336,100,109,21,-23,-33,158,141,139,64,-61,221,37,-62,26,31,-8,-199,161364
112,21,-34,15,49,28,150,-46,-101,-37,-96,197,-37,396,56,94,-4,-31,-61,125,144,107,29,-76,167,96,-73,0,-9,-32,-174,161365
78,22,-18,23,35,33,138,-9,-41,24,108,90,-110,98,93,41,-20,-53,-65,76,88,42,11,-74,103,30,-77,-10,-32,-48,-224,161366
66,10,-9,14,33,40,101,14,34,34,-11,43,-163,-86,81,-16,-69,-87,-107,15,50,0,-45,-128,42,14,-124,-64,-83,-98,-252,161367
-3,8,30,29,38,56,11,-53,-40,92,40,55,-78,-117,90,-50,-29,-28,-27,-24,-103,-43,-7,-24,-7,-187,-27,6,-6,-25,-32,161368
-365,-68,88,-9,-40,-6,-390,-188,56,-120,-410,-166,84,-268,-89,-326,90,130,279,-285,-892,-318,93,301,-262,-1285,290,226,234,185,699,161369
-599,-101,116,9,-88,-58,-637,-581,212,-106,-397,-140,265,-394,-128,-532,174,223,530,-457,-1510,-501,174,539,-390,-2182,508,390,442,358,1001,161370
-823,-155,130,-1,-145,-119,-844,-564,127,-277,-341,-309,104,-470,-195,-724,203,252,687,-623,-2025,-691,212,681,-515,-2955,641,488,564,455,1214,161371
-818,-171,108,1,-134,-108,-816,-583,-25,-282,-458,-336,231,-298,-153,-762,178,202,700,-610,-2092,-682,208,668,-461,-3128,608,470,567,451,961,161372
2,-15,-24,81,50,54,90,336,-118,-10,217,70,130,104,-17,-108,14,-35,121,18,-388,-16,62,59,149,-855,17,90,123,75,-370,161373
184,44,-50,83,77,59,299,100,-30,115,182,93,-13,202,63,86,8,-45,-33,171,121,166,38,-72,265,-150,-69,14,14,-21,-393,161374
144,33,-47,53,52,46,253,69,45,193,286,120,-4,78,63,78,23,-22,-29,143,135,167,54,-51,227,-102,-49,23,14,-23,-264,161375
112,22,-21,39,50,62,194,125,-29,20,262,61,-4,194,132,48,33,-6,-14,111,92,144,64,-29,187,-156,-17,44,27,-5,-257,161376
54,12,6,53,26,55,99,34,31,-559,-198,-28,-54,21,57,-38,-2,-19,-11,16,-83,45,30,-24,87,-377,-23,38,7,-26,-118,161377
42,17,-12,65,22,42,88,32,50,-474,26,-21,-153,-117,27,-51,5,-20,7,9,-101,22,27,-22,72,-389,-25,43,12,-26,-24,161378
-578,-110,83,-14,-133,-91,-584,-422,81,-312,-423,-289,-175,-204,-133,-547,110,147,394,-474,-1369,-484,114,404,-414,-2114,392,290,308,221,1045,161379
-1409,-270,243,-40,-275,-205,-1508,-954,332,230,-987,-601,130,-590,-247,-1272,298,392,1058,-1107,-3335,-1178,298,1076,-979,-4887,1031,709,832,680,2212,161380
-1327,-276,211,-10,-233,-154,-1423,-823,278,293,-896,-434,212,-512,-194,-1260,292,338,1082,-1034,-3389,-1135,321,1062,-825,-5085,993,710,875,699,1903,161381
-925,-198,149,49,-118,-76,-944,-287,153,128,-606,-158,126,-210,-62,-931,256,242,909,-693,-2659,-785,311,844,-429,-4214,772,601,754,599,1151,161382
100,-4,-64,124,84,82,253,422,-37,-26,220,262,28,324,200,-65,38,-65,140,113,-387,77,130,35,372,-1161,-7,103,165,94,-537,161383
268,39,-91,95,100,93,430,418,5,288,178,295,124,192,161,81,-27,-128,-115,199,129,196,46,-180,380,-378,-188,-43,-39,-103,-575,161384
193,25,-50,80,82,90,260,490,49,333,118,191,71,155,84,2,-34,-88,-83,100,-9,100,40,-117,240,-526,-119,-16,-36,-85,-333,161385
189,42,-16,75,88,94,201,486,122,167,132,110,65,32,127,24,2,-34,-66,121,18,113,63,-74,214,-469,-85,7,-18,-53,-211,161386
153,14,-46,44,62,53,160,241,29,149,88,80,66,9,175,13,-14,-41,-97,105,41,97,34,-93,177,-427,-91,-19,-45,-67,-213,161387
165,26,-37,65,63,55,180,265,-102,53,21,172,97,67,98,31,-13,-55,-87,113,77,112,39,-94,175,-366,-90,-10,-46,-57,-263,161388
-18,-10,-3,41,22,29,-9,56,21,34,-44,59,-113,-59,5,-128,-9,-26,-8,-43,-278,-45,26,17,6,-837,14,26,16,-2,92,161389
-361,-89,30,4,-65,-42,-367,-290,131,-53,-300,-89,29,-372,-75,-400,50,65,234,-303,-1015,-326,75,274,-234,-1846,252,179,195,160,534,161390
-600,-139,73,-16,-110,-72,-623,-412,64,-194,-683,-159,-74,-282,-79,-595,118,143,461,-463,-1574,-517,152,477,-360,-2640,441,326,368,306,919,161391
-590,-133,76,14,-99,-58,-593,-398,76,43,-570,-132,-152,-164,-49,-600,151,162,545,-430,-1624,-482,204,523,-285,-2804,480,376,445,359,865,161392
62,-8,-75,76,39,33,176,85,-246,63,226,157,-137,311,57,-44,28,-37,67,101,-200,75,85,22,242,-897,4,61,83,48,-327,161393
195,43,-77,85,71,53,300,279,-176,50,253,125,-79,262,68,85,0,-45,-77,198,161,191,65,-91,301,-381,-88,-5,-23,-46,-336,161394
176,27,-89,39,40,35,264,238,-148,80,256,72,-134,176,73,74,-20,-52,-101,173,179,182,34,-116,250,-300,-110,-24,-60,-81,-234,161395
103,16,-67,30,26,22,218,60,-69,24,195,80,-204,141,35,23,-13,-53,-41,125,88,145,42,-61,196,-407,-62,6,-34,-53,-96,161396
149,28,-51,36,51,44,244,221,-28,316,305,31,-260,17,42,39,-51,-85,-72,131,171,153,-6,-101,202,-289,-108,-37,-76,-89,-243,161397
217,27,-63,15,62,80,262,235,-114,338,232,55,-99,-9,25,81,-94,-122,-204,153,322,175,-65,-208,214,-51,-190,-127,-159,-157,-377,161398
-178,-57,31,-22,-12,32,-189,-232,28,210,-234,-102,23,-70,-76,-216,21,38,66,-151,-484,-143,22,103,-103,-1142,120,75,75,38,424,161399
-715,-158,114,-39,-119,-51,-778,-564,196,-64,-668,-194,24,-349,-164,-666,147,190,506,-548,-1709,-585,146,528,-469,-2847,515,348,398,318,1236,161400
-771,-154,114,-3,-120,-61,-812,-430,119,-48,-536,-151,199,-118,-246,-717,205,236,666,-556,-1962,-620,221,658,-434,-3281,611,455,527,438,1269,161401
-526,-96,57,36,-58,-33,-500,-193,126,8,-271,-47,45,39,-100,-532,191,181,558,-353,-1534,-408,236,528,-181,-2754,483,398,463,382,752,161402
43,12,-50,86,61,57,172,212,-60,-89,11,135,-145,343,93,-62,59,-1,145,80,-312,48,132,80,255,-1112,70,125,132,100,-250,161403
213,21,-95,51,64,56,356,226,-49,-17,111,104,64,313,100,94,-22,-67,-81,195,184,181,41,-118,317,-397,-120,-26,-55,-62,-439,161404
171,14,-85,31,45,32,283,243,-149,319,108,37,27,-26,106,74,-26,-62,-82,166,186,152,29,-108,262,-355,-113,-22,-67,-57,-328,161405
158,13,-79,25,42,31,238,171,-9,196,132,200,53,60,154,82,-18,-62,-98,160,205,149,12,-106,238,-276,-100,-39,-77,-57,-289,161406
138,9,-68,22,40,25,184,77,11,71,211,270,-56,14,56,77,1,-37,-98,153,194,137,24,-89,214,-279,-83,-26,-72,-50,-182,161407
92,-9,-51,5,26,15,111,16,120,245,14,131,-66,0,-13,22,-15,-48,-100,92,97,71,13,-89,146,-382,-96,-32,-76,-57,-29,161408
-159,-51,18,-3,-23,-15,-181,-229,126,176,63,-27,64,-47,-42,-205,16,22,70,-141,-486,-159,34,99,-82,-1160,96,82,64,54,381,161409
-632,-132,116,-8,-111,-73,-711,-257,256,54,-304,-224,92,-276,-118,-614,145,184,481,-503,-1600,-549,157,511,-419,-2732,493,353,385,331,1088,161410
-658,-138,118,8,-86,-38,-729,-245,158,117,-393,-254,-61,-171,-79,-679,165,182,570,-515,-1789,-573,188,565,-377,-3055,528,382,445,374,1109,161411
-474,-105,63,38,-43,-11,-490,-194,112,271,-263,-12,-122,-5,62,-526,135,127,461,-355,-1440,-404,167,435,-199,-2642,407,302,377,306,692,161412
129,15,-97,68,55,51,245,142,55,161,170,261,-265,169,162,23,8,-55,6,163,-43,150,61,-43,308,-762,-48,12,42,23,-401,161413
250,40,-110,64,71,59,380,177,-55,71,321,119,-80,223,82,159,-26,-74,-160,251,355,272,17,-174,361,-199,-160,-74,-85,-86,-393,161414
229,39,-112,43,50,43,332,82,-91,-44,282,97,15,207,71,152,-27,-70,-176,235,398,262,27,-189,315,-111,-170,-79,-114,-112,-339,161415
171,33,-77,36,44,37,260,7,2,51,293,84,-21,183,82,102,-13,-52,-128,180,278,206,14,-134,243,-243,-114,-46,-74,-82,-209,161416
178,27,-60,18,54,41,232,94,23,271,186,-9,-36,87,93,85,-33,-58,-145,160,254,178,-27,-139,203,-253,-127,-66,-92,-93,-194,161417
233,35,-68,10,52,61,289,69,-33,247,114,90,46,190,41,133,-39,-64,-163,201,394,227,-12,-183,234,-43,-164,-91,-126,-122,-264,161418
-79,-26,-13,-12,-19,1,-44,29,75,-2,-97,41,85,13,-5,-123,-7,2,25,-61,-229,-49,0,14,-20,-883,39,30,15,-4,229,161419
-234,-44,19,6,-49,-27,-211,-1,96,-266,-89,34,138,-83,-1,-246,62,75,191,-163,-614,-161,61,183,-91,-1419,190,146,147,123,385,161420
-171,-40,5,9,-25,-8,-132,-19,43,-8,-32,-18,88,-9,7,-194,73,63,174,-92,-510,-100,79,163,-4,-1296,150,141,151,124,229,161421
-20,-23,-26,-3,8,21,17,92,-70,87,35,-19,108,54,68,-93,7,-21,2,11,-199,-7,19,1,85,-862,-22,12,13,11,-52,161422
104,5,-50,14,37,46,174,209,-113,190,128,113,53,123,75,5,-41,-68,-101,88,83,99,-29,-107,147,-481,-112,-67,-77,-67,-284,161423
176,8,-70,13,44,46,233,187,-198,257,393,28,-16,256,-22,62,-59,-81,-178,130,248,135,-50,-159,170,-212,-152,-112,-140,-105,-349,161424
115,11,-39,17,29,31,139,35,-4,14,41,-134,-205,63,-96,42,-22,-41,-111,86,144,96,-10,-89,114,-356,-87,-55,-87,-68,-126,161425
120,23,-29,24,35,45,124,64,-45,-14,12,32,-74,32,11,57,-2,-18,-80,99,170,114,-2,-72,130,-337,-77,-32,-61,-46,-90,161426
111,16,-35,15,19,25,109,267,-48,34,-78,-2,6,6,78,60,-2,-21,-78,105,172,103,-7,-72,125,-318,-60,-24,-59,-34,-122,161427
112,1,-48,-3,22,8,101,286,20,55,-54,82,-33,147,-9,43,-27,-43,-102,94,180,90,-21,-97,110,-283,-86,-48,-85,-59,-185,161428
209,38,-67,13,40,11,244,144,-44,112,47,307,-40,147,14,141,-29,-57,-169,194,431,198,-33,-172,202,59,-162,-91,-132,-106,-343,161429
151,35,-67,2,17,-8,220,53,-66,58,42,105,-231,145,17,132,-20,-37,-159,161,395,177,-17,-150,161,40,-138,-80,-117,-88,-284,161430
285,52,-85,17,41,13,365,224,-66,130,436,121,-219,153,122,229,-70,-99,-276,251,683,284,-65,-264,233,460,-253,-173,-218,-172,-520,161431
301,57,-72,8,53,22,351,308,33,85,192,136,-186,25,107,225,-95,-110,-303,239,708,261,-88,-283,206,545,-256,-191,-246,-192,-469,161432
85,20,-47,-5,-2,-9,100,230,90,43,-105,-4,152,-170,42,66,-27,-25,-106,81,252,94,-33,-96,51,-55,-71,-62,-90,-67,-29,161433
56,4,-54,-10,-22,-15,74,226,-133,-6,77,38,110,-53,-12,40,-33,-38,-108,50,169,60,-31,-101,33,-139,-77,-67,-87,-69,-89,161434
119,29,-37,11,19,19,150,157,-170,-23,122,-6,75,-51,46,97,-19,-29,-130,103,278,115,-31,-111,95,4,-101,-78,-87,-66,-105,161435
80,27,-31,-4,1,-9,125,70,-91,-1,94,14,-13,22,51,80,12,7,-68,91,214,87,-2,-62,80,-90,-47,-41,-48,-32,-45,161436
82,30,-38,10,14,-11,147,36,-71,-192,270,99,-3,93,18,109,17,8,-60,124,264,115,9,-60,104,-18,-52,-29,-35,-23,-100,161437
96,15,-45,-6,17,0,132,118,-2,-19,-32,36,-12,73,-26,93,-21,-22,-115,113,258,106,-30,-106,80,-16,-95,-83,-83,-57,-131,161438
500,92,-121,37,109,78,565,289,-86,227,77,191,-13,249,107,413,-99,-139,-383,418,1102,432,-97,-405,392,1139,-367,-266,-294,-230,-825,161439
803,164,-176,43,154,104,910,466,-186,151,430,244,-140,495,190,688,-182,-232,-649,649,1876,693,-177,-659,579,2267,-602,-426,-514,-423,-1206,161440
688,157,-124,18,127,83,791,468,-90,166,474,218,-167,284,122,644,-155,-183,-603,570,1752,615,-175,-585,461,2169,-512,-382,-485,-379,-865,161441
451,102,-77,-21,62,32,510,174,-154,-128,210,100,-74,75,66,456,-111,-96,-448,385,1310,431,-133,-416,256,1606,-351,-282,-377,-282,-462,161442
-62,-18,12,-73,-57,-52,-84,-386,-55,-95,-204,-214,45,-87,-59,7,-38,26,-86,-48,165,-25,-79,-48,-165,62,-7,-55,-109,-61,302,161443
-105,-34,26,-57,-62,-38,-132,-233,-23,-354,-126,-234,37,-135,-44,-51,-27,17,-19,-89,-18,-70,-65,-5,-167,-222,27,-34,-53,-6,164,161444
-59,-11,8,-33,-40,-26,-67,-148,-35,-366,59,-105,-110,-15,-18,3,3,28,-8,-15,70,6,-40,0,-77,-164,32,-17,-24,18,69,161445
-60,-11,-16,-51,-40,-39,-68,-56,-95,-18,-68,-42,52,93,-46,16,-7,21,-27,1,112,28,-48,-23,-43,-127,4,-35,-24,7,1,161446
-5,13,-15,-30,-19,-27,-12,-61,-104,-20,21,-29,90,329,-4,85,43,52,42,70,185,105,12,32,36,-46,42,26,33,43,29,161447
-3,0,-17,-37,-26,-34,-12,-77,3,23,73,-50,49,147,-20,73,43,45,43,64,188,99,-7,20,39,-53,30,12,12,24,6,161448
295,51,-49,-12,43,47,281,202,16,44,414,105,77,214,48,256,-80,-108,-249,248,784,283,-122,-278,213,784,-253,-193,-219,-178,-546,161449
609,107,-84,-9,115,132,629,510,-134,43,549,275,-2,415,92,509,-194,-241,-548,447,1506,512,-222,-581,388,1839,-540,-398,-465,-398,-958,161450
696,135,-87,-1,140,154,712,489,-109,209,576,231,24,333,96,586,-219,-246,-660,493,1742,566,-253,-657,392,2235,-597,-461,-542,-454,-1064,161451
548,109,-71,-19,100,95,548,380,-66,52,281,72,-94,103,-85,502,-167,-166,-586,389,1490,449,-217,-541,246,1965,-485,-393,-470,-379,-742,161452
19,14,48,-63,-7,15,-48,-119,141,-51,-64,-20,21,-171,-102,63,-34,12,-128,-8,312,6,-78,-91,-137,389,-43,-95,-132,-85,193,161453
-59,-10,56,-74,-28,0,-148,-133,197,-59,34,-60,-5,-243,-77,-49,-56,-5,-41,-88,35,-107,-90,-39,-178,30,-18,-65,-85,-47,154,161454
33,5,30,-45,-6,-2,-62,4,-45,-30,206,-25,-69,19,-45,48,-38,-4,-42,18,198,-28,-78,-51,-71,242,-38,-61,-77,-26,-30,161455
-59,-11,26,-47,-31,-28,-191,120,62,9,-234,17,-7,-70,-61,12,10,47,20,-30,14,-93,-45,31,-102,8,43,-16,-8,26,134,161456
-99,-29,13,-60,-43,-40,-270,122,-8,92,-284,-62,143,-80,-125,-24,-5,37,-2,-60,-86,-133,-57,23,-116,-104,43,-29,-6,17,140,161457
-40,-23,15,-56,-28,-23,-179,45,-24,184,-104,-2,117,-82,-97,-6,-28,0,-24,-50,-42,-111,-71,-16,-95,-39,1,-45,-37,-6,-9,161458
504,105,-63,31,113,69,524,401,-170,255,301,302,272,23,109,441,-97,-129,-361,388,1105,354,-126,-383,336,1490,-352,-255,-280,-215,-860,161459
941,192,-175,48,169,95,1080,688,-238,-8,649,352,-69,350,156,859,-189,-237,-729,744,2221,762,-198,-745,651,3060,-698,-472,-565,-464,-1461,161460
933,209,-178,41,145,81,1063,633,-302,-39,385,269,-215,470,204,905,-181,-211,-762,745,2385,807,-213,-750,597,3335,-685,-476,-600,-492,-1339,161461
617,142,-102,-5,74,42,679,350,-120,-131,420,62,-114,175,6,651,-141,-128,-583,491,1824,563,-198,-550,299,2623,-479,-372,-493,-382,-721,161462
-52,16,31,-65,-59,-58,-121,-242,-39,-181,-103,-177,47,-397,-110,73,-15,54,-95,-42,350,4,-97,-39,-221,616,5,-60,-116,-51,410,161463
-145,1,75,-30,-42,-37,-229,-340,-57,-179,-130,-150,-1,-361,-55,-38,7,71,41,-119,12,-75,-63,65,-247,104,94,7,-8,40,435,161464
-160,-9,65,-40,-40,-33,-229,-138,77,123,-183,-143,-1,-385,-41,-73,14,57,57,-137,-81,-78,-67,68,-234,-58,90,8,18,44,332,161465
-175,-24,45,-40,-48,-47,-214,-264,-6,-58,-116,-151,-32,-74,-137,-89,26,53,81,-149,-148,-84,-51,85,-220,-206,97,30,47,57,280,161466
-98,5,52,-1,-30,-24,-109,-209,-15,-37,47,-55,-6,-79,-126,-31,27,49,82,-86,-37,-19,-23,67,-135,-97,70,36,46,53,219,161467
-104,5,39,-6,-44,-31,-87,-299,72,-81,24,-99,5,-151,-34,-31,28,57,69,-90,-47,-16,-24,57,-135,-125,77,24,38,47,208,161468
115,25,-39,-5,-9,-8,161,-40,-135,-38,135,-104,-40,-2,32,144,-33,-41,-119,94,458,169,-70,-141,51,557,-127,-106,-101,-84,-306,161469
384,90,-62,19,66,39,451,375,-167,33,296,115,97,270,86,378,-81,-114,-323,318,1089,395,-119,-351,246,1448,-313,-235,-252,-217,-600,161470
509,136,-81,28,84,41,595,323,-61,39,476,247,201,251,111,544,-59,-87,-382,450,1442,530,-101,-387,354,1961,-343,-242,-293,-222,-715,161471
387,117,-58,-2,54,16,452,206,8,-75,353,178,89,199,18,457,-47,-38,-314,347,1225,402,-95,-298,228,1748,-257,-189,-252,-175,-483,161472
-100,9,42,-49,-50,-53,-123,-104,166,-36,-162,-56,40,-45,-6,22,17,72,7,-71,108,-68,-49,31,-184,286,60,3,-15,16,341,161473
-114,-8,53,-38,-42,-38,-187,-163,97,67,-190,31,-72,-15,14,-42,38,68,66,-103,-110,-157,-33,75,-185,20,88,31,43,56,242,161474
-102,-24,44,-32,-35,-18,-158,-55,-4,-84,-162,-32,129,-149,-7,-35,8,30,11,-101,-128,-201,-55,29,-172,23,37,-7,5,23,164,161475
-46,-14,46,-19,-9,1,-78,-31,-33,-23,-266,-80,321,-206,25,-6,-21,11,-15,-79,-66,-200,-55,-16,-121,125,-11,-35,-32,-1,36,161476
34,20,27,4,9,13,65,68,-60,18,89,53,253,-35,50,97,16,34,-14,32,115,-105,-3,-16,-7,364,-7,-8,-16,6,-77,161477
125,57,-4,21,14,-3,186,93,-128,-157,224,14,-215,-126,41,179,2,6,-69,123,344,-7,-20,-69,70,681,-70,-51,-64,-28,-210,161478
189,58,-36,6,11,-2,206,124,-102,-215,269,-62,-125,29,5,198,-56,-60,-157,145,491,50,-73,-175,74,907,-165,-140,-156,-101,-377,161479
538,123,-79,13,92,75,556,188,-121,91,216,121,-163,173,86,500,-113,-149,-382,409,1289,375,-127,-425,332,1973,-400,-285,-337,-251,-834,161480
566,119,-67,-13,97,84,557,90,26,70,24,110,19,123,87,533,-139,-166,-461,409,1439,419,-165,-487,295,2198,-441,-324,-386,-314,-807,161481
309,58,-20,-41,33,30,269,-25,76,-5,36,52,97,-85,6,332,-120,-112,-332,177,968,239,-173,-337,63,1573,-294,-248,-289,-239,-351,161482
-90,-1,68,-58,-39,-22,-179,-149,138,110,-28,-40,254,-192,-19,8,-5,45,-18,-98,112,-45,-74,6,-209,375,24,-27,-21,-17,302,161483
-126,-8,70,-41,-44,-16,-204,-146,162,219,-158,-90,117,-254,-39,-32,18,56,46,-108,-27,-49,-35,56,-203,125,69,11,34,33,261,161484
-56,-13,44,-32,-22,-8,-133,-214,173,-223,-14,-28,119,-146,-81,1,0,22,-26,-74,82,0,-59,-22,-149,236,-3,-43,-14,-20,110,161485
-20,10,50,-6,1,5,-84,-69,123,-26,-29,-18,94,-137,-43,21,0,12,-27,-48,120,27,-37,-23,-131,259,-6,-40,-16,-19,130,161486
-51,-9,34,-19,-6,-17,-93,0,-7,-41,-131,-116,-70,-215,-100,-15,-35,-6,-28,-77,72,22,-64,-34,-146,183,-23,-53,-25,-26,52,161487
-45,8,27,-9,-7,-10,-66,-81,44,-85,-16,-116,-52,-7,-71,3,-17,5,1,-57,79,31,-49,-12,-117,176,5,-25,-3,-1,4,161488
103,35,-6,3,26,17,115,19,41,-54,-36,-38,15,91,42,142,-21,-27,-70,76,385,154,-41,-101,13,612,-87,-75,-61,-52,-200,161489
351,89,-42,25,69,55,393,73,-116,-167,193,77,-93,196,95,364,-60,-69,-246,271,936,350,-78,-276,196,1391,-257,-185,-201,-167,-520,161490
438,105,-65,9,55,43,495,116,-137,-204,308,200,-142,353,37,454,-95,-102,-362,344,1207,414,-124,-375,245,1807,-340,-251,-301,-237,-683,161491
283,68,-48,-29,11,8,297,27,-231,-177,251,16,70,94,-4,318,-118,-105,-315,198,932,239,-163,-322,82,1509,-278,-237,-281,-235,-456,161492
-65,-11,53,-41,-31,-26,-140,-273,-160,-215,-93,-92,55,-68,-18,3,-47,9,-67,-90,106,-97,-106,-41,-203,424,-14,-69,-73,-57,178,161493
-61,-16,46,-37,-33,-19,-134,-172,-52,-93,-289,-68,96,-108,-85,-5,-42,6,-22,-79,32,-127,-76,-19,-171,337,-8,-53,-44,-26,18,161494
-56,-8,63,-29,-19,-18,-118,-154,77,14,-426,-90,0,-197,-96,2,-10,31,37,-65,-24,-143,-33,25,-143,277,37,-6,1,17,17,161495
-36,14,41,-6,-17,-23,-30,-138,84,-86,-46,-88,-140,-100,-25,70,54,74,73,9,24,-90,30,60,-69,339,68,40,47,65,87,161496
-75,6,24,-10,-48,-44,-15,-158,45,-166,-86,-14,-157,-57,13,51,41,60,55,-17,-3,-117,29,56,-84,306,69,32,26,57,128,161497
-131,-12,54,-4,-38,-37,-122,60,85,-179,-14,-88,35,18,21,-54,-6,26,31,-118,-199,-219,-23,53,-163,45,65,3,21,33,99,161498
172,49,16,10,39,39,177,193,-9,-117,384,56,-168,204,62,210,-38,-39,-150,146,432,62,-53,-136,82,881,-130,-99,-109,-81,-383,161499
392,76,-31,-15,80,81,405,186,-7,34,548,125,44,185,70,414,-85,-109,-317,314,1010,289,-108,-326,225,1663,-301,-217,-258,-209,-692,161500
377,68,-37,-37,61,58,383,229,6,33,383,121,97,219,52,401,-103,-116,-348,288,1069,295,-134,-356,186,1758,-319,-259,-301,-235,-662,161501
241,42,-27,-48,19,16,215,43,-72,115,122,84,-20,177,40,261,-105,-96,-282,162,798,183,-132,-271,44,1417,-233,-213,-244,-198,-389,161502
-32,14,49,-45,-18,-13,-114,-104,-117,-1,-114,-117,75,-104,-79,40,-10,24,-38,-33,184,-5,-37,-12,-139,564,0,-40,-38,-32,45,161503
-91,-2,67,-37,-19,-17,-168,-92,94,-35,-280,-60,93,-220,-135,-10,-3,28,31,-77,14,-40,-33,40,-161,296,43,-10,14,13,178,161504
-91,-24,44,-39,-34,-40,-166,-127,51,-12,32,-2,222,-130,-85,-52,-31,-4,23,-108,-48,-76,-61,13,-181,208,27,-21,1,4,121,161505
-126,-38,42,-30,-48,-42,-186,-40,51,-219,99,-24,195,-291,-45,-81,-20,7,67,-139,-144,-98,-44,49,-197,66,76,15,32,29,159,161506
-127,-36,47,-30,-37,-23,-178,-136,32,-89,-49,-35,58,-110,-68,-91,-22,6,52,-143,-178,-103,-49,42,-190,25,60,2,24,18,151,161507
-123,-25,25,-28,-43,-30,-148,-200,50,-224,29,-10,11,-17,-5,-62,-21,0,56,-133,-153,-93,-38,38,-162,34,46,1,31,19,163,161508
-9,3,12,-2,-16,-12,-6,73,11,-206,66,-54,6,-58,39,56,12,21,51,-2,77,29,13,26,-30,313,22,15,32,27,-3,161509
259,42,-45,0,36,28,262,132,-109,17,196,72,-1,-80,115,259,-52,-57,-175,202,663,235,-48,-190,152,1114,-187,-133,-133,-112,-428,161510
262,49,-43,-9,46,21,250,82,-100,37,-48,48,57,-75,80,266,-62,-63,-186,186,699,225,-59,-209,141,1198,-191,-128,-148,-127,-387,161511
149,33,-16,-19,6,-15,125,55,-131,50,50,6,195,232,94,179,-38,-35,-120,95,479,124,-61,-134,37,926,-121,-86,-108,-93,-111,161512
-98,-14,33,-29,-46,-65,-149,-165,-86,-18,44,-120,4,69,27,-10,25,59,53,-77,-39,-75,-7,65,-143,228,76,36,34,32,337,161513
-103,-12,40,-13,-37,-42,-137,-262,107,-74,121,-113,-49,-50,105,10,54,81,109,-55,-93,-69,24,114,-102,130,115,77,93,86,282,161514
-154,-32,46,-25,-52,-45,-195,-130,209,-18,-218,-96,31,33,-32,-67,25,60,109,-111,-235,-146,11,119,-154,-63,120,66,91,73,283,161515
-128,-39,38,-22,-36,-24,-175,-179,133,-7,-218,-147,-12,-197,-126,-98,-30,-3,45,-138,-247,-157,-38,43,-173,-63,44,11,28,19,152,161516
-109,-36,59,-22,-19,-7,-162,-260,78,247,-226,-165,57,-284,-49,-101,-32,-18,46,-145,-250,-153,-45,29,-170,-99,30,0,26,17,143,161517
-45,-21,35,-24,-13,-9,-70,-174,82,196,-13,-16,237,-208,11,-11,-30,-14,38,-49,-69,-63,-23,13,-68,134,16,8,24,15,43,161518
94,15,7,-10,21,12,89,71,106,13,385,37,87,-57,-37,116,-39,-33,-55,81,266,71,-26,-66,53,584,-70,-45,-41,-33,-239,161519
162,19,-8,-7,33,29,108,105,28,30,259,63,-22,-106,-64,155,-45,-48,-115,102,396,103,-44,-121,60,764,-120,-90,-95,-70,-320,161520
161,23,-6,-5,25,24,89,79,-38,-154,393,3,-58,-64,1,143,-48,-36,-102,89,387,105,-33,-117,38,764,-121,-88,-90,-72,-231,161521
84,15,14,-10,9,3,9,69,15,-59,126,-4,128,-140,60,87,-43,-13,-70,21,214,31,-32,-69,-30,564,-66,-54,-60,-47,-96,161522
-88,-24,21,-29,-37,-45,-144,-10,92,2,-129,-23,76,-139,-11,-38,-15,23,23,-101,-114,-97,-19,38,-145,110,44,2,20,16,116,161523
-88,-14,18,-30,-37,-47,-124,-83,43,-15,-145,-46,-113,40,-3,-23,27,53,82,-70,-128,-68,22,82,-91,86,86,46,68,65,106,161524
-74,-3,31,-23,-24,-36,-101,-50,-95,-231,-175,-46,63,26,33,1,46,69,113,-41,-107,-46,60,101,-50,109,96,79,93,77,176,161525
-58,-6,27,-15,-21,-31,-75,-229,-21,-74,-51,-89,61,14,-13,4,30,52,106,-31,-91,-46,48,85,-50,147,72,60,82,68,209,161526
-57,1,31,-11,-16,-9,-76,-113,5,-69,-191,8,-35,27,-20,2,35,55,85,-37,-98,-56,38,70,-45,137,81,50,73,68,206,161527
-82,-7,23,-14,-15,-14,-111,-43,-126,-137,-204,-76,-44,0,-51,-26,30,52,78,-60,-162,-86,36,75,-69,58,84,43,81,67,231,161528
-113,-19,-1,-22,-40,-47,-129,10,-139,-138,-198,-68,-174,100,-70,-30,62,93,137,-65,-234,-99,75,136,-75,-55,135,96,124,115,209,161529
-192,-29,31,-18,-51,-58,-205,-147,36,51,-120,-109,-192,-158,-52,-76,88,119,225,-118,-409,-144,96,215,-121,-321,209,162,185,162,357,161530
-221,-60,41,-30,-53,-54,-249,-283,-44,-94,-202,-141,-157,-228,-11,-137,56,67,207,-163,-493,-186,64,172,-151,-446,158,130,158,122,303,161531
-178,-60,52,-29,-33,-26,-241,-176,61,14,10,-33,8,-208,72,-152,15,15,147,-164,-462,-186,40,108,-141,-431,98,79,104,62,221,161532
-121,-48,25,-30,-22,-29,-172,-180,-58,118,67,-133,117,-99,-69,-117,-19,-27,67,-133,-320,-141,-5,36,-113,-270,16,20,42,10,59,161533
-21,-17,0,-16,6,-3,-48,-49,-59,76,-134,-41,33,129,21,-17,-5,-18,26,-22,-52,0,0,-8,-7,46,-18,-10,21,-2,-67,161534
-2,-32,-3,-41,-6,-3,-59,-87,70,55,-4,-85,-49,-6,-14,-18,-28,-29,-22,-14,-17,21,-15,-41,-23,106,-42,-40,-20,-32,12,161535
46,-14,3,-24,2,-5,21,4,84,88,280,-3,17,91,34,45,-9,-4,2,56,110,109,14,-30,43,241,-22,-4,7,-4,-69,161536
57,8,2,10,4,-12,91,132,85,99,142,91,-18,168,117,113,63,64,76,108,185,173,70,51,105,319,48,66,81,74,-9,161537
36,12,-2,20,10,-11,76,-9,105,-7,-28,96,122,57,88,105,64,65,66,99,160,159,71,48,89,299,52,61,75,64,91,161538
-150,-39,23,-16,-36,-30,-193,-101,109,-15,-251,-120,-194,-40,-50,-130,-1,17,88,-136,-295,-85,7,60,-136,-271,71,34,56,44,303,161539
-97,-24,50,-2,5,23,-169,-53,5,57,-248,-90,61,-95,-17,-132,-18,-12,47,-127,-297,-103,-11,32,-123,-262,29,-1,31,11,123,161540
-66,-44,31,-35,3,26,-152,-189,-159,-27,-118,-188,56,-152,-80,-121,-51,-51,-16,-124,-241,-122,-41,-29,-108,-180,-41,-56,-23,-32,-11,161541
-24,-21,27,-24,11,29,-79,-107,-17,33,-191,-57,-85,-37,-79,-67,-36,-40,0,-64,-127,-79,-20,-40,-46,-32,-51,-45,-21,-20,-116,161542
-47,-28,11,-14,-14,-32,-61,76,79,195,-87,21,-173,-14,-64,-50,-10,-14,31,-58,-140,-83,-4,-2,-34,-28,3,-8,13,8,-4,161543
15,-3,-21,-8,-18,-37,27,202,149,130,102,119,-42,97,20,30,4,-8,-11,11,26,-14,-3,-34,36,224,-19,-19,7,-9,-108,161544
-27,-14,-9,-20,-35,-25,-23,24,13,-83,-65,10,4,70,46,-3,-3,-5,9,-35,-51,-59,12,-4,6,142,-2,-1,21,8,-25,161545
-22,-17,10,-19,-27,-13,-28,-10,-7,-13,-175,-56,6,26,76,-31,-25,-20,-4,-58,-79,-91,-11,-11,-14,114,-23,-10,-7,-8,-63,161546
-28,-20,26,-4,-9,-6,-72,-86,117,61,60,-45,182,-98,33,-41,-3,5,7,-74,-148,-118,7,3,-41,28,13,-6,11,12,20,161547
-39,-21,35,-8,1,-10,-89,-50,46,172,10,19,78,-164,16,-52,3,-5,9,-87,-189,-120,6,13,-47,-18,21,4,21,12,24,161548
-43,-12,37,-3,2,-9,-83,85,69,56,-89,13,-43,-36,6,-66,-10,-16,13,-94,-196,-134,-7,16,-55,-55,13,6,15,15,74,161549
-44,-14,15,-10,-4,-24,-69,-51,71,78,-22,16,-71,-83,8,-44,5,-7,34,-70,-175,-101,9,32,-41,-49,35,15,32,27,8,161550
29,-10,-23,-15,2,-18,5,39,17,66,-126,-63,-45,-123,14,5,-34,-54,-55,-20,-11,-49,-34,-60,0,173,-49,-55,-37,-42,-140,161551
70,13,16,17,33,24,25,75,48,-34,-146,45,-46,-143,21,21,-52,-66,-76,-2,57,-21,-50,-83,8,249,-71,-66,-55,-50,-107,161552
41,5,27,7,13,24,-9,188,33,-84,-199,-38,16,117,-42,-27,-72,-70,-63,-55,-26,-47,-54,-67,-44,137,-57,-67,-58,-50,-109,161553
-39,-6,23,-1,-5,-1,-54,52,-39,-115,191,-118,69,250,-53,-72,-47,-52,-9,-78,-127,-61,-20,-31,-78,-32,-11,-35,-17,-15,47,161554
-1,3,-11,12,8,-2,8,-82,7,-58,173,5,-27,66,-36,-12,-15,-29,-2,-10,-10,32,-4,-28,-20,80,-14,-31,-9,-11,-1,161555
-19,0,-8,7,4,-6,-23,59,-40,32,27,48,-52,119,-20,-12,5,0,20,-11,-35,54,2,1,-22,20,14,-9,10,0,-25,161556
-22,-11,-31,-23,-18,-32,-54,1,-56,-28,71,35,10,72,-36,-13,-6,-14,5,-11,-15,66,3,-17,-14,49,-8,-17,7,-10,7,161557
31,9,-33,-4,1,-26,7,20,-51,19,114,66,39,134,8,67,36,22,32,68,135,151,46,0,73,223,7,11,25,24,0,161558
100,20,-50,1,12,-27,120,8,-142,5,57,56,90,79,50,137,22,3,-31,136,320,204,32,-53,150,481,-44,-30,-8,-13,-174,161559
269,58,-77,9,44,-15,318,189,-143,-12,65,119,-230,196,188,266,-43,-76,-212,236,695,300,-35,-222,244,1031,-196,-154,-137,-134,-460,161560
265,58,-76,1,29,-20,315,148,-81,-122,99,128,-168,241,158,280,-68,-83,-261,221,730,269,-57,-250,200,1146,-212,-171,-189,-159,-389,161561
173,54,-25,-9,28,9,188,214,23,39,-68,68,163,95,51,199,-40,-34,-189,137,511,145,-45,-164,114,893,-126,-121,-128,-109,-158,161562
-5,3,30,-14,-2,0,-71,-25,151,-87,-255,-72,24,-121,-43,-1,-30,-17,-59,-63,22,-80,-46,-42,-77,264,-17,-60,-52,-30,126,161563
-56,-17,21,-12,-22,-22,-129,-144,-28,-72,-45,8,-52,-106,-61,-45,-2,3,34,-82,-95,-121,0,14,-71,105,39,-10,2,10,158,161564
-88,-15,17,-18,-29,-33,-166,64,33,167,-143,26,-229,78,-15,-43,24,30,96,-69,-158,-124,36,67,-46,23,81,35,48,50,167,161565
-37,-16,11,-28,-13,-19,-147,39,-9,-39,-49,2,-293,145,1,-8,8,14,51,-38,-73,-86,5,33,7,136,43,2,23,31,28,161566
-28,-32,5,-43,-23,-21,-144,-124,-49,26,88,-57,-223,-8,49,2,3,3,31,-26,-48,-92,2,25,21,165,38,-11,23,26,-41,161567
-42,-27,18,-49,-22,-19,-118,54,-131,12,-22,-42,52,-136,38,-11,8,14,43,-32,-62,-92,20,36,11,134,49,-2,29,29,37,161568
94,15,8,-15,20,14,92,-66,-84,-16,159,69,135,-33,46,91,-27,-35,-58,64,207,18,-20,-77,106,502,-49,-76,-49,-32,-168,161569
267,53,-23,12,59,37,303,26,-47,-152,73,20,10,80,65,202,-86,-112,-233,155,569,130,-94,-238,181,1026,-202,-192,-191,-153,-421,161570
247,65,-17,9,57,31,279,193,15,-92,213,134,53,79,46,198,-94,-100,-267,130,572,120,-110,-250,122,1044,-210,-221,-207,-159,-380,161571
196,48,-2,-4,50,25,208,-19,111,-101,107,111,14,-42,-17,183,-52,-45,-224,114,498,128,-55,-201,86,936,-158,-183,-155,-123,-247,161572
-44,1,39,-20,-26,-16,-91,-34,206,37,-61,-100,180,-375,-66,-21,5,12,-18,-69,-15,-53,-3,-1,-99,212,22,-60,-15,-11,155,161573
-122,-19,37,-27,-43,-46,-163,-7,209,26,-194,-204,172,-360,14,-90,20,23,77,-98,-176,-69,11,69,-122,-49,78,1,48,41,216,161574
-14,11,6,-3,-8,-28,9,108,85,-64,55,-86,34,-77,19,9,-13,-19,4,3,100,66,-22,-19,-11,279,-17,-47,-7,-4,-2,161575
-45,3,12,-19,-9,-28,-41,-153,-113,-78,107,-60,-15,54,-4,-21,-6,-8,30,-26,47,53,-9,12,-34,187,13,-36,17,5,109,161576
-84,-7,22,-26,-9,-18,-102,-178,16,45,-66,-68,-78,130,-33,-47,26,22,72,-53,-60,14,15,63,-59,18,61,-8,54,35,233,161577
-105,-13,9,-34,-25,-36,-110,-180,-58,-208,-145,-103,-164,189,-16,-46,19,19,58,-62,-81,11,0,51,-53,-3,54,-17,45,36,148,161578
285,72,-49,34,63,37,302,-2,-198,-92,-105,127,-100,77,77,254,-64,-85,-196,221,682,292,-75,-209,235,1034,-204,-184,-143,-133,-548,161579
762,160,-144,53,150,106,837,303,-317,-227,484,326,-84,303,125,666,-159,-219,-580,591,1782,672,-164,-597,575,2602,-559,-414,-436,-381,-1183,161580
889,190,-162,42,161,113,1011,338,-300,-67,690,422,-54,379,189,838,-154,-214,-658,710,2207,804,-163,-664,656,3269,-620,-440,-509,-432,-1345,161581
771,180,-124,22,129,96,854,471,-135,-112,557,200,-163,314,198,764,-141,-174,-624,595,2040,676,-179,-610,506,3136,-552,-423,-494,-410,-1029,161582
71,28,5,-54,-21,-24,23,-5,95,-159,-94,-136,-81,52,3,153,-58,-5,-189,24,541,34,-112,-138,-75,1168,-97,-165,-176,-132,163,161583
-181,-29,48,-54,-65,-64,-260,-130,12,-135,-177,-232,83,-66,-58,-90,-2,49,62,-174,-138,-197,-44,93,-223,234,96,-25,12,37,364,161584
-201,-19,75,-28,-45,-28,-240,-121,85,29,-217,-128,89,-173,-45,-122,-1,45,110,-196,-270,-230,-38,119,-216,43,122,-12,43,71,335,161585
-175,-1,83,-13,-22,-6,-207,-81,123,168,-213,-119,-51,-147,-53,-113,29,59,122,-168,-296,-218,-15,124,-156,-9,127,-12,76,88,354,161586
-207,-25,53,-33,-45,-40,-219,-41,169,-37,-49,-166,80,-160,-10,-152,-4,24,72,-202,-344,-254,-36,95,-177,-114,81,-46,51,54,259,161587
-164,-25,64,-7,-30,-18,-218,73,124,12,39,-197,57,-133,-2,-161,0,34,82,-194,-363,-246,-18,102,-161,-157,95,-33,49,64,253,161588
117,32,10,24,40,32,85,-33,88,146,165,-53,75,10,26,96,-15,-32,-53,43,225,28,-10,-67,95,611,-78,-122,-49,-24,-256,161589
718,151,-104,53,156,123,757,426,-139,43,429,333,62,389,158,631,-128,-195,-500,540,1623,564,-106,-529,558,2544,-514,-407,-388,-322,-1188,161590
904,187,-135,32,174,148,959,741,-242,-67,687,425,47,406,93,828,-175,-229,-699,707,2202,740,-182,-693,639,3411,-662,-527,-550,-439,-1294,161591
758,173,-114,-3,132,118,799,465,-207,-32,477,202,-11,185,-4,744,-149,-170,-622,598,2031,654,-165,-591,482,3238,-566,-465,-498,-391,-969,161592
48,23,9,-80,-34,-12,-26,-90,82,-177,-126,-92,-55,-181,-111,144,-48,5,-168,12,531,49,-102,-117,-108,1248,-102,-183,-162,-120,121,161593
-265,-47,88,-59,-77,-55,-359,-162,65,-90,-441,-267,-15,-338,-201,-149,9,69,87,-242,-273,-225,-50,132,-324,133,135,-39,36,57,512,161594
-209,-14,74,-31,-53,-48,-270,-183,-15,-86,-225,-130,80,-156,-66,-127,0,42,69,-206,-240,-185,-53,96,-251,135,104,-63,37,45,347,161595
-197,-16,70,-25,-61,-48,-262,-194,11,-50,-187,-113,95,-156,-24,-132,12,35,72,-196,-277,-194,-38,92,-230,66,95,-65,44,46,349,161596
-130,-15,55,-25,-49,-21,-204,-45,-80,-1,-28,-82,9,-133,-37,-99,-14,-1,46,-149,-165,-145,-44,31,-183,192,23,-96,-3,-5,180,161597
68,27,34,6,20,46,3,97,-99,-610,-54,-47,-123,110,-30,59,-36,-44,-47,4,224,18,-49,-69,-28,696,-88,-150,-72,-64,-169,161598
103,29,34,5,27,37,64,94,-10,-187,-7,-24,172,264,84,131,3,1,-29,71,328,84,-8,-38,39,828,-52,-104,-42,-27,-60,161599
671,143,-94,38,130,104,734,508,-255,19,671,197,169,462,190,630,-102,-150,-423,535,1608,586,-109,-467,510,2600,-448,-364,-344,-268,-971,161600
845,195,-119,30,161,121,910,665,-184,44,624,327,3,322,193,790,-186,-229,-677,640,2138,702,-216,-683,557,3399,-633,-525,-546,-448,-1179,161601
518,113,-62,-30,68,45,539,335,-69,-51,267,150,-109,174,89,548,-155,-157,-535,376,1571,428,-212,-498,254,2704,-448,-427,-440,-359,-628,161602
-57,17,39,-79,-60,-53,-90,-181,54,-162,-39,-119,35,-75,3,92,-22,40,-60,-50,341,-23,-78,-27,-161,1054,-2,-123,-89,-60,279,161603
-238,-20,62,-69,-76,-82,-282,-260,187,33,-208,-147,247,-86,14,-87,42,87,153,-191,-177,-185,-19,168,-256,303,164,3,76,88,516,161604
-207,-22,66,-36,-54,-63,-258,-300,136,436,-165,-129,229,-133,-101,-100,37,81,142,-192,-239,-187,-26,150,-238,181,148,-10,88,104,440,161605
-146,-13,36,-24,-35,-44,-160,-182,14,71,-226,-54,174,23,-88,-63,32,65,104,-128,-138,-128,-13,105,-166,286,112,-34,72,85,285,161606
-100,-6,37,-8,-20,-28,-121,-128,20,-80,-235,-103,98,55,-97,-48,16,25,96,-113,-85,-103,-17,85,-131,358,70,-50,41,53,171,161607
-105,-19,33,-21,-26,-30,-171,-191,92,-31,-148,-178,-13,-282,-194,-90,-23,-12,67,-148,-126,-138,-52,54,-159,297,38,-81,11,17,95,161608
-93,-27,41,-26,-29,-22,-174,-134,45,-61,-39,-84,45,-265,-106,-72,-27,-16,35,-124,-85,-106,-65,25,-124,351,22,-108,2,-3,119,161609
-47,-17,23,-38,-32,-23,-119,-96,38,-41,-108,-136,121,-15,-124,-11,-12,2,27,-58,20,-53,-32,17,-57,496,10,-95,1,10,67,161610
52,35,23,-7,9,13,13,23,16,42,-18,-40,33,120,-48,87,20,30,4,28,220,45,1,5,27,746,4,-82,1,8,-19,161611
-49,-1,12,-25,-30,-34,-87,-37,29,-43,-90,-240,-8,-130,14,1,36,41,51,-55,26,-51,-2,49,-56,483,41,-56,32,23,100,161612
-106,-21,32,-21,-41,-53,-141,-73,174,73,-245,-120,109,-239,26,-39,59,70,115,-79,-109,-76,37,110,-85,289,102,-9,87,65,226,161613
-75,2,40,-2,-11,-27,-104,-4,23,28,-96,42,113,-299,13,-7,63,78,112,-44,-98,-70,41,121,-56,301,116,-10,93,84,140,161614
-17,29,44,14,6,-5,-40,35,17,66,23,53,70,61,67,44,71,76,88,2,17,-43,39,93,-2,456,92,-24,87,83,119,161615
-48,9,31,10,-3,-7,-85,105,0,-22,-236,-15,46,-98,67,3,42,49,70,-35,-63,-105,12,76,-57,370,73,-47,65,56,199,161616
-26,4,27,8,-3,2,-85,-66,-14,-37,-79,-50,103,-147,32,-30,-24,-11,-3,-67,-57,-132,-48,0,-79,402,2,-124,-20,-22,67,161617
-60,-17,32,-15,-19,-9,-137,-46,-23,197,-69,-27,80,-34,-75,-63,-36,-23,14,-119,-156,-174,-52,8,-120,288,4,-110,-8,-18,54,161618
-245,-58,50,-51,-67,-55,-309,-218,110,-79,-92,-72,22,-175,-93,-188,25,47,142,-235,-511,-296,10,154,-252,-211,144,-6,98,65,435,161619
-716,-137,154,-58,-163,-143,-803,-589,223,-102,-496,-303,173,-151,-134,-566,153,210,521,-570,-1549,-653,124,550,-558,-1696,520,246,401,319,1151,161620
-720,-131,153,-31,-142,-135,-806,-531,329,-6,-560,-157,93,-123,-94,-582,197,244,621,-545,-1682,-615,182,625,-476,-1957,580,301,503,406,1158,161621
-494,-108,66,-24,-108,-100,-555,-289,3,7,-416,-45,5,-146,-46,-399,163,155,479,-351,-1224,-398,162,456,-272,-1413,413,201,390,306,729,161622
-129,-26,23,17,-2,-2,-146,-57,-119,-47,105,23,-40,110,58,-92,110,78,255,-54,-440,-59,131,221,21,-398,186,58,225,165,88,161623
18,4,17,18,38,34,14,-240,-118,14,-100,130,-108,89,105,19,49,19,91,32,-80,60,66,76,85,89,47,-37,85,70,60,161624
56,0,10,25,39,34,31,-80,-161,-120,-210,5,22,-5,19,-1,2,-22,-10,13,-19,43,11,-6,34,188,-23,-119,0,-4,-97,161625
38,1,14,28,38,57,-7,55,-15,131,-60,-176,-18,-202,-32,-51,-28,-59,-44,-46,-70,-4,-9,-44,-38,134,-60,-155,-35,-50,-87,161626
5,9,19,27,23,37,-8,272,22,123,-59,-94,-116,-263,-9,-45,0,-14,29,-52,-97,13,22,13,-47,82,-8,-98,17,-11,48,161627
-39,-4,-2,14,-3,-3,-10,87,115,64,-91,-46,-186,51,-1,-34,30,21,75,-44,-114,23,34,61,-32,67,47,-62,54,33,74,161628
-55,-6,2,10,-16,-10,-48,19,149,53,-12,21,-109,65,-54,-39,30,26,74,-46,-138,3,28,73,-35,47,51,-69,62,37,-12,161629
90,28,-13,19,25,23,88,227,120,51,110,109,57,226,17,61,-13,-19,-29,55,170,102,-11,-41,59,454,-57,-136,-20,-30,-216,161630
174,32,-26,17,35,36,177,-54,-35,-37,110,-26,-85,266,32,139,-26,-51,-54,135,379,171,-5,-82,141,752,-106,-154,-61,-60,-330,161631
222,41,-40,12,32,28,245,31,-147,34,130,-82,-38,345,68,198,-30,-49,-103,175,520,205,-17,-119,174,986,-134,-184,-105,-88,-281,161632
-39,5,-5,-17,-15,-23,-34,-70,-170,-29,-157,-156,-130,-19,-18,6,14,41,31,-16,11,-29,-8,45,-29,332,44,-94,15,12,118,161633
-83,4,0,-4,-13,-27,-82,-150,-82,-55,-173,30,-141,-110,0,-22,46,68,90,-42,-145,-81,24,114,-35,133,102,-53,85,67,135,161634
-91,-12,16,-12,-20,-18,-108,-196,25,-88,-270,9,-29,-124,-13,-32,61,64,107,-67,-211,-118,52,118,-45,56,120,-29,99,78,169,161635
-63,-9,23,-10,-8,2,-70,-59,58,-74,-114,15,-74,-41,-89,-27,25,25,71,-59,-157,-124,24,75,-31,128,65,-65,56,45,92,161636
-120,-31,33,-15,-18,-16,-145,-187,86,-32,-159,-58,-4,-139,-102,-111,-1,10,57,-134,-308,-205,1,80,-113,-66,75,-73,47,26,92,161637
-86,-23,37,-3,-3,1,-115,-217,50,90,-61,-48,12,-64,-32,-106,-8,-11,36,-122,-312,-205,-22,53,-117,-72,53,-109,35,9,50,161638
196,21,-12,3,54,70,199,140,129,131,120,57,-71,113,30,132,-58,-95,-136,107,306,50,-51,-147,112,758,-153,-237,-107,-104,-404,161639
555,117,-55,36,129,147,615,596,-19,68,371,223,-1,183,86,455,-138,-178,-415,405,1174,387,-124,-418,358,1963,-414,-401,-320,-281,-922,161640
497,92,-66,14,103,100,510,546,-63,85,285,98,45,85,3,408,-148,-167,-445,341,1154,344,-160,-440,255,1979,-407,-413,-352,-306,-798,161641
395,81,-48,4,82,51,390,153,-114,-103,240,94,-18,-49,33,348,-84,-103,-326,282,986,312,-98,-314,184,1757,-293,-313,-270,-225,-523,161642
3,17,17,-28,-17,-32,-12,-220,-69,-94,-126,-16,74,-134,-25,54,23,47,-16,-8,181,22,-1,16,-106,660,35,-106,-21,-21,128,161643
-158,-17,52,-27,-49,-45,-174,-297,85,-238,-352,-142,17,-143,6,-79,54,87,124,-113,-208,-99,28,145,-194,108,155,-28,92,76,277,161644
-164,-23,51,-38,-57,-45,-165,-228,87,122,-140,-216,-55,-118,-28,-74,53,84,127,-106,-245,-90,24,147,-171,33,155,-20,115,79,340,161645
-186,-29,35,-34,-66,-66,-163,-116,52,-25,-172,-96,6,-242,-77,-90,56,84,151,-111,-295,-95,43,166,-165,-52,169,-7,128,98,296,161646
-93,0,34,0,-21,-28,-51,-122,108,-62,-66,73,252,-23,-17,-27,50,64,107,-27,-137,-12,33,103,-89,163,110,-44,87,74,184,161647
-64,-6,33,2,1,6,-59,-211,67,9,-120,97,114,35,37,-28,27,23,57,-27,-100,-24,-2,60,-101,202,62,-75,46,34,120,161648
-101,-31,30,-22,-7,-5,-162,-103,11,-76,-78,-4,-73,-84,-15,-109,-14,-13,43,-109,-221,-109,-54,38,-165,36,46,-101,26,7,78,161649
-230,-68,42,-43,-37,-24,-310,-156,2,-16,-34,-87,-22,18,-110,-215,4,26,132,-215,-511,-222,-29,127,-248,-349,134,-48,92,69,339,161650
-228,-50,33,-14,-43,-32,-256,-296,36,82,-285,-92,80,-188,-30,-174,55,64,205,-173,-523,-180,46,192,-170,-397,184,23,166,117,322,161651
22,1,-17,2,7,-7,63,29,-93,167,-42,67,23,138,49,74,26,16,53,55,58,52,31,23,62,363,24,-48,56,27,-92,161652
70,24,-6,5,33,15,121,31,-124,37,37,24,-196,365,-9,125,22,18,9,81,179,85,24,-6,74,548,7,-69,7,7,-141,161653
18,-1,-2,-1,6,13,23,-7,-31,7,182,8,-252,198,-94,24,-13,-16,-15,-21,39,-10,-28,-31,-19,375,-15,-111,-24,-28,-85,161654
26,-1,22,3,19,30,-22,-49,9,91,161,20,36,-119,-1,5,-11,-7,-15,-33,16,-23,-27,-26,-22,343,-13,-112,-25,-20,-20,161655
50,6,-1,11,5,4,25,-123,87,-78,-20,26,139,18,-14,54,2,16,6,21,102,36,-4,-7,28,448,7,-76,-4,8,-52,161656
-10,6,19,20,-1,-20,-21,-110,89,-267,-229,-6,34,-7,-88,28,47,65,84,4,-5,14,38,82,8,294,91,-9,73,79,59,161657
-5,-5,12,3,-5,-29,-1,-84,159,470,-204,-62,27,-275,-17,10,32,39,52,-2,10,15,25,44,4,306,62,-35,50,47,77,161658
-133,-12,52,5,-30,-35,-152,-14,87,285,-77,-119,68,-170,-28,-107,63,74,157,-129,-288,-102,52,125,-114,-110,139,29,116,105,201,161659
-76,-16,25,6,-12,-21,-100,137,47,156,-23,3,-30,-163,14,-80,20,11,95,-103,-193,-84,17,54,-93,12,46,-23,47,43,-16,161660
-24,-5,10,13,2,-9,-61,216,0,50,68,-49,70,-151,-32,-67,-30,-36,6,-77,-121,-76,-39,-21,-87,115,-16,-88,-17,-26,-102,161661
52,16,9,19,26,11,-1,-76,44,-33,246,63,-61,-68,-29,-1,-51,-54,-75,-6,47,-17,-44,-74,-32,360,-75,-116,-57,-66,-217,161662
36,5,6,5,16,5,-50,-78,43,-50,101,54,108,-48,-30,-4,-39,-40,-51,-5,40,-14,-43,-54,-37,357,-53,-88,-38,-55,-84,161663
-13,-4,13,-10,2,-5,-91,-110,-70,-178,44,31,-52,-165,-70,-31,-24,-23,8,-24,-37,-46,-31,-17,-49,260,-6,-52,-5,-32,-28,161664
-24,-4,24,-2,12,-11,-58,-30,26,-416,49,37,38,20,-47,3,52,49,85,15,-59,-22,40,66,-5,228,84,20,71,55,95,161665
-58,-6,12,0,-11,-45,-29,-52,121,-328,109,20,176,65,-11,13,69,71,94,10,-105,-22,58,94,-14,178,106,59,91,79,131,161666
-61,3,2,13,-22,-59,-12,-144,35,36,-108,3,38,78,54,12,64,63,97,7,-114,-36,61,81,-16,148,92,54,90,67,164,161667
-78,13,2,14,-22,-58,4,-217,-25,46,-93,75,82,98,94,25,73,78,96,25,-109,-14,76,88,0,151,107,62,104,75,165,161668
-172,-25,25,-4,-42,-51,-117,-163,-58,-51,-183,-10,47,-20,1,-90,64,82,146,-71,-330,-113,64,144,-93,-163,165,92,129,93,321,161669
-499,-94,105,-21,-94,-77,-534,-219,21,-131,-227,-199,-31,-328,-89,-416,111,152,388,-377,-1143,-436,102,390,-375,-1306,396,237,307,228,822,161670
-492,-104,87,-2,-88,-78,-528,-194,163,-25,-288,-143,-55,-213,-84,-443,107,133,411,-384,-1220,-440,107,387,-339,-1480,376,242,324,249,661,161671
-287,-78,47,12,-41,-38,-291,53,191,-2,-136,102,-132,-166,-70,-291,41,39,234,-232,-800,-272,53,195,-178,-919,191,118,177,139,257,161672
-6,-7,2,33,25,12,34,84,-4,59,74,135,116,-115,52,-52,4,-21,48,-13,-154,-18,33,-1,46,-83,2,17,37,19,-67,161673
80,15,1,24,30,20,114,204,-83,110,134,110,194,227,65,46,19,-2,32,55,66,87,54,-12,120,207,-16,19,25,10,-89,161674
44,-9,-14,15,15,12,51,269,-90,63,145,36,105,-86,38,11,-37,-45,-24,1,49,47,1,-51,53,200,-45,-16,-27,-32,-122,161675
-18,-11,29,17,21,21,-78,111,54,-10,40,-54,90,-35,-23,-88,-57,-46,-14,-112,-130,-36,-23,-38,-46,-50,-28,-15,-33,-40,-36,161676
31,-5,15,8,36,26,17,163,99,-45,62,80,-94,-29,7,-44,-30,-46,-24,-52,-16,21,-2,-48,3,100,-37,-15,-26,-28,-72,161677
14,-7,-2,9,10,-3,58,160,63,487,207,67,-170,-83,58,-14,6,-11,-9,-25,23,39,8,-27,12,144,-5,8,-10,-16,-20,161678
-99,-14,14,9,-3,-13,-81,-33,47,183,-85,27,-45,-256,17,-110,21,31,84,-111,-221,-59,12,77,-76,-190,95,63,63,48,175,161679
-313,-61,40,2,-46,-54,-335,-195,192,29,-193,52,-97,-386,-80,-301,73,103,267,-261,-738,-251,73,253,-230,-895,253,180,194,171,527,161680
-464,-89,81,10,-74,-76,-506,-349,149,77,-209,-204,100,-252,-138,-449,128,165,435,-378,-1194,-400,148,418,-326,-1542,405,295,330,284,765,161681
-424,-82,63,27,-65,-57,-415,-306,27,189,-148,-264,118,-7,-183,-445,89,112,387,-355,-1186,-395,120,351,-289,-1552,335,237,295,242,612,161682
-45,-16,7,71,26,29,17,36,-5,172,-31,-16,35,-59,-14,-142,1,-23,62,-71,-411,-108,29,27,-4,-510,29,39,71,36,-1,161683
124,9,-24,65,51,47,181,229,-80,0,298,-54,-101,25,-4,6,-58,-76,-136,48,-14,13,-29,-141,76,74,-117,-74,-67,-89,-322,161684
73,10,-11,47,39,34,116,134,1,-324,336,32,-181,-29,50,-7,-49,-63,-83,29,-28,-18,-17,-98,39,72,-89,-43,-49,-83,-262,161685
-31,-10,-1,20,6,-15,-18,82,-77,32,228,33,-21,37,54,-69,-25,-37,7,-32,-201,-93,-16,-11,-28,-149,-8,8,6,-25,-101,161686
-12,-21,-28,-2,-5,-16,-2,46,-127,-86,243,31,-239,25,6,-23,-4,-6,11,34,-114,-31,4,-1,13,-45,9,29,25,-1,-61,161687
24,10,-4,19,10,10,34,87,6,-87,108,104,94,139,100,28,39,35,53,73,-45,9,72,36,65,22,30,58,53,36,-12,161688
-16,10,-5,17,7,-7,6,-12,111,152,-88,70,126,72,134,1,44,58,88,35,-124,-15,96,73,32,-87,71,87,82,59,99,161689
-201,-38,20,0,-35,-48,-183,-136,21,150,-160,-63,-39,-144,85,-164,50,76,180,-121,-524,-183,88,176,-115,-618,163,154,150,105,310,161690
-443,-86,90,-4,-63,-60,-487,-235,91,104,-264,-147,109,-254,3,-399,89,130,358,-346,-1126,-408,116,365,-326,-1467,345,270,288,220,705,161691
-480,-96,87,14,-70,-49,-533,-241,89,16,-346,11,-29,-179,-43,-442,125,146,419,-372,-1275,-426,130,421,-317,-1725,393,300,351,276,672,161692
-32,-11,7,59,36,40,-17,-2,-103,21,271,227,-13,11,64,-76,53,18,140,-9,-323,-29,76,115,62,-493,92,120,132,91,5,161693
102,5,-20,41,51,52,127,107,-2,8,266,175,52,239,49,35,2,-34,-13,59,49,96,37,-24,126,4,-52,26,-3,-25,-159,161694
112,19,-37,32,39,29,171,90,-93,4,100,114,-19,257,-27,46,-43,-67,-73,64,167,136,-1,-73,107,161,-109,-27,-62,-78,-258,161695
96,26,-27,24,32,22,164,86,-65,221,60,104,91,48,46,51,-32,-45,-81,57,191,155,-14,-65,94,202,-79,-25,-65,-57,-264,161696
18,11,-21,25,25,17,57,-60,-66,145,134,83,-80,-52,32,-19,-15,-8,-24,-18,30,84,7,6,19,-9,-21,22,-8,-5,-91,161697
-62,-3,-24,8,-5,5,-35,-77,-44,-454,136,55,-59,-256,-12,-73,26,22,63,-52,-110,37,58,86,-11,-219,37,85,56,45,99,161698
-87,-12,1,8,-5,-2,-78,-7,-60,-217,97,-2,-71,-38,-54,-97,45,44,98,-73,-214,4,50,131,-32,-350,94,113,95,84,191,161699
-331,-79,30,-17,-53,-48,-368,-237,-2,-44,-126,-180,-35,-136,-114,-320,68,92,249,-276,-786,-229,72,284,-232,-1110,250,200,200,181,512,161700
-463,-105,57,-23,-80,-60,-492,-441,74,-170,-253,-205,-106,-268,-98,-433,98,121,357,-374,-1129,-366,101,379,-311,-1603,331,258,286,226,666,161701
-467,-100,76,-6,-73,-43,-453,-360,160,-141,-161,-233,133,-129,-60,-443,100,125,388,-366,-1210,-391,120,397,-275,-1736,341,278,324,257,544,161702
-73,-20,-10,33,10,19,9,158,27,101,24,-59,112,-30,-9,-128,18,-8,95,-30,-389,-92,60,86,43,-632,42,80,97,78,-129,161703
80,5,-50,43,41,42,172,433,-54,340,288,-69,27,144,-32,9,-9,-32,-48,77,-25,17,33,-39,125,-112,-71,2,-3,-24,-285,161704
22,2,-42,32,20,17,86,61,21,332,310,89,-10,159,61,-29,-18,-40,-29,34,-109,-35,18,-22,62,-187,-44,6,-9,-39,-177,161705
13,15,-19,33,24,22,46,-8,-74,-26,97,220,-36,222,46,-29,-9,-23,7,48,-131,-48,28,13,53,-213,-3,30,18,-7,-78,161706
15,-9,-11,4,23,41,-8,-164,-99,-88,-194,119,100,221,29,-41,-7,-16,5,24,-161,-82,21,14,39,-240,5,32,13,-9,-80,161707
-5,-16,-4,9,26,32,-52,-56,-151,-131,-179,-1,74,-1,19,-81,-4,-9,14,-19,-249,-125,15,23,2,-348,14,44,25,-13,-26,161708
-128,-29,12,9,-7,-10,-133,-25,-120,102,-213,-70,121,122,1,-143,61,60,152,-80,-475,-175,102,159,-59,-682,140,146,133,85,208,161709
-300,-66,36,-4,-54,-47,-306,-403,-39,2,-227,-50,83,-67,-69,-265,115,115,299,-190,-834,-284,157,300,-146,-1185,270,234,251,185,507,161710
-442,-94,54,-6,-71,-59,-481,-208,94,-91,-319,-96,-102,-219,-103,-411,114,135,367,-315,-1167,-407,140,371,-260,-1683,345,263,300,229,677,161711
-546,-119,82,5,-82,-59,-612,-208,50,-59,-274,-182,86,-153,-138,-543,123,148,436,-420,-1479,-498,148,467,-332,-2171,428,297,365,293,715,161712
-53,-38,-5,46,19,31,-61,44,-25,-9,248,111,60,146,3,-149,26,-14,93,-41,-440,-61,81,98,70,-809,58,75,117,81,-134,161713
101,-1,-38,43,40,41,133,14,13,-29,156,35,-114,53,40,4,-12,-47,-47,74,2,104,47,-45,159,-226,-54,-7,1,-24,-251,161714
87,-2,-42,28,25,22,133,-70,-62,-33,123,-19,-205,73,-8,16,-6,-26,-38,73,68,138,46,-30,144,-134,-45,2,-8,-18,-189,161715
2,-8,-10,17,17,19,19,84,-34,61,-24,-100,-106,79,-16,-40,43,26,41,6,-95,89,84,64,65,-384,30,65,63,35,-15,161716
75,12,-25,29,38,48,90,173,-50,143,111,-7,58,66,52,35,44,17,20,51,70,177,76,27,127,-171,-9,43,39,16,-117,161717
121,27,-31,41,44,50,145,254,5,-5,212,93,74,173,60,73,23,6,-25,97,209,228,62,-14,163,11,-38,10,-3,-5,-176,161718
-195,-36,16,0,-32,-28,-202,-53,32,-81,-126,-36,145,23,-58,-206,45,70,126,-165,-446,-74,70,170,-118,-863,151,97,111,83,400,161719
-727,-136,126,-20,-133,-101,-786,-619,200,-151,-474,-231,63,-180,-148,-665,152,197,548,-568,-1681,-542,170,583,-488,-2545,553,355,435,368,1202,161720
-735,-157,111,-19,-133,-88,-770,-425,122,65,-605,-100,-43,-249,-108,-690,151,172,583,-555,-1808,-575,184,591,-434,-2748,545,362,470,403,1160,161721
-651,-135,95,3,-103,-66,-662,-289,117,271,-574,-24,-8,-232,-16,-613,184,204,612,-455,-1737,-515,227,603,-309,-2693,548,392,506,421,1056,161722
-138,-40,-10,48,14,15,-84,144,43,271,-6,136,-129,153,66,-178,103,67,282,-38,-674,-99,170,234,117,-1267,186,182,253,206,103,161723
142,20,-59,67,67,59,229,362,-76,-112,192,267,-32,283,46,69,26,-20,1,163,-6,117,98,-25,278,-334,-49,9,45,15,-234,161724
87,7,-73,48,39,31,162,34,-115,-270,-7,144,-67,62,-34,23,5,-27,-36,114,-44,55,76,-38,192,-352,-63,-14,3,-21,-220,161725
78,5,-57,42,44,50,121,-79,-17,40,55,65,124,80,40,3,-3,-22,-28,93,-46,28,66,-35,163,-354,-49,-28,3,-28,-204,161726
81,2,-50,20,37,57,118,84,-169,167,89,-20,33,7,-35,-12,-42,-59,-74,78,-33,2,22,-67,145,-302,-82,-65,-35,-61,-272,161727
66,7,-55,16,24,46,140,194,-125,70,113,108,-21,38,-128,-14,-59,-77,-91,75,-12,3,4,-82,131,-243,-93,-78,-49,-78,-249,161728
-7,0,-15,24,21,42,55,173,-70,4,98,26,-90,62,-87,-63,-32,-29,-40,20,-150,-43,27,-19,57,-413,-38,-45,-18,-34,-15,161729
-153,-33,27,11,-3,21,-153,83,-21,73,-237,-142,-226,-181,-58,-209,6,21,81,-119,-529,-176,48,109,-83,-943,86,32,65,52,251,161730
-260,-74,43,-18,-27,-4,-304,-16,12,-5,-181,-226,70,-39,-118,-313,36,47,182,-220,-787,-268,75,197,-159,-1332,178,81,138,108,407,161731
-479,-92,83,-16,-78,-45,-513,-323,202,-56,-190,-229,127,-154,-21,-477,114,148,399,-371,-1305,-411,152,427,-284,-2075,405,240,329,264,747,161732
-15,6,-26,63,20,21,37,91,88,78,204,59,-96,209,141,-60,87,53,152,38,-335,35,133,142,152,-818,110,96,168,127,-51,161733
223,64,-85,55,60,29,328,218,-34,124,243,146,-58,-7,163,176,46,11,-45,243,319,279,90,-54,328,61,-64,-18,17,-8,-362,161734
171,50,-72,29,40,20,299,70,-51,82,117,123,-181,237,74,154,54,28,-41,215,323,273,80,-23,266,73,-33,-15,17,-10,-237,161735
143,25,-80,15,19,8,285,63,-20,15,319,161,-303,154,35,126,15,-17,-89,180,331,249,39,-64,225,93,-73,-70,-37,-46,-269,161736
157,25,-65,8,34,39,235,163,-98,-67,234,14,-90,341,11,86,-57,-88,-168,124,354,212,-24,-139,156,142,-151,-150,-126,-125,-279,161737
174,32,-19,11,64,102,176,-107,-192,-294,174,-80,-11,282,-69,62,-80,-101,-173,87,313,175,-50,-146,122,134,-169,-163,-137,-129,-376,161738
-130,-48,25,-37,-24,41,-187,-249,-117,-250,-210,-190,-70,-21,-140,-190,-40,-23,6,-155,-337,-117,-17,59,-133,-712,29,-40,-1,-22,258,161739
-458,-103,69,-35,-103,-36,-523,-314,91,39,-592,-348,-47,-240,-156,-443,74,116,326,-375,-1113,-372,101,383,-307,-1811,332,172,265,200,748,161740
-386,-82,43,-7,-84,-42,-383,-147,34,54,-378,-127,-143,-183,-77,-367,96,101,321,-281,-995,-283,130,350,-190,-1685,301,174,278,212,559,161741
-211,-47,-16,36,-41,-27,-135,9,-12,-10,-250,23,-68,-58,-26,-205,87,67,212,-113,-624,-128,114,227,-18,-1201,176,102,193,145,272,161742
-22,-5,-37,50,8,14,75,34,-11,16,62,72,-119,-1,-52,-76,31,-1,54,9,-250,-10,61,90,97,-687,31,0,69,49,-70,161743
100,16,-20,50,41,59,154,242,86,395,215,129,63,-9,75,13,-4,-41,-41,86,-9,67,26,-2,144,-341,-47,-60,-15,-12,-193,161744
95,1,-31,22,25,56,118,61,13,440,84,77,47,29,72,1,-19,-46,-58,73,18,49,1,-25,117,-281,-69,-86,-43,-43,-108,161745
106,-4,-26,16,31,62,113,24,64,79,25,54,24,10,47,24,-21,-45,-78,84,79,57,9,-32,125,-190,-66,-88,-53,-53,-118,161746
57,-9,-16,11,15,47,58,133,-36,-42,147,88,43,144,-36,-12,-8,-29,-57,45,-24,20,16,-7,76,-299,-41,-58,-28,-32,-34,161747
33,-8,-10,13,5,39,24,104,24,2,118,63,-105,19,-8,-32,4,-21,-21,17,-89,-13,19,23,48,-387,-20,-34,-7,-10,38,161748
19,0,-10,17,8,31,11,31,56,24,-50,71,-2,-106,42,-43,20,-5,-1,8,-147,-32,22,36,29,-466,6,-22,11,1,41,161749
52,15,-38,27,6,16,103,92,215,146,76,43,212,33,34,-1,14,-11,-50,52,-9,34,23,-6,69,-289,-20,-47,-18,-17,-99,161750
154,43,-65,42,23,34,228,112,-37,86,322,91,67,181,31,82,-36,-53,-171,128,245,119,-28,-115,134,71,-128,-131,-107,-80,-228,161751
219,59,-60,48,43,47,275,-52,-41,159,192,-51,37,201,-13,125,-41,-62,-190,168,379,166,-30,-142,166,258,-154,-150,-131,-110,-250,161752
52,7,-47,10,-7,7,87,103,65,-23,-109,-10,81,169,-50,8,-18,-19,-83,46,71,40,-9,-40,39,-141,-46,-82,-50,-46,-24,161753
53,8,-51,10,5,17,90,16,-26,33,-140,66,-50,88,28,17,-2,-20,-72,65,87,67,2,-36,50,-119,-43,-74,-36,-32,-116,161754
73,23,-30,7,18,27,108,135,-80,-4,-127,117,-70,189,36,33,30,-5,-49,88,121,110,19,-24,77,-95,-35,-49,-19,-20,-92,161755
-17,-8,-22,-1,-5,0,12,100,-88,-16,-148,44,-38,77,57,-49,26,5,3,6,-72,31,23,33,0,-363,23,-15,23,6,45,161756
20,9,-21,3,-10,-1,33,55,-3,204,-78,4,97,120,40,1,22,-2,-43,52,22,74,16,-2,51,-246,-2,-39,1,-8,-51,161757
-23,0,-3,2,-9,-15,-55,187,77,205,-145,3,119,202,24,-36,19,18,-4,13,-82,36,11,32,13,-384,36,-16,22,22,42,161758
108,14,-47,5,8,1,95,333,-21,39,244,232,29,216,91,86,-20,-46,-100,139,265,174,8,-100,144,92,-100,-84,-68,-67,-300,161759
69,9,-26,-13,-5,7,38,73,18,10,107,73,114,339,19,95,17,0,-65,129,241,160,31,-26,134,75,-39,-32,-23,-26,-115,161760
161,30,-31,-3,37,37,157,124,-81,-31,2,61,-50,217,19,170,12,-13,-79,209,431,218,17,-59,219,338,-75,-43,-47,-29,-252,161761
264,57,-43,13,67,87,289,313,-86,-143,131,30,-64,123,48,216,-60,-83,-206,235,627,238,-43,-194,234,661,-184,-138,-159,-123,-459,161762
49,13,-15,-8,16,39,55,35,-162,-71,-1,-137,-57,-73,-60,-5,-67,-66,-119,3,123,-2,-59,-93,6,38,-86,-91,-102,-92,-77,161763
-16,0,-7,-9,-14,11,8,-82,-70,99,-172,-60,-25,-282,-66,-54,-43,-32,-45,-40,-36,-62,-31,-26,-32,-177,-30,-41,-48,-40,-5,161764
-7,6,9,-1,-6,14,6,262,-8,158,-118,-62,221,-102,-18,-31,19,14,24,-13,-63,-46,25,41,7,-234,32,33,19,24,135,161765
6,-8,-23,-16,-12,-11,31,199,116,-100,-164,-14,-8,-135,44,-1,30,22,15,10,-28,-21,35,34,44,-185,17,40,10,13,100,161766
35,17,-23,19,-1,-15,87,286,164,231,-29,102,-5,-5,120,18,13,10,-9,23,22,-9,22,8,50,-121,-10,22,-14,2,-2,161767
92,19,-40,13,-1,-8,139,169,-19,226,198,21,-71,61,-52,54,-29,-35,-93,65,156,34,-21,-72,72,66,-82,-28,-74,-44,-84,161768
112,27,-25,19,10,20,137,222,-3,-48,220,46,7,-19,-33,59,-33,-40,-121,76,192,43,-37,-97,79,133,-91,-32,-87,-65,-97,161769
116,35,-24,25,10,21,155,214,-72,-38,68,100,157,160,45,86,-13,-16,-109,99,246,74,-17,-85,88,204,-78,-23,-72,-45,-68,161770
119,27,-39,16,6,8,181,179,-34,80,129,157,79,160,107,111,2,-10,-89,131,287,118,8,-80,118,265,-80,1,-64,-37,-109,161771
192,46,-52,3,31,14,266,182,-112,11,-128,164,17,258,65,179,-40,-53,-162,173,468,174,-20,-157,163,521,-159,-43,-132,-105,-177,161772
12,8,-25,-20,-13,-13,41,23,17,18,-331,8,66,231,-48,10,-34,-26,-88,10,88,10,-29,-67,-17,22,-58,2,-73,-62,37,161773
-44,-12,4,-9,-8,10,-57,-70,67,48,-262,-70,160,44,-33,-75,-36,-20,-51,-54,-108,-47,-34,-32,-81,-241,-24,32,-37,-28,64,161774
14,-6,10,10,14,31,-7,133,142,135,-31,70,67,-11,41,-44,-33,-25,-54,-5,-16,17,-27,-45,-21,-154,-42,28,-39,-35,4,161775
38,7,-7,7,8,17,34,48,56,56,76,137,65,-72,10,0,-17,-20,-40,42,67,68,-10,-37,24,-52,-43,44,-28,-24,-23,161776
26,-2,-18,-7,-11,-3,61,249,-31,-243,28,59,-92,-49,66,25,2,-4,-32,86,109,97,5,-43,51,-12,-33,69,-12,-17,24,161777
87,14,-30,8,0,-11,169,237,-146,173,-33,21,-9,45,91,86,-20,-25,-108,139,268,154,-22,-109,111,223,-90,21,-68,-63,-85,161778
87,33,-18,29,14,16,163,-3,-36,185,-19,-2,-12,29,65,97,5,-4,-75,114,241,148,8,-69,101,203,-53,64,-39,-37,-17,161779
30,13,-4,11,15,22,81,-34,-72,6,-73,-27,-18,-57,27,16,15,4,-34,31,73,51,10,-43,35,1,-14,91,-10,-22,3,161780
-2,13,9,7,7,23,14,-146,-34,-187,5,-50,290,-27,52,-18,9,20,-6,-3,-24,-12,16,0,20,-129,26,113,16,10,9,161781
36,19,6,3,7,19,33,14,-58,-94,39,-12,129,124,11,24,3,10,-17,33,57,28,13,-17,66,-19,8,112,3,2,-47,161782
-21,-11,-5,-19,-27,-17,-40,-151,-78,-291,-25,11,13,102,38,-15,1,-1,4,-7,-31,-17,1,5,26,-127,24,125,20,9,20,161783
85,9,-35,-30,8,-3,82,63,-3,-256,-91,65,-132,238,26,80,-20,-37,-72,92,223,80,-11,-84,132,220,-66,80,-50,-35,-139,161784
98,23,-5,-14,36,30,80,221,-63,-267,5,-33,-57,4,-54,68,-34,-39,-88,74,230,58,-15,-103,104,235,-78,68,-68,-52,-148,161785
95,23,10,3,33,34,65,4,-90,123,-22,-86,-95,-163,-124,39,-52,-57,-113,39,192,26,-50,-127,72,215,-109,47,-102,-81,-133,161786
39,24,14,23,23,10,33,-174,70,-62,7,59,-115,-265,-28,26,-7,-3,-41,5,82,0,-9,-53,43,63,-21,115,-34,-17,25,161787
-12,8,2,19,-10,-23,13,-97,17,-28,163,-28,-97,-30,92,8,17,26,5,-13,-10,-15,14,-1,33,-60,32,152,1,23,101,161788
26,11,-8,7,-1,-9,41,-1,-55,-78,122,-9,52,-85,54,40,11,11,-19,14,70,21,12,-26,69,28,-4,144,-8,-6,-13,161789
15,11,0,8,5,1,38,14,-3,-171,30,72,14,-40,94,30,15,17,-19,16,65,23,19,-27,64,5,-10,150,-10,-14,-28,161790
53,28,8,22,16,16,97,-151,61,-89,-42,77,-119,-45,63,73,12,12,-42,64,138,64,19,-49,97,117,-19,142,-14,-17,-95,161791
106,23,-26,4,18,3,164,-58,10,-11,40,114,-331,-200,12,112,-29,-40,-103,117,307,118,-22,-128,123,363,-97,86,-79,-71,-215,161792
32,-1,-1,-19,-4,6,80,-280,-72,47,-117,119,-314,-116,-78,31,-53,-55,-99,37,166,38,-55,-111,38,189,-77,79,-98,-70,-71,161793
-32,-13,14,-26,-10,2,-4,-207,-60,-100,-4,42,-4,109,-95,-18,-32,-35,-47,-3,28,-5,-34,-55,-11,2,-27,111,-53,-36,27,161794
-17,-17,-10,-30,-13,9,-13,-26,-45,-93,3,-41,29,-26,-63,9,-28,-30,-35,10,44,21,-5,-57,2,18,-37,121,-41,-37,-2,161795
23,-13,-7,-30,5,34,-6,-95,-143,-151,-115,-29,-19,39,-48,31,-27,-21,-32,25,72,34,-12,-63,25,63,-36,112,-44,-32,5,161796
17,0,3,-18,24,41,9,-129,-59,-385,-256,-61,-50,49,-7,34,-1,4,-24,57,69,43,2,-33,45,64,-13,142,-12,-2,-21,161797
47,-13,-29,-33,16,21,53,-86,-30,-231,-244,88,5,111,-6,78,-20,-27,-86,72,173,70,-4,-83,62,206,-62,108,-57,-43,-76,161798
-29,-19,-11,-45,-10,-4,-17,-154,-42,124,-111,-48,-24,-39,4,30,28,34,15,37,28,42,42,16,28,0,34,184,31,31,88,161799
-38,7,-14,-13,-17,-26,59,-30,-90,68,112,37,115,108,30,61,82,94,104,86,37,85,94,99,84,-29,113,250,109,108,93,161800
25,33,-28,23,0,-24,141,-121,-20,-52,195,11,76,141,-16,93,46,49,30,98,150,105,53,36,103,145,41,199,37,44,-12,161801
-69,-7,13,20,-15,-22,-55,-96,44,13,75,-186,-125,-5,-20,-79,-34,-22,0,-72,-128,-67,-36,17,-68,-209,18,146,-8,-5,77,161802
-28,-1,27,19,9,9,-50,-58,69,51,-138,-104,-67,-205,55,-79,-58,-52,-43,-68,-96,-64,-50,-38,-50,-162,-26,113,-47,-33,-60,161803
-18,7,7,15,4,16,-31,-274,58,37,110,-105,22,-93,1,-69,-52,-57,-49,-72,-67,-65,-41,-42,-43,-121,-34,117,-56,-43,-30,161804
-8,-1,8,14,5,8,-11,132,6,-39,103,-8,-26,102,35,-42,-23,-19,-29,-48,-50,-34,-10,-8,-17,-112,-5,145,-19,-9,15,161805
15,15,14,20,4,-3,33,139,-108,-60,80,-4,-53,100,-14,27,33,34,37,20,8,30,41,43,44,-37,51,209,37,45,71,161806
29,16,16,19,10,-1,27,-96,11,-57,-161,-93,-32,152,-16,22,20,19,8,8,21,17,7,31,38,-7,25,183,12,17,2,161807
45,8,22,-2,17,6,9,-97,77,31,-171,-160,29,52,12,-10,-38,-29,-77,-12,46,-6,-64,-35,11,38,-46,108,-67,-43,-173,161808
71,21,21,11,30,14,51,-90,157,215,-15,-6,15,0,-27,33,-22,-22,-43,20,100,23,-40,-17,39,100,-40,131,-48,-30,-111,161809
12,0,12,3,1,-9,-13,-132,69,208,-32,65,-15,84,6,-6,-18,-17,25,-14,-18,-15,-21,24,5,-39,2,175,5,3,43,161810
-106,-32,24,-11,-17,-26,-158,-68,143,207,-104,-19,-38,-145,54,-116,-9,-3,87,-119,-292,-123,-10,93,-102,-403,62,208,49,34,192,161811
-340,-67,78,-10,-62,-43,-419,-142,187,97,-171,-45,167,-204,2,-318,54,88,257,-294,-835,-325,57,271,-271,-1186,238,325,192,154,580,161812
-166,-37,49,8,-17,-5,-230,-76,97,97,-57,19,44,-197,100,-221,-2,12,127,-184,-542,-207,25,125,-130,-817,92,221,87,64,66,161813
18,-15,5,15,11,14,-32,14,26,47,81,32,-157,75,40,-71,-53,-59,-51,-58,-159,-73,-30,-37,-13,-300,-73,113,-44,-51,-126,161814
93,7,-12,26,30,34,51,227,16,-18,199,48,5,87,61,4,-54,-68,-85,9,8,-2,-27,-73,34,-78,-98,101,-65,-69,-193,161815
106,23,-11,29,28,31,75,207,-2,58,143,17,32,24,68,46,-21,-25,-55,56,87,48,4,-40,64,18,-59,126,-42,-47,-119,161816
57,20,-7,29,7,-1,63,120,11,279,160,5,93,61,75,22,11,15,22,44,10,33,22,22,48,-70,-1,176,11,12,-4,161817
54,26,-24,37,-9,-34,110,77,120,48,163,196,-61,102,86,44,23,17,37,63,46,58,35,31,66,-30,8,185,19,27,-18,161818
-71,-2,-5,27,-29,-57,-8,-29,161,5,-78,34,-55,-181,50,-55,40,52,91,-35,-202,-52,44,109,-35,-359,92,220,75,77,217,161819
-904,-178,168,-48,-188,-159,-986,-579,292,-114,-732,-248,210,-599,-138,-788,188,269,658,-724,-2076,-777,172,707,-699,-2941,668,588,519,440,1612,161820
-1133,-240,219,-43,-205,-157,-1275,-627,362,125,-667,-348,200,-409,-144,-1023,253,334,904,-904,-2796,-976,259,937,-799,-4018,866,729,727,612,1814,161821
-963,-227,159,-32,-167,-136,-1069,-565,261,159,-506,-224,46,-432,-89,-904,231,267,827,-762,-2525,-827,259,820,-596,-3757,749,665,673,549,1403,161822
-356,-96,24,31,-37,-41,-344,14,162,23,14,106,68,177,17,-364,173,132,477,-225,-1211,-271,233,417,-44,-2061,362,449,409,320,422,161823
79,8,-50,68,54,30,158,76,-115,-107,176,281,133,359,85,24,75,13,107,116,-163,104,137,71,264,-615,23,235,122,76,-233,161824
51,7,-27,58,37,28,115,-71,25,103,-1,174,42,167,102,-7,41,13,47,44,-186,53,95,39,161,-611,19,197,74,31,-154,161825
2,-2,-22,43,23,19,63,-60,-66,216,181,175,-11,227,155,-57,34,13,45,-23,-272,-10,86,51,78,-709,27,187,72,28,-58,161826
-47,-13,-20,23,17,13,14,-40,-103,19,207,56,-59,116,141,-92,34,21,61,-48,-343,-55,87,80,35,-798,51,193,86,28,40,161827
-90,-16,-1,19,20,27,-60,-75,-28,-48,-138,65,6,82,39,-140,25,27,76,-101,-438,-108,72,95,-21,-931,72,193,101,23,101,161828
-184,-40,25,3,-7,10,-190,-247,-72,-90,-249,-20,-55,169,4,-238,20,29,116,-199,-665,-204,56,138,-122,-1227,114,201,127,40,222,161829
-187,-40,45,17,7,31,-231,-285,-127,-215,-220,1,-136,-186,-138,-278,28,27,141,-240,-772,-249,51,160,-144,-1386,134,224,141,53,239,161830
-329,-90,81,-5,-30,13,-416,-271,-39,-121,-651,-148,97,-239,-133,-404,69,76,255,-366,-1118,-372,96,265,-257,-1887,245,313,229,112,470,161831
-588,-139,115,-18,-91,-37,-679,-307,93,-54,-303,-243,118,-330,-81,-602,153,183,473,-543,-1706,-566,180,482,-418,-2742,444,466,406,254,929,161832
-394,-84,73,32,-36,-9,-407,-265,74,69,167,-165,-18,-171,14,-431,154,149,404,-364,-1361,-375,202,400,-210,-2340,347,439,367,215,565,161833
-232,-52,18,30,-19,1,-212,69,-5,61,154,54,62,-156,-1,-323,52,39,207,-278,-1011,-279,109,197,-120,-1875,160,296,192,56,262,161834
-234,-60,14,38,-20,-7,-219,-78,69,165,-26,-45,113,-106,28,-332,32,32,178,-296,-1014,-299,98,185,-149,-1890,153,288,176,36,277,161835
-248,-72,7,39,-25,-17,-233,-195,59,48,-47,-32,-28,-25,-31,-320,73,62,221,-270,-1024,-277,125,223,-137,-1940,187,329,210,57,339,161836
-237,-67,0,39,-19,-6,-224,-274,143,-181,-187,88,37,-113,-110,-305,83,75,210,-266,-1020,-267,129,230,-147,-1975,198,317,216,65,336,161837
-214,-41,24,60,0,20,-194,-231,91,-397,-96,1,-46,-99,-7,-298,87,78,198,-255,-995,-248,133,219,-145,-1976,184,308,216,69,331,161838
-237,-51,27,59,-2,19,-238,-247,64,-86,-163,-10,-38,-88,-38,-363,56,50,180,-306,-1078,-306,104,196,-199,-2101,156,291,184,35,366,161839
-461,-116,74,33,-53,-21,-498,-346,72,-104,-239,-175,-67,-400,-132,-587,42,62,296,-507,-1591,-520,90,311,-390,-2814,268,349,257,89,643,161840
-311,-90,52,50,-14,21,-340,-45,64,271,79,-18,-107,-276,-12,-466,51,45,258,-374,-1317,-371,114,249,-241,-2480,196,316,235,69,447,161841
-215,-78,12,33,-10,10,-230,-50,158,261,-70,113,-17,-102,6,-348,56,38,206,-279,-1063,-265,123,190,-137,-2145,150,296,200,53,361,161842
-216,-66,12,42,-20,-3,-213,-81,99,195,-148,84,107,10,28,-309,107,88,255,-227,-1009,-219,175,250,-99,-2099,201,343,238,103,339,161843
-165,-50,1,59,-2,5,-149,41,37,15,-104,104,72,26,29,-251,110,85,227,-165,-878,-156,180,217,-47,-1931,176,338,227,90,261,161844
-151,-53,-22,36,-4,-9,-111,-168,18,68,-140,126,-205,129,77,-242,59,38,145,-170,-804,-164,113,146,-59,-1826,111,273,161,23,155,161845
-186,-62,-19,30,-17,-2,-149,55,18,-56,-260,80,-88,245,38,-305,36,20,119,-223,-873,-203,79,146,-114,-1921,111,247,154,17,154,161846
-147,-60,-16,20,3,23,-122,156,-140,-10,26,51,-81,-29,-26,-280,29,-5,104,-189,-781,-160,91,123,-78,-1809,71,228,136,-3,61,161847
-101,-37,-7,43,33,38,-87,125,17,42,-23,68,-48,37,-19,-222,69,27,138,-136,-690,-115,123,134,-35,-1704,96,260,152,18,133,161848
-100,-44,-37,27,14,1,-53,-7,-32,33,58,78,-205,324,50,-187,68,30,118,-98,-626,-90,112,122,-7,-1609,88,239,137,32,94,161849
-70,-34,-43,21,5,-7,-6,152,170,90,222,20,-58,91,2,-141,45,21,75,-60,-515,-50,96,95,26,-1468,66,220,96,3,36,161850
73,16,-65,41,34,26,169,69,12,58,541,118,-64,99,6,-14,33,-7,6,78,-160,81,83,12,153,-1012,-23,173,40,-39,-153,161851
308,41,-102,54,77,75,397,239,-37,60,499,158,9,219,76,162,-41,-106,-207,246,387,251,11,-216,286,-255,-224,9,-141,-190,-607,161852
192,18,-63,26,49,53,232,280,28,95,181,48,-58,72,46,73,-22,-58,-152,144,195,159,16,-146,146,-484,-144,44,-104,-153,-243,161853
-14,2,-8,28,17,16,2,63,-35,94,-145,94,-85,-11,18,-84,52,31,70,13,-251,18,75,78,15,-1107,61,186,60,8,98,161854
26,15,-19,28,15,10,62,145,-85,12,117,105,-62,-90,37,-52,33,5,9,49,-157,38,42,24,62,-974,15,145,24,-16,-12,161855
37,6,-28,25,21,19,99,131,4,-3,197,82,-65,122,46,-63,-19,-43,-72,40,-111,45,-2,-56,44,-898,-59,84,-41,-73,-96,161856
39,4,-32,37,23,14,85,-20,0,331,96,135,-33,-19,-29,-73,-33,-52,-58,26,-123,43,0,-55,27,-905,-64,69,-53,-73,-100,161857
119,20,-37,45,38,39,166,97,-42,290,267,158,-134,52,-12,18,-20,-36,-47,116,59,134,24,-52,119,-668,-67,77,-36,-55,-196,161858
180,33,-46,43,54,49,237,290,-112,18,183,208,8,296,53,94,-15,-51,-96,177,245,208,17,-109,173,-411,-110,53,-72,-87,-346,161859
695,141,-126,81,175,147,797,613,-159,-7,464,298,-103,580,169,526,-128,-211,-492,566,1386,616,-89,-516,550,1165,-513,-208,-377,-347,-1171,161860
855,154,-160,44,170,157,967,838,-141,133,308,311,-184,587,158,677,-212,-283,-707,672,1904,748,-188,-711,602,1963,-686,-341,-559,-498,-1312,161861
749,150,-143,16,139,123,860,505,-121,115,374,363,-36,393,132,654,-149,-194,-615,625,1798,691,-144,-597,512,1909,-573,-272,-488,-423,-1012,161862
249,62,-42,-16,40,41,280,160,68,-28,198,159,77,237,-55,252,-44,-29,-256,229,744,259,-65,-207,106,539,-179,-40,-210,-179,-95,161863
-27,4,20,-21,-27,-8,-65,-62,90,230,159,-30,32,-11,-36,8,26,61,-3,13,56,12,-1,30,-81,-404,53,100,-12,-3,236,161864
-56,-17,6,-31,-38,-16,-118,-80,-39,419,50,65,28,-41,20,-17,38,56,37,4,-33,-9,-5,65,-65,-522,68,116,30,23,176,161865
-3,-13,-18,-38,-12,8,-61,124,-117,199,182,57,-90,44,-19,16,-1,17,-21,49,58,8,-25,-9,-13,-378,-10,69,-22,-11,-36,161866
-31,-19,-1,-33,-22,17,-72,29,32,90,-12,-33,-13,112,-76,-14,11,14,23,18,-29,-18,3,23,-27,-514,20,93,2,2,57,161867
-24,-19,-8,-24,-21,15,-12,117,-11,-47,-219,-6,-20,-14,-39,-8,22,16,44,43,-16,-4,31,26,-6,-497,27,108,20,16,71,161868
17,1,-13,10,-3,28,49,195,-164,-84,-22,7,-46,-107,-50,21,19,22,24,65,37,22,28,23,24,-431,25,100,21,27,28,161869
67,8,-9,7,18,44,81,74,-96,-37,101,-5,4,34,-44,50,5,10,-8,93,127,54,11,-4,54,-304,1,84,-6,16,-32,161870
31,2,-39,-9,-5,6,66,57,-134,-84,47,-10,-18,172,-55,27,6,16,-5,65,76,44,9,12,33,-369,6,76,6,19,69,161871
-42,2,-18,16,-2,-4,-16,-96,-37,-21,-142,-106,20,112,-49,-43,22,28,41,-2,-110,-11,19,75,-32,-613,64,100,45,49,183,161872
-16,17,-40,44,-5,-24,29,49,-105,-1,-130,-151,36,27,29,-10,40,27,66,56,-36,48,31,78,29,-564,52,106,62,71,69,161873
151,43,-75,50,16,-13,229,321,6,20,185,-27,-1,-87,97,134,-4,-18,-41,199,358,219,1,-42,167,-46,-65,31,-35,8,-240,161874
199,51,-75,33,30,0,281,139,39,9,235,112,29,83,22,185,-19,-26,-116,233,516,276,-24,-109,185,193,-106,-21,-95,-36,-300,161875
135,57,-31,35,39,8,215,203,43,-26,281,137,192,175,17,130,3,-10,-66,191,402,244,-5,-60,135,47,-46,20,-50,-2,-195,161876
95,30,-41,18,13,-5,178,294,-19,-33,321,147,57,26,88,87,-28,-36,-82,132,348,191,-29,-69,93,-35,-67,2,-68,-29,-142,161877
85,31,-24,8,13,12,162,237,-111,18,74,-74,-133,83,-10,93,4,15,-43,146,333,206,-14,-22,108,-65,-28,31,-32,16,-121,161878
130,43,-27,14,30,35,209,105,-96,-372,193,-141,-179,136,-29,146,-10,-3,-79,180,449,243,-25,-62,142,96,-68,-7,-74,-19,-134,161879
-140,-19,23,-15,-27,-11,-122,-150,49,-117,31,-102,-178,-78,-67,-97,17,38,76,-60,-148,-24,-2,89,-101,-672,91,81,31,60,358,161880
-313,-69,79,-34,-48,-13,-376,-341,21,-297,-373,-188,-25,-272,-102,-294,41,61,218,-228,-645,-231,28,213,-238,-1358,200,154,138,154,475,161881
-275,-64,71,-21,-25,0,-345,-227,28,-261,-287,-194,132,-147,-96,-280,56,67,250,-190,-670,-217,46,233,-178,-1396,207,177,171,187,370,161882
-35,-23,-9,10,1,21,-43,-25,-10,159,46,-46,-41,5,37,-61,23,9,122,14,-177,-15,11,102,51,-746,72,98,90,109,-44,161883
286,50,-62,48,75,65,354,391,-19,83,174,178,-212,249,116,235,-18,-54,-108,284,560,259,-14,-128,298,259,-134,-40,-75,-37,-491,161884
227,38,-51,28,46,43,296,282,-28,-57,259,75,-41,189,0,204,-2,-25,-86,248,516,231,-3,-102,242,241,-100,-26,-73,-21,-296,161885
182,22,-51,16,19,34,253,110,36,-92,201,14,-92,45,-23,156,-34,-49,-111,196,455,178,-31,-116,185,188,-123,-59,-112,-47,-235,161886
166,22,-53,19,19,30,238,182,154,31,238,50,44,-49,-61,163,-45,-51,-116,198,466,172,-35,-141,168,229,-131,-69,-118,-44,-236,161887
116,17,-45,17,8,7,166,97,51,-7,108,86,20,-79,30,142,-11,-19,-75,180,378,136,-8,-87,133,126,-73,-27,-69,-13,-133,161888
69,8,-42,-1,-6,-4,111,-18,29,25,-12,-21,37,-125,-51,91,-23,-33,-96,134,297,89,-32,-88,84,35,-64,-41,-77,-24,-113,161889
167,37,-61,15,19,8,249,202,-44,97,66,34,4,32,36,181,-36,-53,-161,215,535,185,-50,-158,170,357,-136,-99,-129,-55,-248,161890
306,81,-76,40,43,31,412,289,-28,71,191,168,-13,273,107,313,-45,-69,-226,330,852,312,-69,-222,276,798,-203,-145,-178,-85,-419,161891
444,104,-95,19,72,51,528,316,-106,11,303,213,-44,294,86,421,-84,-113,-329,427,1187,437,-104,-330,356,1298,-308,-219,-278,-158,-689,161892
260,57,-27,-25,38,43,268,237,-15,-165,78,82,113,98,-53,263,-42,-55,-183,270,793,274,-87,-184,177,802,-163,-130,-185,-73,-276,161893
126,15,-2,-41,12,35,105,157,-33,-49,-119,-26,99,164,-31,150,-26,-28,-94,175,516,179,-66,-89,85,426,-65,-68,-102,-4,-141,161894
211,37,-32,-26,34,40,174,-21,-174,-101,-213,-29,-39,61,-17,212,-66,-74,-197,228,718,262,-107,-187,162,704,-157,-144,-175,-69,-309,161895
178,32,-18,-10,35,33,123,-119,-64,83,62,-1,-145,-80,-18,170,-50,-58,-168,180,621,234,-99,-149,105,584,-129,-126,-157,-50,-226,161896
197,36,-13,0,26,45,171,1,-113,-77,161,54,-101,-60,-13,195,-55,-63,-170,194,690,278,-89,-164,142,678,-142,-118,-156,-56,-267,161897
196,32,-12,1,35,47,159,136,-83,-143,124,-26,74,-157,-1,183,-71,-80,-179,181,676,265,-111,-175,112,657,-159,-125,-175,-72,-304,161898
426,71,-72,1,76,58,425,308,-183,238,272,136,-16,149,74,381,-119,-155,-340,372,1192,473,-158,-347,302,1386,-323,-232,-298,-169,-725,161899
1171,243,-205,69,229,169,1281,747,-262,270,752,408,-296,526,269,1038,-240,-328,-859,981,2878,1092,-276,-882,877,3766,-830,-566,-695,-507,-1878,161900
1321,279,-249,47,221,159,1450,591,-248,-54,818,453,-195,527,236,1222,-274,-344,-1040,1100,3399,1211,-324,-1029,925,4603,-952,-658,-841,-634,-2026,161901
1025,245,-159,27,159,122,1117,426,-235,-53,480,187,-8,561,126,1024,-191,-224,-830,885,2875,964,-248,-790,665,3983,-722,-507,-691,-487,-1381,161902
455,130,-36,-36,42,29,468,78,-223,71,203,-32,-46,7,45,549,-122,-86,-492,408,1661,436,-210,-408,179,2427,-355,-312,-438,-263,-396,161903
48,39,34,-68,-42,-39,16,-99,-9,141,-60,-138,-7,-366,23,192,-39,23,-149,104,680,73,-143,-87,-92,1108,-45,-110,-166,-32,165,161904
52,44,21,-45,-31,-29,43,-36,15,-6,73,-133,159,-420,-78,178,-30,3,-90,120,601,59,-105,-69,-41,996,-37,-86,-126,0,32,161905
64,55,34,-29,-16,-24,61,-38,63,-3,-312,-163,90,-216,-61,185,-19,9,-62,135,562,39,-104,-58,-11,947,-23,-72,-101,15,36,161906
98,54,18,-24,-12,-17,86,-98,73,0,-81,-159,22,-30,-56,201,-32,3,-96,155,581,37,-126,-88,17,991,-46,-108,-125,-4,-35,161907
105,43,11,-32,-19,-25,79,-125,-17,-60,130,-81,81,-42,13,197,-39,-11,-104,148,567,32,-125,-92,41,991,-62,-116,-123,-12,-174,161908
128,32,-7,-36,-17,-24,103,9,58,-23,232,-62,171,-158,19,215,-47,-22,-103,166,631,63,-113,-105,71,1069,-80,-112,-132,-13,-204,161909
152,37,-4,-33,-11,-12,140,-59,46,7,42,-9,178,160,86,245,-24,-6,-114,206,688,109,-84,-113,92,1157,-86,-122,-122,-6,-150,161910
252,48,-35,-29,15,-5,267,111,6,-146,403,6,112,116,17,338,-39,-45,-198,297,922,211,-118,-204,178,1505,-172,-178,-187,-50,-414,161911
569,120,-81,-6,84,73,616,279,-186,-203,553,193,37,195,10,616,-127,-147,-458,530,1655,490,-192,-450,407,2530,-413,-340,-376,-214,-941,161912
346,74,-15,-45,38,53,305,217,-124,-83,272,27,-17,11,-60,404,-123,-102,-349,301,1215,299,-202,-317,155,1964,-267,-272,-304,-158,-462,161913
57,11,42,-54,-10,-2,-31,-32,87,-103,3,-64,-52,-186,-11,177,-13,17,-80,102,594,134,-101,-47,-35,1067,-21,-103,-90,28,-11,161914
148,35,11,-48,-2,9,90,-39,27,-11,-55,-23,-58,-118,29,250,-23,-15,-106,195,795,281,-94,-106,68,1305,-94,-132,-112,-3,-104,161915
177,36,7,-56,-1,20,100,11,-21,1,-140,-50,79,-174,-40,243,-65,-61,-183,176,874,313,-131,-179,65,1401,-163,-190,-178,-55,-197,161916
238,57,20,-38,19,27,166,150,11,75,-33,-99,54,32,48,300,-63,-61,-188,221,1003,384,-118,-188,120,1569,-177,-180,-190,-70,-222,161917
270,56,-17,-33,14,7,226,253,8,333,220,23,147,46,130,349,-65,-73,-206,259,1105,433,-118,-214,168,1725,-189,-183,-204,-78,-315,161918
232,56,-12,-37,3,-8,190,182,62,165,179,-6,252,-7,44,321,-66,-53,-206,231,1039,384,-129,-197,137,1667,-170,-186,-194,-65,-345,161919
588,125,-85,-9,77,34,603,398,-94,132,383,209,168,202,100,628,-125,-138,-434,533,1803,652,-174,-439,434,2753,-409,-334,-369,-206,-974,161920
751,165,-124,-13,102,40,818,531,-211,-111,409,274,-152,265,87,814,-148,-172,-581,675,2251,767,-209,-576,544,3443,-528,-411,-488,-311,-1147,161921
764,186,-114,-4,105,54,851,559,-265,-74,494,290,-44,137,83,847,-169,-185,-659,690,2379,744,-243,-638,517,3690,-570,-465,-544,-363,-1178,161922
301,85,-17,-72,4,-11,297,121,-188,-144,20,22,-3,11,-76,431,-134,-92,-413,280,1383,274,-235,-372,88,2445,-303,-311,-386,-224,-383,161923
-7,13,42,-93,-54,-53,-76,-236,-148,-218,-196,-242,56,-107,-125,122,-87,-21,-160,3,560,-52,-198,-108,-147,1369,-79,-166,-187,-53,140,161924
-1,13,45,-81,-50,-58,-41,-179,7,-275,-376,-324,14,-131,-136,123,-74,-18,-125,15,498,-58,-163,-83,-107,1284,-69,-145,-149,-26,51,161925
40,38,47,-41,-21,-44,6,-194,66,-18,126,-150,149,-276,-50,169,-29,12,-45,76,507,-11,-106,-33,-26,1280,-14,-76,-85,24,16,161926
50,32,28,-45,-32,-51,-13,-153,6,-92,-103,-81,124,-115,59,164,-46,-1,-74,64,493,-34,-134,-53,-23,1262,-39,-98,-103,14,13,161927
53,30,34,-43,-26,-38,-21,-73,11,-71,-17,-47,134,1,32,159,-28,13,-69,57,471,-20,-117,-45,-8,1226,-26,-94,-85,28,37,161928
65,42,38,-38,-11,-29,4,-70,73,15,-30,-93,86,-38,25,198,16,43,-21,103,514,43,-62,-14,47,1256,4,-61,-45,50,6,161929
27,30,37,-36,-19,-32,-21,-181,15,-20,33,-101,-113,-91,2,165,4,31,-10,72,436,21,-66,-10,11,1150,2,-51,-36,54,-1,161930
-116,-23,67,-55,-50,-55,-206,-148,52,-34,-312,-79,57,-247,12,-3,-26,25,44,-96,70,-133,-95,58,-144,666,67,-28,-12,68,136,161931
-196,-44,89,-59,-58,-47,-315,-30,37,-93,-318,-134,-11,-233,-66,-90,-1,44,119,-180,-182,-209,-90,127,-208,304,134,25,54,125,299,161932
-52,-8,65,-24,-18,-11,-131,-242,57,-61,-85,-95,40,-174,-67,26,-5,20,36,-54,80,-71,-76,52,-70,632,46,-28,9,80,59,161933
23,4,32,-20,-10,1,-26,-146,-83,-95,67,-136,97,-57,-65,105,-28,-4,-47,15,292,11,-80,-40,-3,922,-32,-79,-51,3,-15,161934
59,14,38,-17,3,5,10,-106,-98,-41,77,-66,138,85,-52,160,18,37,15,54,366,77,-22,-7,56,986,0,-31,-3,47,20,161935
32,24,30,-18,-12,-34,11,-149,-54,-41,-45,-89,109,-147,63,185,47,77,45,60,369,83,6,35,67,975,40,3,25,76,35,161936
44,38,30,-28,1,-31,17,-84,2,-8,-89,-131,32,-78,23,185,36,62,5,81,402,90,-16,7,74,1032,16,-23,2,51,-42,161937
1,13,23,-45,-18,-36,-68,-104,-3,85,-133,-93,186,-156,-42,105,-11,-3,-47,-4,274,0,-73,-39,-8,891,-31,-75,-44,-8,-27,161938
81,22,37,-32,12,9,-11,-33,155,162,-113,-36,171,-56,10,103,-58,-63,-109,8,346,2,-120,-116,7,1022,-99,-133,-122,-68,-145,161939
0,-3,46,-40,-23,-9,-91,136,137,82,-3,-29,186,-85,9,39,-44,-26,-52,-53,169,-64,-99,-56,-64,790,-45,-87,-75,-23,-99,161940
-70,1,57,-23,-34,-31,-124,61,125,126,50,-128,226,-110,16,27,15,40,44,-66,42,-76,-42,45,-74,585,58,-12,24,60,121,161941
-119,-12,51,-21,-39,-43,-172,-9,82,-156,-74,-138,110,-150,-40,-5,44,75,101,-82,-57,-85,-17,104,-80,421,118,32,80,102,199,161942
4,17,35,-2,-10,-25,-45,10,90,-166,-76,-131,-40,-107,-37,77,26,44,36,0,170,20,-16,29,9,693,32,3,28,54,27,161943
-5,-6,5,-19,-26,-37,-44,94,32,-254,-213,-106,1,36,-41,48,-18,4,-3,-37,157,-8,-59,-18,-40,689,-15,-32,-23,6,-73,161944
22,2,13,-13,4,-12,-9,-42,-21,-286,10,-58,-159,92,50,69,-15,0,-26,-28,212,25,-53,-40,-23,748,-31,-46,-34,-1,-56,161945
-14,2,27,-5,-7,-34,-55,-46,32,-133,69,-10,116,-39,92,61,26,33,27,-35,157,30,-12,25,-37,629,29,0,16,53,68,161946
-5,18,25,4,-3,-42,-39,39,63,52,-101,51,-1,-33,93,55,16,29,18,-20,171,40,-15,22,-32,643,31,5,14,49,26,161947
12,6,24,-12,3,-29,-52,4,48,27,-6,-30,-30,-28,-13,49,-24,-3,-34,-36,196,26,-52,-32,-39,679,-20,-40,-38,3,-31,161948
-10,-2,46,-26,7,-11,-102,94,78,-60,-76,-45,-23,-4,15,21,-34,-8,-27,-63,140,-9,-61,-39,-72,602,-32,-47,-51,-18,-4,161949
-20,-13,24,-31,-21,-32,-87,84,38,-146,-53,42,3,-24,-55,13,-44,-34,-27,-67,121,-24,-71,-53,-73,595,-42,-57,-60,-32,-36,161950
-42,-1,43,-26,-28,-39,-90,-44,38,-26,-52,18,111,-61,-28,33,5,16,17,-48,95,-16,-26,0,-48,567,18,-4,-7,21,33,161951
-122,-16,40,-33,-39,-63,-150,-11,-31,71,-101,-21,15,-124,7,6,36,62,99,-70,-36,-61,10,77,-64,374,86,58,65,80,171,161952
-26,-11,14,-32,-8,-40,-64,0,-61,-42,-30,18,-4,-12,-10,78,13,36,27,-1,132,-9,-6,7,10,617,25,12,36,39,61,161953
-11,-4,39,-27,1,-18,-82,-263,64,27,17,-47,111,-8,-32,55,14,34,14,-33,78,-48,-10,4,-11,572,31,11,38,36,98,161954
-47,-3,27,-18,-17,-33,-62,-75,92,39,-61,17,3,-161,4,31,16,30,31,-49,8,-98,-10,17,-41,485,35,19,34,34,0,161955
-29,-6,4,-17,-23,-37,-25,10,38,44,-141,-30,13,-165,9,51,5,21,13,-31,27,-101,-24,-12,-25,528,2,2,6,19,-21,161956
-104,-13,39,-19,-20,-34,-151,-131,38,248,42,-116,-65,-43,-54,-31,23,45,66,-106,-185,-189,-12,55,-102,246,70,35,47,57,119,161957
-76,-9,30,-8,-13,-34,-112,-245,72,-48,-23,-33,69,3,-15,-21,32,38,75,-81,-165,-168,1,50,-63,277,70,38,59,52,46,161958
31,9,9,7,-3,-22,16,84,-10,-59,-34,34,186,-17,-43,90,29,27,22,25,90,-42,3,-20,32,591,1,3,25,12,-44,161959
-24,-3,22,-10,-12,-18,-63,-151,-34,-38,-227,-38,75,-28,-40,42,27,24,26,-33,24,-57,2,-3,-26,467,18,10,24,24,57,161960
-161,-12,53,-11,-35,-51,-204,-175,0,39,-48,-86,-36,126,-41,-69,53,82,124,-135,-262,-142,15,119,-123,43,133,84,108,102,324,161961
-245,-53,42,-25,-67,-85,-278,-204,29,101,-57,-31,-85,-188,-36,-146,55,86,175,-209,-454,-200,23,171,-181,-240,179,117,152,120,419,161962
-162,-25,44,-1,-17,-44,-194,-247,1,56,-134,-68,16,-200,-35,-89,61,71,167,-125,-323,-120,48,137,-103,-103,152,113,146,119,249,161963
-88,-28,18,-19,-13,-20,-119,-148,-25,-45,-106,-46,-15,51,-70,-20,38,39,78,-68,-124,-42,23,53,-36,159,65,56,72,71,84,161964
-91,-31,27,-30,-11,-13,-179,-124,51,-315,-114,-54,133,167,-72,-47,2,11,32,-101,-159,-76,-21,28,-80,114,32,25,35,19,41,161965
-109,-38,22,-39,-20,-17,-233,-5,87,-47,-145,-29,10,35,-46,-90,-26,-14,24,-137,-198,-114,-45,7,-117,46,26,13,22,5,39,161966
-68,-24,41,-31,-5,3,-197,92,-126,-19,-2,-105,-77,-29,-74,-39,16,16,57,-86,-115,-63,10,30,-54,130,44,47,41,36,11,161967
-27,-22,40,-34,9,30,-160,25,0,116,80,-159,-57,-66,-52,-10,1,2,37,-66,-43,-25,-1,6,-37,227,18,26,24,20,5,161968
-51,-29,43,-31,1,25,-149,58,160,44,-78,-151,-90,-154,-23,-41,2,6,57,-96,-125,-61,9,27,-67,114,36,41,41,35,66,161969
-110,-23,58,1,-2,17,-145,-154,42,22,-70,-80,-52,-198,-40,-86,27,47,120,-139,-279,-116,27,96,-111,-103,97,84,88,67,99,161970
-214,-26,70,17,-18,-8,-240,-247,-46,56,-273,-137,-118,-316,-106,-201,30,52,182,-237,-536,-219,32,147,-204,-455,147,112,123,83,304,161971
-561,-103,130,-8,-96,-88,-622,-220,147,-12,-566,-253,101,-464,-78,-512,91,139,416,-517,-1314,-522,90,394,-456,-1537,382,271,309,237,916,161972
-442,-81,76,15,-77,-97,-422,-114,170,-11,-229,-111,133,-166,28,-383,96,120,391,-365,-1085,-386,118,344,-267,-1280,322,253,309,237,535,161973
-37,15,5,64,13,-26,48,11,152,79,174,-18,37,56,59,-24,43,42,119,-30,-229,-64,73,65,57,-111,65,90,107,69,-26,161974
-16,14,5,47,21,-6,64,67,118,-22,233,34,76,209,46,-28,18,10,79,-30,-181,-73,45,26,34,-14,29,59,50,32,-72,161975
-24,12,-1,34,10,-5,55,76,-3,-97,-23,77,56,404,106,-28,4,1,57,-40,-170,-83,29,16,21,28,29,46,41,22,-29,161976
30,15,-23,15,21,-7,97,1,-54,51,90,102,24,152,-10,26,-9,-5,-40,16,-26,-50,-1,-56,48,239,-29,-11,-9,-20,-77,161977
67,10,-29,-2,13,-9,127,82,51,56,-31,87,-26,69,-75,79,0,2,-65,64,107,6,13,-79,99,426,-67,-30,-26,-45,-88,161978
-197,-37,33,-25,-49,-40,-178,-153,77,-234,-114,24,-136,-53,-123,-127,52,88,125,-153,-427,-202,66,122,-112,-299,138,108,113,74,468,161979
-1501,-306,277,-117,-305,-240,-1657,-1047,263,-250,-1186,-633,198,-793,-393,-1245,288,440,1066,-1205,-3336,-1298,268,1098,-1117,-4336,1074,707,834,675,2576,161980
-1837,-374,330,-88,-343,-256,-2032,-1359,370,-218,-1395,-707,367,-904,-433,-1596,386,518,1453,-1451,-4369,-1565,400,1424,-1245,-5930,1350,926,1136,934,2860,161981
-1564,-336,274,-37,-263,-194,-1729,-962,461,0,-842,-509,7,-630,-264,-1453,334,400,1305,-1253,-4034,-1359,372,1244,-980,-5643,1163,813,1041,845,2216,161982
-670,-165,114,70,-58,-30,-713,-310,249,143,-250,-133,-12,-67,-62,-747,182,131,713,-552,-2210,-597,267,602,-231,-3304,533,443,607,461,547,161983
281,34,-60,121,138,143,372,176,-44,202,262,276,-75,223,128,69,-24,-145,-31,178,-7,215,83,-151,443,-305,-172,-23,19,-39,-779,161984
288,46,-67,93,109,109,382,204,-66,398,315,329,-212,232,104,122,-33,-101,-128,185,212,255,40,-180,374,29,-190,-46,-53,-91,-513,161985
230,34,-63,74,89,83,314,81,15,220,317,152,-210,231,67,102,-31,-82,-132,141,207,227,33,-160,286,49,-164,-40,-65,-99,-403,161986
133,6,-49,46,52,49,225,184,41,-58,169,84,125,172,14,44,-12,-56,-62,74,85,174,52,-102,192,-98,-100,1,-26,-73,-218,161987
63,10,-39,55,34,29,181,210,-9,1,215,140,-29,206,8,5,11,-17,9,46,-20,138,78,-26,140,-248,-37,53,18,-16,-17,161988
-65,-8,-20,37,0,-8,16,45,-25,34,-22,69,-47,94,-29,-107,11,9,52,-63,-280,12,55,40,20,-569,35,76,63,24,196,161989
-641,-120,101,-12,-105,-87,-692,-196,52,99,-617,-312,61,-295,-103,-610,115,167,452,-540,-1566,-496,146,476,-433,-2340,454,336,379,290,1077,161990
-895,-166,164,-16,-138,-92,-987,-630,156,155,-701,-393,-71,-307,-91,-841,201,258,729,-712,-2244,-715,245,724,-559,-3354,682,509,594,472,1489,161991
-1073,-212,179,-17,-172,-121,-1136,-879,336,141,-887,-390,-93,-202,-135,-996,255,314,922,-811,-2719,-857,308,878,-628,-4077,826,622,745,592,1717,161992
-540,-114,59,47,-51,-31,-501,-122,211,37,-370,13,-18,273,-15,-552,196,155,608,-364,-1684,-426,261,522,-142,-2737,463,413,512,393,581,161993
220,26,-80,82,106,112,324,224,-49,11,91,317,-126,634,44,51,-15,-113,-44,172,-43,121,81,-129,358,-430,-151,-8,5,-47,-528,161994
223,11,-77,56,96,101,277,244,-59,22,145,206,-243,339,16,48,-74,-142,-175,117,65,54,4,-209,256,-190,-222,-86,-104,-144,-474,161995
224,19,-51,74,95,91,236,328,11,65,190,81,-300,262,75,53,-59,-111,-161,125,86,40,0,-181,219,-116,-190,-75,-89,-142,-422,161996
214,23,-64,59,77,66,257,277,-24,131,-61,185,-89,302,131,92,-27,-62,-106,142,136,55,26,-140,224,-34,-150,-43,-68,-111,-408,161997
164,23,-41,53,58,45,214,189,-71,-31,161,191,-210,156,64,64,3,-14,-53,126,65,30,43,-85,183,-113,-83,1,-21,-62,-266,161998
-5,-17,-27,13,13,5,24,-171,-107,11,60,32,-156,46,62,-67,4,-6,-2,-9,-226,-92,45,-6,41,-500,-15,34,20,-26,87,161999
-972,-194,150,-52,-185,-142,-1073,-698,160,100,-648,-397,51,-394,-145,-885,185,266,670,-789,-2345,-885,192,709,-719,-3433,686,473,537,413,1766,162000
-1395,-289,224,-48,-259,-188,-1543,-767,242,51,-802,-480,252,-468,-181,-1307,300,376,1105,-1104,-3489,-1211,318,1105,-947,-5139,1038,725,887,700,2220,162001
-1131,-251,164,2,-180,-126,-1227,-687,45,49,-485,-286,122,-199,-194,-1121,268,299,1010,-893,-3103,-975,322,962,-651,-4756,882,660,821,652,1629,162002
-385,-112,2,74,-23,2,-353,-36,-5,171,72,67,-115,184,31,-480,149,88,513,-273,-1506,-303,238,430,-17,-2688,356,337,450,338,264,162003
286,33,-92,114,126,125,389,573,-93,-2,523,308,-106,407,154,85,-7,-125,-67,237,68,261,100,-145,432,-539,-183,-27,-11,-62,-801,162004
278,49,-68,95,126,135,368,454,-85,245,359,312,53,203,156,96,-21,-111,-120,208,185,250,61,-170,351,-335,-184,-46,-72,-108,-551,162005
195,33,-46,68,83,97,294,154,-144,13,1,163,-105,156,72,50,2,-74,-68,142,100,202,72,-104,262,-430,-131,-14,-38,-80,-315,162006
163,20,-66,58,58,65,302,263,-127,98,48,165,-187,180,89,71,16,-42,-58,153,138,211,78,-90,257,-352,-111,-3,-22,-67,-252,162007
128,44,-70,72,44,34,305,221,-113,58,56,160,-154,271,55,73,37,-12,-24,149,118,193,90,-54,229,-362,-59,22,7,-22,-157,162008
103,47,-50,71,42,35,239,44,-86,-39,286,243,-143,206,54,24,25,-16,-32,104,42,139,61,-39,168,-429,-66,19,-2,-23,-178,162009
276,55,-90,51,73,71,364,263,-175,33,176,246,7,382,90,148,-46,-103,-215,214,430,245,-15,-217,279,131,-251,-125,-149,-157,-517,162010
406,73,-109,25,91,92,496,421,-159,-25,330,212,22,511,69,297,-74,-142,-331,334,810,367,-37,-338,364,674,-355,-194,-232,-233,-669,162011
517,102,-120,42,107,100,613,219,-81,-35,366,277,-50,478,69,413,-64,-125,-371,429,1082,468,-19,-371,440,1083,-373,-203,-260,-251,-788,162012
312,81,-88,36,59,52,375,54,-49,-41,40,110,-112,205,48,251,-29,-60,-219,262,686,282,2,-220,255,614,-213,-96,-167,-155,-377,162013
92,25,-50,14,7,4,133,153,-123,-49,64,69,-107,-48,66,65,-10,-14,-71,86,212,93,5,-65,85,-12,-81,-25,-68,-63,-43,162014
126,21,-37,5,21,18,158,117,-68,-1,201,89,-4,36,83,83,-46,-47,-146,115,259,93,-26,-127,78,83,-142,-82,-113,-110,-99,162015
77,6,-20,-15,7,17,91,-23,-12,5,149,102,2,20,13,41,-39,-34,-101,81,133,47,-14,-78,46,-72,-106,-44,-66,-87,-93,162016
7,-5,-2,-22,-6,18,5,30,22,-151,139,53,50,-167,16,-28,-26,-29,-15,5,-49,-25,-2,-26,-11,-305,-51,-2,-24,-47,14,162017
41,-3,-6,-14,2,26,41,-10,83,-131,-61,27,-107,-254,29,-11,-46,-47,-42,36,17,-5,-18,-56,4,-223,-85,-31,-56,-63,-86,162018
235,44,-76,12,30,29,289,148,-42,-33,57,165,-100,-53,144,198,-49,-70,-161,219,480,209,-33,-175,194,394,-195,-100,-119,-114,-401,162019
975,194,-230,67,184,122,1145,656,-236,-58,668,545,-131,441,288,864,-153,-237,-659,847,2176,870,-121,-697,786,2727,-693,-415,-491,-436,-1585,162020
1478,312,-296,78,280,198,1689,822,-279,94,1142,708,-377,550,293,1306,-271,-381,-1105,1215,3448,1281,-250,-1116,1066,4578,-1079,-689,-849,-738,-2256,162021
1327,298,-241,44,228,164,1498,885,-224,-48,874,497,-276,596,264,1204,-292,-365,-1095,1052,3306,1141,-300,-1087,837,4535,-1018,-692,-886,-754,-1824,162022
455,109,-80,-78,28,0,497,286,-42,-182,85,120,19,69,47,482,-189,-152,-579,339,1553,413,-239,-519,94,2237,-467,-372,-508,-434,-319,162023
-187,6,79,-82,-88,-80,-244,-324,163,5,-508,-137,381,-242,-37,-72,-8,85,-9,-149,11,-107,-63,63,-336,94,77,-12,-38,-19,565,162024
-198,-7,63,-52,-87,-78,-237,-183,55,19,-345,-147,172,-146,-21,-74,40,109,103,-123,-109,-86,3,127,-251,-128,134,56,56,78,471,162025
-168,-15,39,-43,-71,-61,-168,-124,-17,-245,-83,-60,52,-11,-54,-59,30,69,95,-95,-86,-49,-4,91,-186,-128,90,47,49,55,346,162026
-121,-2,50,-29,-35,-18,-95,-298,-20,-129,-12,17,88,-64,-1,-48,12,49,81,-83,-60,-23,-14,68,-143,-119,54,20,37,25,199,162027
-93,-5,44,-20,-29,-23,-65,-351,22,-38,-163,16,169,-276,-61,-38,11,37,64,-73,-43,-7,-19,44,-124,-100,25,3,24,22,146,162028
15,21,5,1,-7,-7,57,-375,-77,104,-228,11,211,-52,-50,63,13,19,19,45,191,100,-11,-6,-3,203,-21,-17,-3,4,-38,162029
365,84,-52,18,67,71,416,-23,-72,15,287,42,-117,79,90,353,-72,-84,-243,316,972,384,-78,-291,270,1276,-278,-180,-210,-167,-589,162030
512,105,-76,7,93,86,564,448,38,-4,434,96,-139,341,163,474,-119,-140,-397,397,1325,488,-124,-422,328,1818,-403,-283,-329,-267,-807,162031
787,155,-134,10,131,109,813,472,-135,98,521,211,-54,178,184,669,-201,-244,-644,558,1908,647,-224,-663,458,2678,-626,-447,-536,-441,-1257,162032
418,82,-42,-32,49,58,369,131,-190,112,39,72,221,-285,68,349,-170,-162,-466,230,1161,290,-206,-444,91,1761,-399,-319,-412,-336,-450,162033
-192,-27,43,-69,-82,-74,-272,-163,-118,17,-320,-13,109,-144,-65,-107,4,57,53,-166,-140,-178,-49,84,-293,-6,79,13,-2,17,374,162034
-120,2,31,-43,-56,-63,-173,44,43,-62,-61,-110,63,-45,-42,-14,50,89,97,-55,-62,-116,5,101,-142,76,96,48,62,71,249,162035
-106,-9,64,-34,-37,-44,-173,81,87,12,88,-55,112,-110,-51,-13,69,97,142,-45,-107,-135,27,129,-112,-9,115,79,88,92,271,162036
15,2,31,-30,-13,-5,-39,3,39,-293,76,-31,13,14,-50,67,15,25,52,35,105,-58,-2,19,-37,295,7,3,3,20,24,162037
11,21,33,-21,0,23,-27,46,-55,-41,97,-93,85,91,35,51,-12,4,1,10,69,-89,-21,-8,-80,257,-11,-20,-23,-1,38,162038
95,35,21,-6,24,37,65,19,-1,-19,110,-41,83,35,18,98,-36,-17,-66,57,217,-44,-36,-76,-30,455,-74,-64,-64,-53,-222,162039
906,184,-157,43,183,140,990,590,-117,41,668,265,-23,426,164,785,-191,-258,-647,702,2024,666,-178,-694,603,2935,-678,-445,-514,-430,-1638,162040
1295,262,-218,43,246,200,1427,888,-327,107,803,384,-117,372,303,1140,-311,-392,-1026,986,3079,1011,-304,-1063,786,4482,-1004,-681,-836,-699,-2061,162041
1053,224,-159,-5,176,144,1116,389,-204,-33,373,139,56,158,170,948,-297,-325,-947,761,2721,825,-328,-942,505,4089,-865,-625,-793,-651,-1556,162042
336,84,-19,-84,18,14,262,79,-25,-120,-72,-58,233,-173,-58,356,-176,-113,-476,170,1225,247,-237,-420,-96,2115,-370,-330,-422,-341,-217,162043
-156,-10,64,-75,-78,-82,-256,-303,138,76,-59,-194,61,-329,-33,-36,-19,64,18,-164,100,-90,-80,37,-384,517,59,-26,-42,-9,582,162044
-160,-6,48,-50,-81,-96,-193,-228,127,4,-59,-100,-62,-254,69,-39,19,79,100,-131,12,-48,-27,103,-300,346,115,29,44,63,432,162045
-120,9,44,-22,-61,-77,-129,-39,21,-131,-154,2,50,-168,32,-8,33,86,76,-101,37,4,-3,91,-242,337,101,19,47,62,299,162046
-150,-12,44,-36,-57,-76,-194,-235,121,13,-65,-11,9,-281,-19,-63,17,52,67,-143,-65,-32,-31,80,-274,176,93,-2,38,52,307,162047
-169,-30,51,-47,-60,-68,-229,-141,23,-40,-137,-85,-80,-303,-30,-107,-3,29,93,-176,-146,-60,-46,82,-274,41,95,5,49,42,228,162048
-137,-15,55,-21,-49,-45,-196,-184,-49,-47,-115,-39,-59,-131,4,-81,0,32,92,-143,-109,-29,-35,79,-229,60,93,11,52,40,183,162049
-218,-54,38,-42,-86,-87,-298,-167,66,-117,-55,-162,42,-70,-57,-143,18,53,155,-200,-292,-95,-23,142,-274,-210,151,66,100,83,363,162050
-158,-46,35,-38,-63,-67,-239,-201,47,-34,75,-64,193,2,-108,-99,27,39,138,-144,-225,-70,-21,121,-204,-108,123,47,92,86,235,162051
-200,-33,67,-30,-55,-44,-265,-273,15,21,30,-53,210,-5,-94,-127,34,51,149,-166,-321,-129,-4,143,-216,-236,153,57,109,104,275,162052
-175,-40,45,-33,-51,-38,-224,-180,58,62,-14,-82,-124,-28,-93,-104,23,31,123,-147,-288,-132,8,103,-181,-204,108,29,89,74,193,162053
-57,-5,32,2,-20,-17,-81,2,-9,-25,115,-9,-216,-96,-79,5,32,24,88,-46,-70,-65,15,57,-65,111,68,28,60,57,60,162054
-31,7,26,2,-19,-24,-35,-40,-3,-11,21,-97,5,88,-20,74,55,49,104,23,35,-63,38,66,4,256,86,49,76,71,44,162055
-44,-19,15,-29,-32,-39,-98,-67,1,-62,17,-90,153,-44,-83,31,4,0,43,-14,-15,-139,-10,2,-54,234,30,-6,8,7,9,162056
-8,-19,15,-30,-18,-18,-119,45,-72,-3,12,-75,44,75,1,-4,-49,-55,-42,-56,-40,-192,-67,-61,-91,249,-34,-61,-49,-46,-111,162057
50,7,31,0,23,26,-44,-109,-110,-223,-65,-78,60,180,44,22,-51,-57,-43,-36,15,-181,-62,-59,-76,330,-38,-59,-53,-45,-147,162058
42,9,15,7,17,7,0,6,-44,82,-22,-139,50,-168,-17,-1,-59,-68,-34,-51,-11,-194,-65,-69,-113,309,-47,-75,-73,-61,-111,162059
-112,-7,48,0,-18,-24,-132,-81,96,34,53,-177,41,-202,4,-117,-10,-3,73,-156,-305,-252,-24,53,-226,-121,68,5,16,29,184,162060
-254,-41,82,12,-34,-41,-288,-114,238,117,-12,-143,92,-78,-57,-227,36,55,170,-256,-627,-313,11,178,-321,-604,196,78,126,112,424,162061
-188,-36,55,12,-22,-27,-212,-9,150,-7,-242,-83,276,-105,3,-167,52,48,158,-174,-482,-196,39,149,-243,-479,152,71,131,103,317,162062
-127,-19,28,5,-20,-19,-110,-25,159,-56,-161,-43,92,-94,18,-72,64,64,150,-76,-287,-57,57,130,-155,-255,129,77,128,103,199,162063
-78,-21,-1,2,-22,-32,-52,-32,86,-118,233,86,-133,-139,-50,-20,63,47,108,-30,-140,21,58,96,-102,-95,98,67,95,83,145,162064
-36,-20,-5,-6,-11,-27,-43,-70,52,-2,130,-86,-37,-61,-101,-30,2,-23,28,-43,-58,34,2,-2,-123,-2,15,-16,15,-11,-12,162065
-16,-10,0,-6,-3,-6,-43,145,-23,267,-12,-54,65,-89,-80,-35,-21,-28,-8,-41,-27,53,-32,-31,-134,50,-10,-46,-10,-21,-20,162066
8,4,27,16,18,15,-41,-15,-30,85,-75,20,68,58,-41,-26,-9,-19,-8,-29,-9,74,-11,-13,-126,51,7,-27,3,-1,-18,162067
8,-13,2,-17,7,11,-48,-81,65,80,24,-33,82,110,8,-25,-35,-45,-51,-31,29,80,-47,-41,-131,102,-32,-62,-36,-45,-84,162068
21,-8,5,-8,12,12,-18,-68,29,55,182,26,-112,-14,44,-5,-24,-40,-40,-15,54,87,-28,-44,-104,144,-22,-60,-23,-40,-14,162069
23,-1,20,9,24,-2,6,-48,94,-36,6,56,-101,-78,-35,11,-7,-13,-20,-7,41,75,0,-21,-100,138,6,-33,-7,-21,73,162070
-65,-13,23,24,9,-26,-108,36,87,-91,-20,3,-64,-201,-76,-82,15,16,61,-93,-195,-31,13,54,-169,-187,71,8,50,21,158,162071
-129,-24,30,9,-9,-31,-170,97,11,-58,-53,-45,84,-242,-80,-136,24,7,94,-146,-327,-102,19,93,-195,-363,85,25,63,35,189,162072
-120,-12,46,10,-22,-29,-134,-105,-20,-46,-122,-10,36,-215,-26,-124,24,21,100,-126,-319,-113,18,104,-164,-350,87,31,78,51,164,162073
1,25,23,33,-1,-8,34,34,-26,-11,-144,90,175,-206,46,-44,-24,-25,21,-43,-90,-73,-28,0,-70,-21,8,-22,3,-3,-51,162074
44,22,10,28,15,15,71,54,-48,11,-129,6,89,-39,21,-28,-48,-57,-12,-36,-51,-99,-50,-37,-59,62,-17,-57,-41,-33,-113,162075
-40,-6,7,5,-6,10,-12,76,-82,-13,-231,-68,-22,-179,-70,-80,-22,-8,5,-104,-207,-189,-29,9,-117,-128,26,-33,-2,9,94,162076
-72,-16,0,19,-12,-11,-39,-65,-64,-63,-206,-58,118,-278,-64,-84,8,13,35,-106,-259,-192,7,42,-110,-199,56,3,37,40,143,162077
-68,-1,2,26,-6,-19,-31,-89,52,160,-110,-18,31,-149,-36,-69,28,11,50,-91,-234,-166,22,56,-80,-174,70,23,50,35,130,162078
42,36,-3,31,25,21,83,166,-21,148,-36,61,-192,35,-9,25,5,-18,5,11,-11,-71,3,-1,7,116,23,-15,16,8,-156,162079
229,53,-25,23,58,45,256,175,-79,49,150,133,-179,175,59,178,-59,-83,-162,146,436,107,-44,-172,118,744,-149,-129,-132,-114,-375,162080
164,28,-15,5,38,25,170,-101,22,-47,-78,106,-37,68,20,156,-44,-48,-145,98,369,93,-41,-147,59,651,-119,-116,-124,-88,-300,162081
171,29,-15,6,44,22,190,136,20,54,44,47,-144,120,80,173,-31,-32,-167,140,441,146,-35,-145,64,733,-122,-111,-120,-91,-269,162082
44,24,6,5,18,4,71,-185,-1,-22,111,-63,-4,48,73,87,20,29,-36,63,214,78,21,-25,-11,405,-13,-22,-27,-25,71,162083
-67,3,21,-6,-11,-27,-47,-261,-6,55,-19,-107,-64,15,-12,7,50,63,81,-12,-22,13,54,80,-77,55,85,50,59,48,220,162084
-72,-8,24,-8,-15,-15,-79,-7,7,-261,-119,-109,-118,-78,-89,-38,9,16,39,-32,-77,-15,10,42,-103,-10,52,-5,28,20,138,162085
-76,-18,44,-24,-1,4,-122,-179,68,-101,-21,-189,3,-176,-94,-68,-5,4,22,-65,-142,-48,-22,28,-136,-111,50,-22,20,10,90,162086
-70,-17,26,-25,-5,-2,-112,-181,-9,-60,-14,-190,-62,-97,-87,-65,9,14,34,-60,-148,-44,-11,43,-131,-118,50,-8,29,30,108,162087
-36,-8,24,-12,-6,3,-69,49,-29,-60,52,-41,133,121,-21,-19,23,25,35,-19,-77,-2,20,45,-79,-38,47,12,37,29,98,162088
-104,-49,15,-53,-45,-33,-143,120,-118,-196,-80,-104,263,-22,-9,-76,16,15,47,-88,-211,-70,8,60,-133,-211,63,11,42,21,166,162089
-88,-34,28,-22,-12,-18,-142,18,-22,-86,-40,-58,223,-294,-56,-95,5,-3,41,-88,-245,-87,-6,41,-145,-258,57,-2,28,15,181,162090
-135,-37,43,5,-8,2,-230,-83,51,-8,-235,-88,33,-420,-66,-174,-6,20,80,-163,-425,-173,-8,85,-209,-519,98,23,52,38,238,162091
-312,-75,58,-9,-57,-40,-358,-46,95,39,-174,-258,-5,-63,-54,-281,38,82,217,-261,-768,-288,38,227,-293,-989,225,112,162,134,507,162092
