701,134,-135,21,126,111,783,360,-132,157,631,300,-63,312,164,599,-156,-199,-554,509,1504,423,-139,-553,476,1984,-520,-331,-421,-371,-1105,135892
667,137,-125,13,107,88,735,376,-146,279,350,318,83,230,135,603,-142,-166,-560,489,1573,481,-117,-543,432,2112,-500,-322,-430,-377,-936,135893
363,80,-85,-16,22,-1,430,297,-20,151,209,127,143,94,84,383,-86,-75,-371,280,1075,341,-83,-340,201,1428,-285,-200,-282,-247,-378,135894
-28,21,6,-30,-49,-55,-15,-61,32,95,162,-42,174,-197,14,58,1,48,-41,-1,254,94,-28,-5,-75,240,27,-9,-26,-20,279,135895
-75,-10,10,-49,-48,-39,-105,-89,-33,-133,-78,-141,78,-80,-19,-10,10,36,28,-48,94,90,-11,36,-93,-16,44,19,14,18,187,135896
-56,-23,14,-47,-41,-16,-107,-92,17,-56,-241,-180,236,-155,5,-26,0,11,8,-50,84,127,-27,14,-70,-46,5,-2,-6,-9,148,135897
-18,-1,21,-19,-28,-8,-68,-202,-1,69,-240,-97,132,-365,21,2,-3,16,-4,-29,125,182,-20,9,-41,-34,7,-5,0,2,79,135898
-25,11,33,-9,-16,-10,-59,-246,20,-24,36,-14,41,-296,37,13,25,45,34,-11,108,204,11,40,-24,-87,46,28,33,32,102,135899
-41,5,24,-11,-22,-15,-50,-137,42,61,106,-126,122,-146,-24,24,52,63,81,5,103,221,39,70,6,-110,73,69,63,55,117,135900
217,50,-50,6,13,13,254,67,-30,-7,302,45,-42,218,-24,219,-19,-26,-107,189,620,403,-36,-129,198,614,-122,-61,-76,-61,-360,135901
446,99,-91,32,73,55,504,417,-165,7,358,262,49,337,-29,402,-86,-93,-318,324,1114,531,-90,-326,326,1342,-301,-179,-228,-188,-661,135902
438,87,-75,11,76,66,478,327,-199,4,231,193,61,-44,-36,395,-101,-108,-348,292,1127,471,-92,-355,274,1437,-318,-206,-266,-229,-617,135903
249,37,-37,-29,24,39,245,96,-200,-166,151,-14,-115,-104,-52,231,-92,-90,-275,147,758,253,-103,-265,102,996,-230,-181,-231,-193,-314,135904
-44,-7,27,-37,-34,-8,-98,9,-48,-66,-202,-147,-19,-114,-4,-31,-45,-10,-55,-59,79,-54,-71,-32,-121,104,-16,-46,-65,-53,106,135905
4,5,27,-8,-8,14,-44,10,66,88,-32,-62,7,-174,-6,1,-59,-31,-63,-23,94,-89,-79,-59,-56,169,-38,-64,-59,-61,-35,135906
-58,-15,8,-25,-47,-24,-69,-43,18,-113,-233,-138,64,-272,-28,-22,-41,-6,-23,-53,-12,-186,-61,-21,-84,34,-18,-39,-34,-27,16,135907
-62,-12,3,-16,-49,-32,-26,-214,-56,-139,-52,-127,21,10,40,-4,-2,15,40,-15,-41,-190,-11,33,-49,-13,25,15,7,15,58,135908
10,-4,-14,-21,-25,-15,46,69,-139,-39,35,-65,24,72,63,20,-41,-36,-66,8,82,-175,-59,-72,-24,168,-63,-69,-72,-56,-72,135909
71,-1,-25,-35,-8,2,87,94,-40,-109,75,9,-76,24,0,80,-61,-50,-143,48,229,-123,-66,-133,10,359,-111,-104,-107,-93,-193,135910
251,53,-33,1,51,64,265,379,20,-3,249,132,-58,179,87,251,-32,-51,-184,202,598,78,-41,-192,172,854,-167,-122,-136,-115,-405,135911
561,110,-79,16,111,101,567,431,-60,78,473,201,134,350,197,493,-128,-146,-432,390,1271,355,-125,-435,360,1808,-407,-269,-331,-290,-880,135912
578,122,-72,12,101,80,572,389,-78,-6,373,197,216,288,127,511,-150,-140,-481,379,1354,401,-162,-459,330,1965,-420,-283,-362,-313,-826,135913
311,59,-44,-36,32,18,307,328,-115,42,292,161,120,168,-21,330,-94,-64,-322,205,908,258,-128,-271,136,1381,-238,-176,-247,-203,-350,135914
-41,-12,30,-53,-37,-33,-101,84,-23,-100,-97,-163,144,-63,-31,25,-25,20,-47,-37,164,4,-72,-10,-120,334,8,-34,-62,-34,164,135915
-98,-15,32,-55,-52,-42,-167,-31,47,-137,-154,-154,285,-103,-122,-42,-13,23,-4,-85,-3,-41,-63,23,-149,91,33,-18,-24,-3,233,135916
-76,-11,14,-44,-45,-32,-112,-182,82,-82,-166,-84,253,-33,-180,-13,5,28,8,-54,19,-2,-43,26,-99,108,27,6,-1,8,151,135917
-71,-10,0,-22,-37,-34,-99,-394,144,-51,-135,-57,28,-31,-120,-21,2,27,34,-60,-2,3,-30,37,-78,66,33,14,12,23,103,135918
-61,-6,27,-12,-19,-11,-103,-20,157,-20,-19,-5,-98,65,-37,-30,-7,23,8,-59,-15,-9,-52,23,-78,18,21,1,0,22,25,135919
-48,-19,37,-24,-24,-16,-109,40,203,-8,-7,-29,-5,-89,-34,-33,-13,4,12,-57,-27,-22,-49,8,-73,-2,12,-4,-9,14,62,135920
10,-11,6,-18,-17,-19,-41,243,32,-180,-19,-12,-79,-196,53,14,-23,-18,-25,-20,88,15,-43,-34,-29,173,-32,-30,-31,-29,-49,135921
169,31,-10,2,22,14,150,452,-55,-54,-95,44,-136,19,28,165,-34,-34,-104,115,413,149,-41,-122,101,650,-109,-70,-81,-65,-256,135922
295,65,-33,0,43,33,311,266,-64,-29,123,85,-194,180,117,296,-46,-52,-202,220,737,258,-69,-203,205,1109,-178,-117,-145,-118,-399,135923
167,53,-33,-17,3,-15,189,26,-9,-29,38,-70,-117,102,33,224,0,18,-115,159,557,193,-32,-105,131,871,-78,-45,-83,-67,-157,135924
-123,-7,7,-45,-70,-80,-120,-160,-87,-48,-207,-184,-11,-212,-62,23,67,104,108,-27,-6,-5,35,120,-65,83,134,92,76,88,301,135925
-56,6,9,-19,-38,-55,-48,-122,-85,-38,-104,-67,150,73,17,72,55,70,83,17,106,60,27,76,-3,194,90,61,58,71,128,135926
-20,-6,29,-27,-12,2,-41,-252,32,-57,-149,-114,136,-88,30,14,-31,-9,-25,-44,127,28,-59,-37,-53,220,-21,-30,-43,-26,-36,135927
60,-3,18,-23,8,28,41,32,25,14,24,-186,190,-223,23,34,-77,-69,-119,-16,248,60,-95,-125,-36,379,-121,-113,-120,-108,-205,135928
61,15,9,6,11,20,70,192,78,-7,-43,-108,-109,-164,13,73,-24,-17,-45,16,265,100,-37,-67,-3,371,-65,-52,-62,-51,-100,135929
76,27,-8,4,13,7,92,139,68,-110,121,-53,-211,-85,38,108,-10,-12,-44,38,330,142,-25,-54,33,445,-60,-49,-55,-42,-142,135930
210,49,-42,14,42,21,240,195,75,-154,15,114,-162,134,71,216,-53,-60,-167,147,619,258,-69,-161,133,871,-155,-119,-128,-107,-374,135931
573,124,-80,39,125,111,598,537,-92,-60,84,185,-94,162,105,482,-166,-175,-466,354,1338,475,-173,-471,338,1937,-446,-312,-364,-323,-942,135932
576,112,-77,17,103,96,566,387,-149,-46,311,130,-68,120,85,447,-242,-237,-562,297,1370,392,-264,-564,257,2079,-520,-399,-462,-414,-960,135933
419,95,-24,8,67,64,396,85,-59,-210,221,55,-153,153,92,357,-158,-127,-406,205,1081,279,-177,-389,155,1732,-357,-271,-343,-298,-554,135934
49,15,11,-29,-30,-34,15,-88,26,-122,88,-68,-50,48,-45,112,-41,9,-107,19,376,27,-73,-86,-61,783,-70,-73,-111,-80,6,135935
-4,21,22,-29,-34,-41,-25,-68,-5,20,2,62,109,-190,-84,96,9,45,-11,17,233,-10,-33,0,-52,588,8,-8,-29,0,67,135936
-38,1,25,-41,-38,-42,-53,35,3,-1,-9,-68,-1,-164,-81,64,13,44,22,-1,124,-67,-18,24,-60,452,48,10,-11,19,117,135937
-56,-11,24,-49,-42,-52,-87,14,72,-68,-90,-32,-136,82,41,31,-2,28,35,-12,43,-122,-36,28,-70,363,45,3,-7,16,105,135938
-89,-11,35,-42,-47,-47,-115,-193,153,163,-161,69,76,150,-16,19,19,62,94,-19,-42,-136,-9,75,-61,240,90,48,45,55,184,135939
-95,-19,39,-46,-43,-42,-147,-121,139,98,-224,134,61,213,-59,6,7,52,78,-22,-92,-168,-13,68,-78,166,83,38,37,61,213,135940
397,82,-33,11,87,76,369,466,41,4,253,243,-100,316,83,375,-93,-108,-266,298,867,203,-99,-292,279,1492,-275,-189,-211,-162,-714,135941
1050,201,-130,55,225,212,1047,836,-231,65,813,418,-201,309,188,871,-265,-327,-811,686,2263,681,-253,-840,667,3487,-793,-541,-651,-551,-1698,135942
1250,239,-175,45,241,222,1237,721,-297,-79,688,335,-252,161,225,1045,-343,-406,-1053,784,2819,815,-350,-1059,713,4359,-988,-703,-861,-735,-1939,135943
914,192,-120,0,152,112,911,359,-115,-58,506,183,-183,116,119,833,-282,-288,-849,564,2328,615,-311,-820,423,3746,-755,-553,-723,-603,-1193,135944
-72,14,54,-81,-78,-94,-107,-291,118,-84,-266,-131,365,-306,-15,95,-35,67,-90,-70,400,-31,-102,-20,-244,1040,13,-47,-135,-72,434,135945
-209,-5,61,-55,-97,-114,-195,-241,27,18,-264,-204,251,-353,-69,-8,34,116,116,-117,62,-34,-22,146,-224,471,149,63,38,99,409,135946
-167,-6,44,-56,-85,-83,-156,-185,-23,-10,-36,-108,155,-283,-122,8,14,72,80,-103,123,43,-37,83,-170,503,100,22,21,57,271,135947
-162,-15,53,-54,-67,-67,-217,-152,11,63,-311,-181,191,-225,-157,-13,26,85,115,-125,37,67,-22,118,-170,345,128,45,53,81,275,135948
-165,-26,47,-57,-64,-55,-252,-151,133,-58,-408,-224,185,-213,-123,-46,10,63,125,-141,-20,67,-24,112,-180,241,115,46,46,73,270,135949
-127,-35,39,-57,-50,-43,-221,-102,150,-6,-346,-120,246,-309,-64,-59,-26,13,78,-142,14,80,-64,48,-161,263,51,8,2,27,72,135950
810,159,-102,60,175,130,864,531,-178,220,503,472,136,177,181,673,-210,-248,-567,511,1879,766,-209,-618,529,2850,-599,-403,-467,-388,-1484,135951
1669,358,-255,121,331,265,1862,1165,-430,16,1094,740,-131,767,334,1435,-361,-444,-1248,1122,3829,1406,-354,-1285,1088,5681,-1207,-804,-974,-825,-2595,135952
1673,381,-241,74,306,231,1864,930,-389,-241,1120,583,-286,723,356,1520,-360,-416,-1330,1136,4069,1369,-388,-1323,1010,6205,-1227,-845,-1056,-894,-2396,135953
1128,264,-138,-21,172,119,1200,718,-222,-417,430,236,-210,102,134,1102,-315,-295,-1068,722,3080,859,-384,-1008,523,5015,-919,-681,-896,-734,-1355,135954
-120,10,97,-133,-95,-104,-233,-399,116,-147,-683,-247,-15,-518,-134,114,-16,102,-105,-100,479,-121,-132,-11,-360,1477,40,-71,-157,-73,602,135955
-365,-28,140,-101,-127,-134,-472,-409,111,-87,-653,-225,235,-517,-140,-90,69,176,207,-204,-215,-311,-34,267,-408,486,285,107,111,167,769,135956
-333,-34,109,-86,-115,-125,-449,-285,168,-120,-230,-146,203,-445,-61,-101,58,143,227,-197,-300,-355,-45,247,-360,331,266,104,129,185,592,135957
-262,-32,91,-65,-87,-91,-373,-210,155,-76,-182,-204,27,-345,-134,-72,66,111,204,-153,-267,-345,-11,201,-282,376,214,89,115,159,467,135958
-250,-44,65,-64,-91,-107,-324,-196,29,-12,-320,-203,99,-275,-129,-98,36,69,133,-171,-294,-374,-46,142,-270,343,152,50,67,102,334,135959
-205,-32,80,-27,-57,-89,-255,-229,11,-106,-269,-121,140,-242,-41,-95,22,51,114,-157,-288,-365,-70,118,-248,331,135,22,55,94,334,135960
86,21,24,-1,8,-36,104,7,-50,-183,-176,74,-3,-29,68,142,-21,-31,-49,64,305,-115,-86,-76,-3,1121,-64,-86,-73,-18,-200,135961
560,126,-68,32,101,66,659,177,-83,-145,343,257,145,211,239,549,-96,-141,-392,398,1332,283,-140,-414,338,2534,-399,-290,-325,-244,-898,135962
1003,232,-134,62,185,152,1170,626,-101,-142,694,457,3,357,233,918,-203,-263,-794,685,2367,660,-242,-798,617,4009,-747,-524,-623,-513,-1548,135963
850,189,-100,4,132,116,940,458,-68,39,516,270,-20,187,135,801,-245,-260,-816,519,2202,549,-308,-786,396,3871,-714,-539,-658,-542,-1185,135964
-77,-11,53,-104,-73,-79,-150,-386,9,-64,-135,-116,17,-57,-197,72,-82,-2,-142,-144,371,-114,-164,-85,-289,1350,-54,-126,-176,-118,278,135965
-230,-35,68,-98,-108,-120,-317,-393,-28,-140,-216,-205,-18,0,-154,-52,6,67,101,-188,-5,-118,-68,114,-301,708,116,23,12,55,390,135966
-214,-31,83,-69,-81,-97,-318,-336,6,6,-297,-179,-60,-45,-99,-45,41,93,145,-163,-32,-31,-19,147,-251,594,159,72,71,114,392,135967
-214,-30,96,-48,-61,-56,-331,-280,98,86,-202,-35,-47,-115,-68,-47,65,93,175,-156,-71,17,9,164,-219,505,176,81,100,136,353,135968
-115,-10,82,-35,-37,-36,-231,-202,61,149,-77,-38,37,-94,-45,5,29,67,97,-114,84,99,-24,97,-143,687,109,35,49,98,198,135969
-4,10,63,-30,-5,-21,-111,-114,-12,68,-66,20,179,-131,-19,52,-21,6,-14,-75,253,152,-80,-9,-90,918,3,-39,-34,15,40,135970
123,34,20,-24,18,-17,67,-21,2,1,181,58,56,65,7,162,-51,-36,-99,27,513,219,-96,-113,31,1282,-110,-98,-102,-54,-245,135971
662,135,-91,28,127,76,714,490,-103,143,562,217,-97,317,79,629,-133,-169,-471,435,1658,618,-158,-498,429,2927,-472,-318,-369,-299,-1055,135972
814,186,-95,28,161,112,889,472,-180,110,544,254,-109,318,116,775,-170,-199,-620,538,2061,680,-200,-619,482,3569,-578,-398,-498,-406,-1172,135973
522,133,-18,-9,90,69,518,105,-138,73,194,122,-123,35,30,525,-160,-144,-502,296,1486,358,-214,-466,188,2883,-426,-341,-422,-336,-578,135974
-184,-26,85,-91,-72,-76,-288,-265,91,-35,-388,-234,-92,-279,-159,-43,-47,35,-30,-189,26,-224,-122,25,-332,908,35,-53,-65,-16,435,135975
-274,-41,91,-63,-84,-91,-349,-317,104,54,-231,-302,-180,-194,-114,-96,21,84,133,-195,-244,-281,-43,168,-308,503,157,51,70,110,489,135976
-229,-22,84,-38,-65,-78,-296,-259,57,-15,-171,-266,-80,-114,-126,-70,32,75,148,-156,-222,-253,-22,156,-238,502,149,56,80,106,390,135977
-233,-38,83,-45,-62,-69,-299,-160,94,8,-156,-193,271,-97,-68,-98,18,55,137,-169,-278,-268,-29,137,-245,409,134,49,73,87,374,135978
-205,-57,60,-62,-59,-54,-293,-266,84,-94,-451,-180,224,-110,-108,-101,12,32,132,-165,-274,-264,-35,121,-215,405,122,44,72,80,321,135979
-158,-40,49,-45,-45,-37,-257,-163,84,-111,-431,-162,115,-205,-155,-108,-14,13,84,-166,-243,-264,-48,88,-199,424,88,12,42,51,207,135980
-110,-14,54,-21,-26,-24,-169,-177,172,148,14,-119,7,-159,-111,-46,17,37,66,-97,-136,-187,-11,83,-137,543,75,22,47,49,190,135981
-280,-39,71,-46,-61,-80,-301,-463,192,66,-276,-145,-75,-202,-52,-136,70,101,213,-182,-427,-254,38,219,-218,102,208,115,158,147,466,135982
-411,-52,99,-36,-82,-108,-422,-373,105,7,-363,-223,23,-208,-110,-240,101,145,330,-269,-725,-339,64,332,-291,-358,318,191,247,225,633,135983
-282,-32,95,-8,-41,-47,-323,-256,56,36,-173,-83,75,-44,-55,-192,64,96,252,-210,-577,-270,40,247,-208,-201,219,139,203,186,444,135984
-49,-8,48,1,13,5,-95,-53,99,-45,77,-82,-9,-23,-23,-31,-6,-5,57,-82,-105,-94,-18,36,-54,449,24,14,48,40,26,135985
-63,-22,26,-20,-14,-20,-115,170,81,-100,26,-79,-89,-1,-1,-26,0,6,72,-89,-102,-82,-12,49,-66,450,43,39,48,39,97,135986
-51,-8,20,-19,-13,-32,-108,119,0,80,-7,-100,-210,164,-48,19,46,51,104,-44,-68,-29,25,91,-30,493,89,71,87,74,172,135987
-69,-13,25,-27,-16,-18,-127,85,-49,81,23,-12,-260,36,-55,-1,29,49,91,-67,-73,-40,18,91,-37,478,88,59,81,79,179,135988
-61,-18,37,-32,-5,-1,-133,-172,10,105,-51,-59,-59,-154,-11,0,10,17,62,-75,-56,-46,8,64,-44,502,41,34,43,46,108,135989
-8,1,43,-16,12,17,-67,1,-50,89,-169,-118,113,-62,-62,38,5,11,41,-36,25,-27,-2,37,-3,634,18,24,23,26,63,135990
-202,-39,74,-27,-40,-24,-295,-254,-58,-87,-116,-233,27,-45,-160,-138,28,66,173,-186,-406,-205,13,183,-163,45,157,110,129,117,378,135991
-186,-39,49,-29,-40,-37,-244,-221,-74,-42,-179,-190,-110,-47,-122,-130,31,41,170,-160,-373,-182,17,159,-132,58,140,87,123,111,281,135992
-215,-36,53,-19,-39,-27,-261,-135,-74,-11,-372,-62,-14,-65,-137,-153,43,54,182,-170,-430,-204,38,168,-162,-54,161,97,135,120,293,135993
-150,-26,60,7,-8,-2,-216,-153,64,28,-579,-127,83,1,-26,-126,26,31,138,-144,-355,-166,12,130,-133,9,125,69,108,87,223,135994
-91,-25,56,4,12,19,-165,-87,31,-141,-156,-78,-74,111,-14,-84,1,21,93,-116,-251,-119,11,90,-87,141,83,47,74,57,162,135995
-56,-34,33,-7,12,26,-118,-95,-18,-12,63,-8,-154,99,21,-42,0,15,86,-65,-164,-66,14,62,-52,256,45,45,62,36,84,135996
-57,-19,32,-9,2,17,-109,64,-79,49,10,-103,-152,36,59,-36,6,20,104,-59,-143,-36,21,83,-47,260,68,54,76,48,80,135997
-84,-20,15,-17,-15,-2,-130,119,-133,14,-155,-107,49,10,36,-39,25,47,128,-54,-160,-19,28,108,-50,215,100,83,99,76,133,135998
-84,-19,23,-24,-12,1,-139,87,-65,-35,-93,-68,66,23,-20,-40,30,50,106,-57,-171,-14,32,99,-59,197,89,64,84,70,131,135999
-105,-23,18,-30,-8,8,-160,-65,-77,64,-324,-62,175,-35,-17,-65,32,38,82,-78,-191,-24,38,90,-72,146,84,48,86,56,159,136000
-156,-34,49,-30,-14,-4,-221,-142,78,74,-265,-148,79,-129,-118,-125,49,56,139,-128,-328,-74,56,145,-115,-52,128,94,117,84,288,136001
-433,-78,95,-44,-74,-66,-492,-451,171,-45,-240,-312,69,-236,-173,-362,72,123,328,-340,-904,-302,82,333,-314,-861,308,208,247,197,688,136002
-680,-130,127,-24,-122,-120,-754,-500,95,-117,-386,-290,125,-301,-232,-574,129,200,540,-493,-1492,-503,126,543,-469,-1713,502,334,420,352,1059,136003
-548,-105,101,13,-85,-85,-597,-499,46,-51,-167,-85,-14,-184,-137,-463,141,164,506,-381,-1304,-410,157,480,-320,-1524,435,311,406,331,806,136004
-50,-21,-6,36,20,7,-44,-29,110,39,160,153,12,133,47,-69,37,14,132,-30,-295,-53,80,100,65,-123,74,87,131,91,-15,136005
-18,-13,-11,14,19,13,-32,108,136,-15,-66,65,17,124,17,-31,42,24,106,-8,-211,-69,75,96,62,39,63,87,109,69,-29,136006
16,1,-11,18,22,4,9,117,23,60,-30,28,33,146,-27,19,40,20,62,12,-120,-82,62,65,85,194,50,58,72,61,-45,136007
-42,7,16,20,20,-5,-63,-4,76,-107,-86,33,-27,142,-9,-17,46,53,101,-28,-224,-148,72,105,42,63,111,93,105,98,135,136008
-41,-5,5,10,6,-27,-49,-31,-16,-59,149,36,13,63,-33,-10,55,53,85,-9,-201,-146,61,99,47,109,101,89,106,86,126,136009
-44,-15,7,9,-4,-30,-37,-96,-30,-44,79,69,119,-6,-52,1,57,57,95,1,-182,-134,70,105,55,126,97,96,105,81,103,136010
-368,-69,66,-26,-79,-72,-400,-513,113,10,-141,-128,80,-23,-93,-259,102,140,289,-239,-828,-378,107,311,-202,-766,305,204,241,199,671,136011
-817,-169,131,-67,-172,-151,-909,-757,193,-218,-374,-247,260,-283,-143,-657,193,243,629,-541,-1815,-693,192,643,-507,-2203,617,409,485,418,1270,136012
-904,-205,139,-57,-170,-139,-1016,-523,249,-153,-532,-332,216,-238,-181,-771,197,246,726,-613,-2103,-734,205,713,-542,-2690,661,464,561,476,1310,136013
-735,-163,111,-24,-123,-83,-825,-438,172,141,-337,-136,-37,-203,-82,-647,192,212,671,-470,-1831,-559,214,642,-373,-2426,587,419,532,454,988,136014
-128,-36,0,34,17,23,-143,-33,-16,57,-36,111,126,-38,29,-177,59,13,213,-61,-590,-88,108,165,72,-759,127,129,190,143,-14,136015
57,-6,-22,39,55,48,47,46,40,17,113,28,-3,94,56,-33,7,-41,16,28,-143,62,54,-10,148,-156,-36,22,36,1,-206,136016
67,1,-4,36,61,52,52,56,81,75,89,157,5,74,143,-5,31,-6,10,50,-80,92,69,16,130,-60,-10,23,39,16,-100,136017
10,0,-13,34,26,22,34,102,-97,27,29,110,53,80,6,-31,29,2,37,14,-125,73,79,43,81,-110,14,50,52,21,-61,136018
30,19,-13,51,29,22,74,114,-45,-48,18,62,-105,-48,47,-29,-1,-27,8,14,-64,76,48,-10,73,-19,-35,13,8,-15,-104,136019
-25,0,0,34,14,9,-3,105,-17,27,27,-55,64,-143,75,-77,-5,-10,14,-37,-164,33,39,29,16,-139,-3,15,25,-3,-32,136020
-305,-61,71,19,-50,-31,-338,-109,45,88,-143,-178,394,-134,-67,-318,59,90,229,-243,-778,-209,79,256,-208,-989,222,163,183,135,538,136021
-695,-140,130,-6,-125,-102,-764,-112,195,84,-500,-299,88,-224,-225,-645,143,182,536,-497,-1632,-522,153,549,-465,-2198,514,347,408,334,1114,136022
-1082,-222,176,-52,-207,-178,-1169,-455,364,280,-772,-363,27,-337,-171,-949,234,286,862,-736,-2477,-804,249,872,-670,-3447,798,552,666,565,1622,136023
-1036,-232,151,-45,-189,-153,-1119,-449,167,108,-713,-256,16,-307,-112,-932,251,271,893,-694,-2523,-779,283,870,-563,-3606,781,564,705,583,1305,136024
-39,-34,-20,61,50,56,-9,208,-89,-17,323,247,-339,297,16,-158,54,-28,168,-14,-546,-44,123,104,164,-903,51,94,165,102,-299,136025
209,30,-44,73,106,102,250,196,-33,63,427,348,-211,361,143,82,13,-42,-74,139,50,129,70,-83,280,-26,-104,-26,1,-42,-405,136026
136,21,-34,49,79,70,183,106,-84,-41,212,263,-128,240,113,45,10,-19,-46,99,-1,72,71,-45,209,-51,-69,3,4,-32,-264,136027
181,29,-44,40,79,78,222,111,-146,-42,167,245,-156,213,77,77,-25,-54,-120,122,141,92,34,-119,205,171,-139,-40,-57,-83,-329,136028
13,-21,-14,8,40,48,4,104,-87,-81,-128,104,45,141,-65,-88,-38,-52,-57,-38,-207,-78,-1,-43,28,-276,-63,-24,-30,-62,-71,136029
11,-17,-20,13,26,49,15,219,5,-104,-45,35,-45,-59,-7,-90,-43,-64,-55,-29,-190,-58,-2,-37,20,-257,-63,-33,-30,-53,-90,136030
-535,-116,81,-35,-97,-52,-581,-249,177,-95,-428,-293,124,-384,-152,-485,113,147,379,-361,-1261,-423,140,419,-356,-1760,379,268,298,236,923,136031
-1124,-227,197,-48,-204,-167,-1243,-712,379,132,-627,-404,175,-492,-203,-981,275,344,919,-747,-2619,-865,282,951,-712,-3727,878,608,712,601,1788,136032
-1119,-234,168,-10,-202,-173,-1211,-787,390,141,-664,-369,0,-480,-202,-1007,283,326,960,-740,-2759,-856,315,967,-634,-4032,885,628,767,657,1637,136033
-845,-182,97,27,-141,-136,-864,-482,230,174,-260,-164,-4,-183,-126,-796,256,249,816,-515,-2258,-615,314,782,-370,-3438,696,549,674,553,1082,136034
16,-4,-64,105,40,29,124,127,-61,120,426,206,-62,451,106,-114,85,3,211,69,-516,34,185,142,265,-1061,80,165,216,138,-265,136035
197,37,-92,95,80,66,313,165,-54,27,299,295,-119,506,152,37,12,-61,-31,148,-22,138,95,-70,303,-335,-100,20,12,-34,-414,136036
109,11,-57,69,57,56,206,-12,22,67,174,203,-52,280,64,-24,-12,-51,-62,72,-112,62,59,-52,183,-421,-80,5,2,-50,-249,136037
92,9,-23,57,65,65,135,94,-72,83,113,109,-39,236,14,-46,-10,-45,-47,48,-126,31,47,-29,147,-441,-56,4,4,-40,-185,136038
131,27,-11,62,76,82,149,93,-38,-9,83,72,70,115,51,-4,-9,-34,-31,83,-46,58,61,-28,154,-319,-57,10,2,-33,-184,136039
63,20,-23,42,46,61,93,181,38,-164,214,87,-158,96,52,-19,7,-11,-9,55,-119,24,75,1,115,-392,-22,35,15,-10,-96,136040
-225,-43,-11,6,-37,-11,-217,-10,26,-11,58,-44,59,-39,-12,-242,38,54,146,-146,-643,-195,88,171,-104,-1123,151,126,124,88,344,136041
-482,-96,52,-6,-85,-65,-526,-123,47,146,-9,-210,-112,-103,-118,-453,120,140,380,-302,-1206,-379,135,410,-257,-1948,382,275,316,247,735,136042
-621,-149,72,-33,-109,-70,-746,-316,127,83,-33,-171,-95,-178,-130,-587,134,155,477,-412,-1567,-502,150,502,-339,-2463,459,323,394,314,883,136043
-536,-147,57,-18,-76,-47,-695,-232,89,131,-194,-59,125,-314,-145,-568,127,126,456,-359,-1496,-441,164,458,-261,-2415,406,306,370,298,667,136044
13,-33,-26,56,51,66,-77,224,14,218,-32,182,139,239,143,-146,24,-31,88,16,-433,-31,73,57,130,-978,20,64,95,47,-139,136045
226,22,-46,81,104,110,206,221,35,239,258,277,180,319,101,37,-32,-88,-110,135,52,123,21,-130,228,-285,-141,-53,-53,-84,-431,136046
163,29,-51,64,69,77,228,291,-40,30,227,298,64,43,72,12,-20,-62,-92,100,45,116,28,-98,176,-281,-115,-39,-48,-87,-274,136047
152,50,-64,66,52,39,307,195,-36,28,262,124,16,186,32,36,-1,-41,-84,129,106,164,36,-81,198,-191,-103,-16,-37,-71,-273,136048
196,59,-76,69,58,39,331,50,32,-54,122,98,-63,146,8,76,-23,-59,-123,149,209,193,21,-122,197,-35,-137,-50,-74,-100,-343,136049
159,38,-72,63,41,30,267,-2,1,-43,263,107,-123,360,-29,51,-17,-46,-105,118,163,165,18,-113,156,-72,-118,-48,-73,-97,-244,136050
-333,-71,6,-4,-76,-75,-292,-149,56,16,-206,-86,35,-202,-91,-315,91,106,229,-200,-774,-190,107,237,-205,-1370,226,177,174,128,636,136051
-627,-117,73,-11,-118,-111,-633,-374,140,175,-360,-153,85,-350,-88,-546,192,220,527,-371,-1472,-399,207,533,-346,-2380,489,369,415,355,1030,136052
-640,-143,61,-10,-120,-99,-641,-261,141,182,-291,-171,-42,-126,-82,-578,189,199,564,-391,-1578,-421,208,551,-318,-2582,500,381,440,371,939,136053
-445,-115,8,-5,-82,-65,-413,-239,62,-9,13,-78,-21,58,-35,-451,115,90,394,-269,-1231,-306,162,364,-177,-2125,312,264,320,250,444,136054
91,15,-45,77,53,57,176,44,-46,123,418,204,145,102,143,-22,34,-25,46,97,-174,83,93,11,208,-669,-16,57,63,30,-314,136055
191,31,-60,71,65,75,278,388,-84,78,127,189,21,124,33,53,-19,-60,-95,139,107,130,37,-110,226,-259,-118,-34,-58,-79,-367,136056
147,18,-57,47,58,53,222,227,-42,-67,96,183,-25,-25,-28,5,-42,-76,-124,74,53,54,5,-129,148,-305,-134,-53,-83,-100,-308,136057
115,10,-44,37,42,41,179,229,45,6,217,220,-190,4,3,-12,-41,-66,-129,52,30,12,-4,-121,117,-309,-122,-66,-85,-81,-227,136058
101,26,-29,51,42,32,195,225,-36,81,404,93,-202,85,63,18,-31,-44,-109,79,62,42,4,-82,128,-252,-82,-45,-54,-52,-155,136059
66,19,-36,45,14,5,191,157,-152,23,525,93,-241,202,54,37,-3,-21,-63,100,80,62,23,-52,130,-220,-57,2,-36,-43,-113,136060
27,34,-38,42,8,-2,136,-26,-206,29,176,155,-187,176,127,26,24,21,-3,82,6,52,68,-3,113,-311,0,40,16,4,-42,136061
22,23,-39,31,5,7,92,25,-128,37,81,134,-1,237,84,13,36,23,0,66,-30,38,69,4,82,-368,-5,36,22,10,-31,136062
198,31,-83,25,41,46,261,29,-110,19,153,223,-66,157,-50,114,-15,-51,-127,168,298,147,29,-137,186,92,-148,-59,-82,-83,-330,136063
291,54,-72,49,74,70,366,403,15,49,291,153,-40,158,62,182,-38,-55,-188,223,484,216,4,-181,229,382,-177,-96,-126,-123,-441,136064
103,23,-28,22,27,25,169,290,-31,80,-46,5,-30,-106,36,59,0,1,-65,94,151,87,23,-48,85,-74,-45,-8,-33,-31,-87,136065
115,39,-24,30,39,42,185,-82,-66,-44,29,73,-59,-166,-13,68,-4,-3,-45,121,182,122,28,-50,123,-28,-50,-12,-36,-29,-116,136066
107,30,-30,28,32,48,147,-85,-82,-95,216,124,48,-103,10,45,-38,-27,-75,106,172,113,-1,-79,89,-29,-79,-38,-56,-65,-124,136067
80,15,-19,19,21,21,90,7,-22,-51,73,56,235,-147,32,12,-33,-45,-72,77,100,88,-24,-73,39,-105,-79,-49,-58,-84,-142,136068
41,12,-24,11,-1,3,59,10,44,-2,-56,90,0,-78,36,6,-11,-5,-25,68,49,75,19,-31,34,-189,-27,-3,-20,-39,-59,136069
25,14,-22,20,0,-6,41,-43,5,83,183,38,-183,-48,96,0,8,12,-9,65,2,76,32,-14,31,-255,-7,6,9,-10,-7,136070
92,7,-24,10,24,26,85,61,44,90,-1,47,-93,-190,101,23,-48,-52,-114,65,114,82,-36,-108,43,-77,-96,-76,-79,-84,-140,136071
-195,-41,60,-15,-29,-2,-257,-214,139,96,-322,1,-19,-259,-25,-219,-1,24,81,-159,-487,-159,1,102,-179,-895,106,41,65,39,341,136072
-317,-71,61,-31,-53,-25,-358,-247,40,37,-75,-45,45,-258,-9,-294,48,67,209,-206,-735,-225,55,222,-210,-1270,217,120,176,134,492,136073
-198,-45,16,-5,-26,-8,-211,-109,-29,-24,-8,5,49,-177,-27,-210,44,46,168,-110,-546,-144,60,164,-96,-1027,154,98,145,115,257,136074
36,7,-41,17,17,20,75,311,-9,59,-12,83,72,-99,-11,-14,17,-12,23,57,-52,46,31,2,92,-359,-2,19,41,20,-87,136075
114,42,-38,38,41,30,179,341,-136,74,-132,79,51,233,32,68,14,-9,-44,100,152,115,18,-49,127,-80,-37,-18,-9,-13,-139,136076
84,34,-34,46,28,15,144,85,-160,12,134,54,9,122,-34,34,2,-7,-43,70,104,88,20,-57,94,-131,-40,-23,-23,-23,-121,136077
82,26,-22,34,38,30,129,-150,-10,-1,113,31,21,39,-4,37,-9,-14,-60,59,110,87,12,-61,81,-115,-49,-24,-31,-39,-110,136078
51,9,-31,23,20,3,87,0,36,34,196,10,114,3,-5,14,10,-7,-30,44,64,68,21,-28,55,-177,-4,0,-1,-21,-8,136079
54,7,-30,20,19,0,100,-112,41,101,259,20,106,200,49,20,22,-2,-9,57,74,89,17,-19,70,-147,5,14,9,6,-42,136080
63,18,-26,19,22,8,108,-8,26,70,265,134,-122,236,29,41,20,1,-8,69,103,96,16,-27,72,-117,-1,-3,8,-1,-70,136081
72,10,-47,-1,15,1,96,54,42,-13,130,179,88,38,75,32,-27,-32,-87,51,122,74,-23,-85,51,-57,-63,-54,-46,-44,-148,136082
172,14,-61,-7,42,25,205,182,-41,67,79,75,172,128,113,80,-88,-103,-222,95,323,126,-84,-216,87,238,-186,-159,-165,-146,-391,136083
263,49,-50,14,63,59,319,230,13,-88,42,-63,101,105,84,149,-93,-117,-272,158,506,184,-82,-265,143,524,-244,-186,-208,-185,-494,136084
161,32,-11,10,30,45,210,189,46,14,105,-137,158,-170,37,76,-64,-69,-152,96,308,106,-49,-164,58,286,-143,-106,-141,-125,-224,136085
147,22,-9,8,38,49,167,152,-83,-28,83,-85,156,-161,4,63,-85,-86,-143,81,278,68,-53,-176,50,258,-156,-107,-145,-137,-231,136086
116,15,-1,0,29,43,104,169,-2,129,-38,-82,146,-86,58,53,-61,-57,-109,82,213,23,-40,-116,31,164,-111,-80,-107,-99,-155,136087
18,-11,-5,-11,-9,-4,3,-45,-71,43,-18,-59,137,-10,19,1,-10,-13,-30,41,15,-55,-17,-19,-25,-92,-14,-29,-30,-26,-2,136088
51,15,-2,15,16,31,56,-7,-148,-28,36,27,52,198,115,8,-21,-24,-45,52,38,-61,-26,-49,-1,-42,-29,-44,-46,-36,-63,136089
106,16,-17,7,26,34,93,193,-95,-70,-10,43,54,280,80,19,-55,-58,-112,70,121,-59,-47,-123,24,108,-98,-100,-106,-93,-176,136090
153,40,-28,21,27,21,169,110,-103,-16,132,84,1,142,27,97,-23,-33,-124,115,268,13,-20,-124,88,281,-93,-90,-90,-81,-208,136091
18,11,-44,0,-12,-20,86,27,-139,39,186,-134,-79,7,-1,56,0,2,-31,53,106,-24,-16,-32,32,58,-16,-31,-23,-17,-53,136092
24,18,-29,9,2,-2,73,17,-92,20,-105,-13,99,0,29,73,37,44,17,77,97,23,34,22,55,34,31,15,16,24,8,136093
68,19,-17,0,9,12,107,-59,-32,-69,-106,-41,89,73,22,94,14,10,-61,78,204,86,5,-49,69,176,-20,-38,-32,-23,-104,136094
-40,2,17,-4,3,15,-20,-20,-61,47,69,-65,-134,-30,-53,-25,5,19,-10,-19,-30,24,-11,3,-43,-160,35,-14,-1,5,13,136095
-52,-15,-3,-21,-18,7,-45,-41,14,150,220,-41,-2,-100,-54,-59,-39,-17,-25,-53,-67,24,-32,-15,-58,-208,1,-30,-13,-17,3,136096
-75,-27,1,-17,-32,-3,-91,-156,28,101,-37,-75,133,25,-28,-82,-17,-8,31,-74,-120,36,-12,22,-60,-304,31,5,16,2,45,136097
6,-8,0,2,-5,22,-22,-114,46,-9,-26,30,60,-47,42,-9,0,-1,30,0,13,129,-1,0,9,-170,22,1,7,11,-3,136098
29,-4,-12,5,4,22,-11,21,-9,77,-85,98,-173,-66,-5,16,20,15,32,13,53,172,25,12,35,-121,9,6,15,15,-52,136099
34,0,-15,4,3,9,11,30,71,211,30,66,-168,22,-58,40,29,22,33,26,94,192,36,9,58,-63,12,13,13,16,-16,136100
61,10,-16,-13,12,11,40,-18,7,41,-14,45,-117,-89,50,50,7,-9,-10,38,141,195,1,-32,57,10,-19,-24,-10,-5,-66,136101
48,-3,-18,-18,-3,14,27,-97,33,13,74,51,63,-36,77,17,-39,-36,-64,9,115,151,-37,-68,21,3,-57,-59,-53,-43,-72,136102
119,42,-1,32,29,36,155,130,73,1,43,2,149,25,116,93,-9,-24,-71,87,266,211,-5,-75,95,210,-56,-45,-54,-40,-142,136103
105,53,-11,32,18,19,185,171,119,34,207,35,60,54,47,122,14,1,-46,114,285,192,11,-46,107,258,-23,-20,-28,-10,-114,136104
25,40,3,21,6,12,85,-171,47,-20,-36,-41,161,-95,-12,63,40,44,19,72,97,95,28,39,50,34,48,27,26,43,34,136105
37,25,-15,14,-1,4,83,-117,-37,-103,-81,-22,-2,-121,-40,42,2,-7,-30,68,99,27,-4,-25,45,73,-15,-25,-20,-10,-88,136106
141,40,-21,24,29,27,160,30,144,-12,50,84,-103,49,-6,116,-29,-46,-122,124,282,27,-36,-121,90,351,-105,-78,-87,-82,-205,136107
96,27,-18,8,19,19,88,162,139,-17,-136,132,-108,94,13,96,-16,-25,-83,99,193,-34,-13,-81,56,252,-67,-50,-64,-58,-142,136108
172,48,-16,22,41,41,167,246,9,174,153,151,-177,89,104,161,-5,-18,-107,160,336,22,-14,-104,122,469,-84,-67,-71,-63,-226,136109
207,60,-16,11,51,30,201,95,-69,197,186,212,-146,86,73,178,-47,-55,-163,157,411,23,-54,-152,125,596,-131,-101,-123,-108,-255,136110
-65,-1,9,-25,-22,-39,-80,-171,-39,160,16,103,35,157,72,-11,2,17,22,-22,-87,-155,-5,37,-54,-98,61,23,16,7,175,136111
20,1,-33,-20,-24,-20,47,82,-78,-154,153,69,-22,88,94,66,-1,5,-27,65,99,-34,5,-23,39,119,-1,-13,-5,-6,-40,136112
142,21,-40,1,7,10,173,310,-142,-143,297,66,-45,57,44,127,-53,-62,-150,112,346,68,-55,-147,84,463,-137,-103,-114,-108,-294,136113
276,72,-32,31,70,63,313,474,-147,-17,226,87,-20,51,16,219,-81,-93,-230,180,613,191,-82,-244,160,858,-223,-159,-191,-161,-430,136114
59,15,10,-11,18,33,67,243,-28,-48,-55,41,-26,33,-35,48,-60,-47,-123,17,212,47,-66,-102,-18,298,-82,-94,-105,-79,-84,136115
-3,-13,14,-25,-5,2,-13,-21,110,-102,5,-48,132,-125,-23,-13,-52,-44,-81,-29,80,20,-62,-72,-57,104,-50,-72,-66,-57,-6,136116
-21,-14,14,-19,-16,-7,-59,206,64,-78,-149,-60,10,32,-52,-29,-35,-24,-38,-45,1,21,-50,-40,-65,10,-22,-52,-46,-39,43,136117
-16,-5,-4,-18,-21,-11,-38,-2,69,-43,33,-76,90,34,-86,-23,-40,-36,-43,-37,13,36,-61,-48,-52,15,-36,-56,-44,-47,-3,136118
-27,-11,-10,-20,-14,-15,-47,14,82,-26,80,1,189,41,-12,-13,13,16,20,-18,-5,54,-9,23,-28,-43,19,-2,10,11,54,136119
-29,-14,2,-14,-5,-11,-34,-56,13,59,-61,69,77,34,55,7,40,48,66,3,-3,73,26,62,-4,-66,54,40,56,51,93,136120
6,-8,5,3,8,-4,25,-149,-24,-16,-43,67,-33,82,47,26,-8,-1,-13,14,69,72,-31,-5,15,42,-6,-10,-5,7,-36,136121
87,15,-3,27,30,18,109,-75,-129,-69,-92,-26,-6,182,33,78,-26,-24,-69,64,214,117,-25,-69,75,254,-65,-45,-51,-31,-150,136122
334,79,-41,55,79,65,426,279,-137,-139,269,58,-48,404,197,305,-36,-53,-214,261,762,329,-11,-221,278,1016,-216,-123,-157,-119,-496,136123
351,84,-57,25,76,61,458,47,-47,-112,88,90,-71,117,121,336,-71,-92,-273,260,883,321,-62,-289,252,1230,-269,-172,-220,-178,-486,136124
86,33,-7,-12,23,16,142,-219,0,-68,-153,-10,-130,-304,-82,114,-44,-29,-126,62,338,85,-51,-114,25,523,-102,-86,-120,-86,-68,136125
-29,-9,-7,-32,-25,-26,-2,-21,-10,-37,-166,-164,-61,-84,-37,10,-35,-24,-71,-17,96,-23,-58,-48,-63,197,-41,-57,-68,-51,21,136126
61,2,-22,-11,-2,-30,89,-2,79,-4,-82,-150,48,217,75,88,-18,-27,-77,60,225,31,-43,-74,10,386,-51,-52,-79,-57,-84,136127
22,-1,-11,-14,-11,-23,34,61,-4,-38,-11,-68,22,161,64,61,-14,-6,-33,32,135,-19,-24,-30,-14,261,-13,-24,-43,-24,36,136128
-11,-3,-2,-12,-6,-7,-2,128,-17,-81,190,-38,-2,51,41,34,0,15,-32,8,78,-37,-20,-9,-19,175,13,-18,-20,-6,24,136129
-3,-1,1,0,3,13,16,-156,-30,-95,46,-56,-119,25,-11,51,14,28,6,31,82,-21,3,13,6,161,26,12,-2,13,3,136130
40,10,11,11,11,41,34,-87,-88,-16,-71,-103,-152,-3,-45,36,-37,-22,-44,17,109,-22,-49,-45,-3,213,-39,-36,-42,-39,-106,136131
147,23,-9,16,29,46,128,160,-189,-344,-3,-53,-138,191,-19,80,-87,-83,-158,51,289,26,-103,-150,32,470,-153,-128,-132,-111,-296,136132
376,83,-48,37,76,56,410,-29,-165,-342,269,86,-19,199,36,326,-62,-82,-267,272,841,274,-63,-266,254,1223,-255,-170,-196,-161,-573,136133
330,68,-57,16,40,9,379,91,-1,-262,190,117,65,69,30,336,-37,-33,-232,256,848,289,-34,-224,229,1249,-203,-131,-183,-141,-337,136134
-50,-19,0,-25,-38,-62,-54,-217,55,-90,-320,-32,46,-44,-27,1,-31,10,-40,-47,91,-14,-34,-23,-86,219,-1,-36,-46,-38,152,136135
-56,1,29,-9,-12,-40,-71,-166,-12,-19,-72,-13,-3,20,2,-7,-7,11,31,-37,19,-12,-17,33,-60,111,40,5,4,18,117,136136
-68,7,23,-19,-22,-41,-76,-144,-25,31,-60,-5,0,-43,72,7,26,35,88,-15,-3,10,26,80,-35,69,75,53,56,61,136,136137
-108,-11,17,-39,-38,-46,-120,-47,-1,30,-269,-34,-112,83,62,0,51,59,139,-15,-47,17,64,117,-20,-15,103,94,86,78,144,136138
-52,-8,8,-39,-17,-13,-103,14,-82,-29,-92,48,-153,253,65,36,59,68,118,18,34,57,53,93,20,71,90,85,82,77,70,136139
-23,0,24,-21,2,10,-131,-11,22,-43,-112,56,-128,-36,-48,19,45,61,74,-3,2,43,23,78,-3,18,78,46,65,68,58,136140
-30,-50,7,-31,-4,7,-154,41,-7,-157,-237,-69,94,-76,-172,-34,-24,-13,-17,-54,-39,-29,-32,-6,-57,-8,-11,-29,-7,-11,-2,136141
-1,-39,12,-9,8,24,-103,29,-114,-158,-254,-86,31,-144,-118,-33,-34,-26,-24,-42,-3,-16,-36,-24,-43,43,-26,-34,-27,-24,-16,136142
-46,-13,26,9,-4,5,-75,-115,-96,-146,-178,-94,33,-233,-45,-19,25,44,101,-32,-83,-10,13,79,-37,-74,78,64,61,63,164,136143
-156,-28,5,-9,-53,-49,-117,-108,-212,-69,-262,-13,-18,32,-123,-74,35,52,146,-84,-233,-67,22,122,-75,-286,123,85,92,90,290,136144
-42,-11,-9,-3,-20,-28,-20,-5,-117,-106,-13,139,-202,221,-21,-23,-2,3,31,-18,-50,-14,-10,15,-11,-34,24,1,20,12,36,136145
6,11,8,12,4,-13,13,59,15,113,85,119,-20,230,86,2,-2,-2,-26,-4,17,-12,-14,-19,0,61,-5,-28,-5,-6,5,136146
2,5,20,11,5,6,17,6,-2,36,22,90,75,200,53,-6,-13,-19,-51,-29,4,-49,-20,-41,-19,49,-30,-45,-32,-21,6,136147
-16,-3,-13,0,-11,-8,28,-56,-1,180,266,12,-122,96,44,-11,-12,-2,-29,-23,-9,-64,-8,-26,-18,24,-20,-24,-24,-4,12,136148
-73,-9,0,9,-14,-31,-20,-126,-55,46,159,-3,-22,-142,23,-35,19,19,43,-38,-111,-96,3,42,-31,-111,39,25,39,42,140,136149
-18,-4,6,4,3,-9,12,30,103,-30,42,38,163,-281,32,2,-3,4,25,-5,-26,-67,-1,15,11,15,3,16,19,20,56,136150
42,16,-3,14,24,12,76,231,164,-54,-5,61,41,46,5,37,-8,-5,-9,38,75,-22,-9,-27,38,155,-39,-4,-16,-3,-48,136151
6,8,13,19,17,8,4,266,83,98,-353,50,41,12,-32,-10,13,10,27,-3,-31,-58,16,12,-12,-3,11,19,8,20,15,136152
5,-1,7,-3,0,-5,-39,159,90,190,-232,-78,-27,-150,-36,-47,-18,-16,-2,-42,-66,-74,-10,-17,-35,-47,-21,-22,-16,-10,-36,136153
-11,-12,6,-3,-3,-10,-46,-121,61,128,49,-47,-18,74,33,-44,-6,-8,19,-43,-79,-43,3,7,-33,-90,4,1,-5,-4,-36,136154
-40,-3,20,15,-7,-9,-55,-239,110,33,87,-152,124,141,66,-35,21,28,60,-29,-115,-21,19,52,-29,-159,47,39,41,25,122,136155
-11,3,17,22,11,10,-15,-109,25,-13,62,-153,73,-297,22,-13,10,18,27,3,-49,14,0,29,-5,-61,22,21,28,25,51,136156
-57,-4,18,16,5,11,-41,-296,18,21,-167,-117,-52,-96,-23,-21,44,56,73,-17,-105,22,36,84,-14,-169,80,73,75,73,127,136157
-29,-2,3,13,-2,-3,6,-3,-44,-24,-5,-51,-48,68,-21,8,49,52,63,8,-45,69,48,77,21,-99,66,66,69,64,110,136158
-35,-1,13,12,-1,-8,7,-53,-41,102,-18,-122,-19,-42,-34,-39,2,8,2,-30,-77,36,4,20,-18,-132,7,13,20,1,67,136159
-41,-14,13,10,-3,-6,-23,-115,-128,-26,-20,-174,-35,-167,-83,-86,-28,-32,-10,-65,-114,5,-23,-17,-58,-183,-38,-18,-16,-37,35,136160
-75,-28,16,1,-13,-9,-56,-86,-48,6,-145,-190,18,-66,-44,-90,-6,-12,52,-68,-164,0,1,37,-56,-259,13,21,22,5,66,136161
-152,-39,34,-4,-37,-27,-134,59,95,7,-54,-113,-59,116,11,-126,43,35,125,-93,-315,-42,34,113,-93,-488,109,77,93,73,216,136162
-265,-71,47,-14,-68,-47,-305,-155,35,-26,-109,-50,-164,-163,-88,-226,56,67,208,-181,-583,-153,54,203,-167,-865,187,131,154,125,412,136163
-321,-66,53,-7,-59,-40,-389,-318,105,52,-153,31,-19,-109,-11,-269,92,117,286,-212,-741,-200,95,289,-182,-1119,263,195,230,194,547,136164
-137,-22,6,24,-13,-20,-156,17,64,60,79,60,-25,293,28,-125,72,63,175,-86,-382,-79,84,166,-18,-655,144,126,158,133,178,136165
-33,-4,-18,23,-4,-14,-14,131,54,89,212,111,-250,107,28,-28,56,42,96,-12,-165,-20,67,86,62,-340,80,81,100,90,14,136166
27,14,-18,21,2,-10,72,75,-14,-20,398,69,-178,33,20,30,36,33,38,35,-12,15,47,27,105,-83,28,41,54,48,-77,136167
20,-11,-4,2,5,2,32,-14,72,-26,202,44,-145,-215,23,0,-10,-17,10,-11,-28,-41,12,-23,71,-77,-28,11,2,-6,-124,136168
120,-7,-11,-11,32,37,82,133,6,-143,-33,44,35,-139,-30,55,-57,-73,-79,32,147,-17,-10,-108,103,181,-127,-47,-80,-69,-295,136169
219,42,-12,15,60,72,216,33,-49,90,-8,2,-50,-81,60,162,-36,-55,-126,116,366,79,-9,-133,173,492,-139,-68,-97,-74,-374,136170
-211,-43,53,-25,-45,-24,-249,-174,-1,-17,-217,-103,69,-163,-55,-172,38,63,111,-184,-458,-230,44,143,-168,-606,136,91,84,93,456,136171
-559,-117,106,-30,-106,-97,-641,-490,179,-243,-433,-67,110,-317,-197,-470,127,157,399,-393,-1228,-469,128,425,-378,-1743,404,280,314,285,899,136172
-614,-137,102,-34,-126,-102,-696,-300,132,22,-512,-134,-34,-207,-107,-554,113,128,443,-450,-1427,-528,113,444,-402,-2086,419,282,351,299,912,136173
-650,-147,107,-23,-113,-84,-745,-319,79,89,-384,-188,-42,-183,-113,-601,127,151,522,-462,-1592,-540,149,514,-392,-2385,472,335,412,357,900,136174
-125,-35,13,35,8,8,-142,-24,75,-6,111,49,16,48,-64,-145,107,62,245,-48,-548,-71,145,205,58,-991,168,179,224,182,69,136175
175,27,-40,56,51,61,213,16,-125,-114,168,120,-148,110,54,126,61,-4,0,172,129,168,98,-31,243,-53,-31,44,42,16,-265,136176
142,29,-20,38,55,50,179,45,-165,-49,100,77,-160,106,54,81,18,-23,-70,115,119,123,42,-70,152,-45,-52,-14,-10,-30,-183,136177
64,6,-18,35,37,21,99,45,-99,-53,67,56,-200,20,47,6,4,-21,-66,43,-5,58,12,-51,54,-184,-45,-22,-10,-34,-93,136178
23,-3,-11,34,25,16,76,42,-60,-78,113,41,-70,-115,54,-41,-14,-38,-47,9,-87,6,2,-53,12,-272,-36,-19,-12,-33,-60,136179
13,3,-6,15,19,22,57,211,-103,-17,-101,95,73,-159,115,-67,-42,-72,-83,-17,-109,-33,-31,-78,-16,-284,-66,-50,-45,-68,-77,136180
-234,-48,37,-10,-44,-30,-224,-24,74,43,57,-42,54,-196,5,-252,16,20,87,-188,-585,-206,35,118,-201,-943,112,62,81,46,408,136181
-847,-172,144,-56,-176,-151,-919,-509,189,-1,-585,-251,97,-397,-147,-721,188,227,613,-580,-1881,-646,188,639,-590,-2788,606,403,488,404,1370,136182
-1207,-274,183,-82,-245,-196,-1379,-774,332,-93,-811,-403,223,-362,-328,-1066,243,302,907,-841,-2782,-951,226,910,-821,-4119,869,564,706,599,1851,136183
-1340,-313,216,-73,-251,-194,-1551,-900,355,-24,-952,-494,78,-438,-233,-1221,296,347,1091,-932,-3255,-1059,298,1084,-851,-4895,997,683,856,729,2045,136184
-328,-100,35,60,-5,6,-354,-56,16,188,-139,66,100,355,67,-406,131,54,464,-199,-1261,-247,188,377,-13,-2226,307,282,401,318,176,136185
173,-11,-71,74,82,89,234,440,-248,230,456,228,-30,365,82,12,-15,-100,-17,95,-103,118,62,-84,281,-595,-106,-8,21,-17,-471,136186
154,9,-64,58,77,89,222,378,-229,88,128,124,-61,210,64,35,6,-51,-13,81,-17,126,85,-62,245,-470,-79,11,15,-15,-353,136187
134,3,-38,57,77,94,161,118,-152,9,33,96,119,228,-20,-18,-23,-67,-62,14,-51,79,32,-85,163,-485,-85,-35,-26,-50,-265,136188
126,7,-31,53,60,81,156,3,-80,-20,72,69,94,163,-36,-16,-18,-61,-64,11,-37,74,32,-78,145,-446,-78,-33,-27,-43,-199,136189
51,-2,-44,40,18,36,108,112,-85,26,-25,21,158,202,32,-39,20,-36,-17,-9,-98,49,55,-29,106,-536,-32,0,11,-6,-119,136190
-243,-58,-1,8,-45,-33,-209,-165,63,-86,-281,-41,73,-93,-51,-265,46,39,142,-213,-644,-187,75,139,-134,-1263,139,91,113,96,440,136191
-1400,-277,223,-77,-267,-238,-1527,-919,470,-62,-973,-587,231,-784,-314,-1201,296,388,1039,-996,-3097,-1059,288,1064,-941,-4726,1014,666,784,684,2305,136192
-1757,-370,269,-76,-324,-269,-1946,-1142,496,23,-1069,-567,-5,-607,-327,-1528,414,499,1422,-1183,-4078,-1311,416,1422,-1065,-6245,1338,906,1116,972,2678,136193
-1452,-320,217,-22,-233,-172,-1601,-881,387,123,-821,-391,128,-409,-214,-1313,405,422,1315,-926,-3657,-1074,433,1272,-748,-5828,1168,841,1080,916,2052,136194
-271,-87,-12,103,33,38,-245,-64,62,140,69,114,-88,47,94,-373,200,87,532,-79,-1303,-167,296,418,165,-2645,348,356,495,379,23,136195
325,36,-124,120,130,123,432,447,-123,127,475,381,-228,332,146,110,18,-96,-35,273,41,249,148,-122,484,-726,-154,13,31,-34,-726,136196
316,45,-111,105,120,103,433,407,-40,179,473,353,-3,249,153,118,-7,-87,-133,256,173,233,103,-164,398,-486,-184,-37,-50,-105,-585,136197
258,56,-91,102,106,80,353,346,-24,244,462,245,-95,122,143,81,3,-50,-116,207,120,188,80,-115,310,-510,-129,-18,-37,-73,-426,136198
213,37,-90,83,69,60,320,156,-37,58,170,232,-159,190,10,62,-30,-78,-117,185,115,161,48,-142,262,-468,-142,-46,-64,-90,-382,136199
156,23,-74,51,49,57,234,161,-12,-96,93,124,30,254,130,37,-26,-73,-90,151,63,125,59,-114,215,-514,-114,-26,-52,-83,-272,136200
22,11,-39,31,18,31,82,17,43,140,-31,117,28,125,134,-52,37,9,41,65,-197,46,100,30,123,-873,22,66,52,8,-6,136201
-226,-35,-9,9,-36,-32,-174,-331,55,150,-65,1,-180,-207,-19,-234,89,82,230,-101,-681,-141,138,218,-54,-1548,193,179,183,130,374,136202
-597,-112,59,-8,-97,-91,-615,-528,125,163,-286,-166,-40,-298,-159,-565,146,160,443,-380,-1500,-455,176,474,-339,-2704,431,306,369,294,922,136203
-738,-154,77,-2,-125,-126,-781,-289,49,84,-271,-210,140,-201,-129,-686,204,207,597,-457,-1867,-540,235,605,-381,-3290,558,398,505,403,1041,136204
-139,-49,-44,54,3,-12,-80,142,-91,-34,198,80,57,-63,110,-208,100,44,228,-30,-681,-63,163,184,108,-1705,153,167,225,164,25,136205
189,18,-102,72,77,68,301,89,-112,-95,42,224,-101,170,143,56,17,-64,-61,160,52,178,78,-92,304,-657,-105,0,5,-38,-441,136206
195,21,-81,53,75,92,264,198,-116,22,-84,175,-74,126,-18,30,-56,-109,-166,97,112,154,-11,-156,225,-547,-167,-79,-78,-104,-404,136207
200,41,-47,68,85,93,262,340,-55,28,131,173,-80,36,-34,41,-42,-83,-144,105,144,165,7,-137,217,-475,-143,-68,-73,-80,-315,136208
118,24,-70,44,26,26,214,172,-9,322,227,143,-28,114,28,14,-11,-51,-81,80,70,133,47,-75,178,-571,-90,-28,-38,-46,-199,136209
159,32,-79,28,38,33,240,354,-88,217,196,176,18,176,19,49,-16,-64,-109,105,176,163,30,-109,194,-421,-119,-61,-62,-64,-295,136210
220,20,-77,4,52,70,277,125,-132,64,171,155,-32,221,53,93,-51,-89,-168,130,313,189,-8,-165,217,-206,-160,-99,-114,-109,-321,136211
-262,-79,25,-46,-51,-3,-248,-343,42,8,-121,-120,150,72,-12,-259,36,49,154,-184,-620,-170,61,177,-132,-1483,175,108,125,91,455,136212
-434,-99,59,-21,-60,-21,-453,-204,223,55,-234,-107,56,72,-36,-426,81,95,333,-291,-1080,-316,99,347,-244,-2148,316,216,261,208,635,136213
-276,-66,30,18,-3,25,-296,-239,124,80,-279,-32,-18,-41,20,-353,51,29,244,-198,-879,-230,74,239,-134,-1894,202,155,208,158,339,136214
3,-23,-22,39,47,71,5,162,-64,21,144,82,-207,16,-21,-154,-23,-72,21,-26,-347,-56,9,10,50,-1160,-20,-7,36,9,-136,136215
107,-4,-58,41,43,67,152,121,-20,54,349,166,-17,99,80,-64,-69,-115,-111,37,-58,26,-42,-123,100,-755,-131,-100,-82,-98,-319,136216
124,-7,-77,27,25,36,180,132,49,6,436,147,12,67,91,-18,-70,-102,-127,69,42,50,-39,-146,115,-603,-139,-95,-93,-118,-288,136217
146,16,-78,36,30,40,221,50,39,20,22,117,4,82,41,32,-31,-59,-115,111,124,92,-3,-119,140,-500,-116,-74,-65,-82,-255,136218
110,20,-57,34,26,29,207,-71,-86,59,34,99,-4,130,22,35,-2,-28,-93,119,108,88,28,-78,119,-536,-83,-49,-48,-54,-165,136219
84,21,-49,52,26,38,199,29,-10,55,9,46,43,219,-24,21,1,-22,-70,102,82,75,52,-62,102,-564,-57,-36,-47,-43,-100,136220
136,48,-46,51,46,60,232,108,-20,-70,81,82,-45,137,24,51,3,-17,-96,128,167,127,42,-88,140,-433,-69,-53,-57,-48,-185,136221
226,51,-64,29,59,67,290,14,-66,-48,213,45,-53,-44,47,125,-30,-51,-166,181,357,186,-5,-156,198,-143,-147,-99,-114,-107,-329,136222
213,41,-70,14,44,49,277,-31,-112,157,239,93,4,156,51,143,-23,-45,-138,186,391,203,10,-134,196,-80,-127,-62,-88,-84,-275,136223
147,30,-44,27,40,30,183,169,18,51,385,8,-41,180,48,112,17,-5,-66,147,266,162,33,-65,146,-245,-44,-7,-31,-26,-175,136224
88,25,-28,18,29,21,117,207,17,33,292,-14,-30,-63,10,45,6,-13,-59,94,140,104,24,-53,94,-389,-36,-28,-29,-21,-137,136225
173,39,-32,19,50,59,201,79,30,-147,110,123,9,-111,35,101,-23,-43,-113,146,280,145,-2,-119,141,-174,-110,-66,-74,-66,-288,136226
196,33,-44,12,46,49,216,167,-59,29,135,133,-3,-69,82,112,-49,-70,-164,147,332,128,-41,-156,126,-49,-146,-102,-121,-104,-267,136227
146,33,-28,18,27,29,169,104,-120,49,-31,98,120,111,94,85,-20,-39,-122,121,237,89,-13,-102,104,-160,-99,-68,-78,-71,-154,136228
170,36,-48,19,10,6,223,97,-17,40,5,140,-7,263,10,109,-34,-58,-164,135,293,99,-44,-147,115,-41,-136,-98,-110,-101,-258,136229
194,42,-71,21,21,10,270,145,-43,-6,154,109,-74,439,-2,132,-40,-61,-182,156,353,103,-56,-171,142,65,-139,-105,-122,-108,-266,136230
138,28,-46,7,15,14,188,119,-6,-31,195,-43,-110,120,47,101,-19,-28,-124,118,249,59,-27,-110,94,-90,-87,-69,-76,-71,-181,136231
310,56,-80,17,51,52,367,50,-92,337,439,39,-33,206,152,233,-78,-95,-274,234,615,197,-63,-262,211,437,-247,-171,-185,-179,-511,136232
388,74,-85,21,73,84,467,64,-167,51,467,95,99,86,79,319,-84,-108,-333,296,847,281,-78,-323,262,780,-296,-193,-229,-214,-549,136233
315,51,-69,-13,51,70,355,368,-114,-36,307,43,-50,-48,-52,255,-103,-110,-325,222,749,229,-112,-311,178,682,-282,-201,-241,-219,-357,136234
59,-4,-20,-41,-2,17,62,70,2,43,0,11,-221,-54,8,49,-48,-22,-121,47,258,69,-68,-113,-8,-20,-90,-89,-108,-90,-27,136235
13,-2,-27,-36,-18,-13,40,154,155,108,32,47,14,279,105,38,2,12,-42,50,181,94,-6,-35,14,-163,-16,-28,-33,-18,-40,136236
42,6,-44,-34,-23,-15,60,185,22,51,-53,78,14,183,67,56,-7,-12,-72,61,226,122,-26,-69,33,-115,-59,-50,-58,-36,-98,136237
86,20,-19,-13,9,11,74,27,-88,-36,-29,90,214,-190,32,36,-49,-62,-116,41,244,116,-65,-124,21,-86,-97,-93,-107,-80,-184,136238
44,-9,-15,-31,-5,9,27,-20,42,-152,-51,-21,-24,-30,36,22,-40,-46,-91,7,191,103,-55,-95,-9,-172,-78,-78,-88,-65,-146,136239
51,21,-16,-8,-2,6,72,-17,105,7,-93,-22,28,10,33,72,14,23,-35,62,243,165,-4,-22,52,-133,-12,-12,-19,-3,-104,136240
167,56,-36,17,36,22,221,198,-56,-37,62,58,52,-23,-21,182,13,13,-72,173,478,269,8,-76,160,184,-63,-20,-42,-29,-199,136241
307,71,-53,27,71,62,338,262,-60,-18,217,130,91,30,20,268,-33,-44,-194,225,717,320,-51,-195,213,554,-167,-110,-139,-105,-396,136242
535,115,-85,24,116,109,577,357,-120,68,431,200,-72,135,98,412,-129,-166,-436,344,1196,442,-145,-436,328,1278,-399,-283,-321,-282,-848,136243
578,110,-103,7,112,99,622,359,-223,52,398,240,-24,143,85,447,-175,-210,-540,357,1331,435,-178,-526,302,1575,-485,-350,-415,-362,-945,136244
178,33,-43,-37,1,9,186,26,-162,-49,154,7,-156,-113,-57,171,-85,-65,-242,114,567,134,-101,-215,15,576,-177,-158,-207,-166,-244,136245
12,13,-8,-20,-22,-26,3,-86,-63,94,-136,-68,41,-41,-55,50,-14,9,-56,46,185,8,-43,-39,-55,47,-20,-38,-55,-31,62,136246
35,6,-23,-28,-23,-39,38,-144,34,-20,-222,-24,39,-80,-27,56,-18,-14,-83,69,178,-18,-55,-65,-32,68,-46,-52,-72,-51,-26,136247
11,22,-12,-16,-17,-32,40,-88,105,-235,-11,-25,12,10,4,80,40,46,-17,99,133,-2,-7,11,-4,3,27,3,-5,18,17,136248
6,33,-9,-1,-14,-22,56,17,-1,-54,74,-135,-24,41,58,89,55,62,15,116,129,14,12,34,13,-12,48,12,19,41,70,136249
4,19,-10,-8,-13,-33,48,168,-24,-63,93,-51,-117,-42,73,83,37,43,9,108,132,12,9,10,28,-6,20,13,-1,24,-5,136250
338,69,-67,8,53,31,376,374,-30,3,244,126,-308,90,96,347,-38,-70,-216,331,809,268,-51,-229,280,908,-227,-132,-170,-139,-639,136251
1038,221,-168,57,210,187,1102,621,-141,215,628,422,-258,429,274,906,-177,-259,-750,785,2287,797,-196,-766,742,3021,-723,-480,-570,-491,-1654,136252
1156,249,-175,34,220,198,1217,718,-223,93,628,377,3,346,231,1014,-248,-299,-960,816,2698,886,-282,-938,723,3691,-857,-597,-746,-634,-1733,136253
920,212,-137,10,152,124,1008,593,-193,-81,300,170,-51,372,178,865,-209,-229,-847,643,2358,723,-262,-796,513,3311,-710,-520,-672,-550,-1269,136254
118,52,-7,-76,-31,-33,164,41,-51,-121,-416,-114,11,45,43,245,-49,10,-281,88,781,128,-128,-199,-76,1148,-150,-167,-254,-167,64,136255
-133,-9,28,-96,-70,-63,-129,-72,-50,-139,-504,-236,112,-169,-148,11,20,77,-19,-74,160,-58,-74,39,-202,252,41,-28,-48,8,324,136256
-83,-10,44,-65,-39,-25,-105,146,65,-110,-136,-136,154,-258,-154,11,-14,29,-14,-65,157,-39,-87,1,-155,211,0,-43,-52,-3,169,136257
-59,-12,35,-57,-34,-26,-90,-26,8,29,-68,-110,4,-139,26,12,-28,4,-10,-58,158,-30,-88,-16,-121,185,-8,-48,-47,-12,116,136258
-21,-1,22,-51,-37,-36,-54,-67,107,114,-153,-204,124,-158,38,37,-26,4,-22,-42,191,-10,-84,-20,-83,221,-12,-40,-48,-16,73,136259
-7,-7,15,-43,-27,-39,-45,-96,114,26,-92,-62,-44,-78,-61,31,-27,3,-28,-50,165,-13,-98,-17,-88,193,-16,-48,-54,-20,24,136260
196,49,-7,-2,39,19,190,138,30,79,80,42,-68,80,36,199,-51,-47,-143,112,567,149,-111,-152,84,727,-149,-114,-132,-90,-352,136261
723,167,-93,38,162,133,774,568,-84,88,533,258,79,119,162,606,-177,-222,-560,460,1671,540,-210,-583,435,2295,-555,-386,-461,-375,-1164,136262
973,220,-113,46,205,188,1043,732,-135,59,561,352,-138,169,259,818,-244,-290,-780,606,2255,710,-273,-793,556,3195,-753,-526,-648,-535,-1489,136263
960,220,-104,23,178,175,1028,534,-214,-34,397,305,-105,227,124,829,-275,-289,-842,585,2337,680,-321,-834,489,3409,-768,-566,-695,-581,-1415,136264
179,62,19,-61,-8,-6,146,-165,32,-24,-230,-163,-3,-109,-97,233,-108,-37,-327,69,821,104,-200,-251,-102,1371,-196,-220,-304,-226,0,136265
-156,10,71,-60,-68,-73,-214,-222,104,-63,-191,-285,-132,-180,-103,-22,22,90,52,-95,39,-111,-58,105,-262,247,114,23,-12,40,409,136266
-51,17,49,-35,-50,-51,-95,-385,7,-100,7,-69,-6,-186,-59,53,11,49,29,-1,180,-36,-52,32,-145,422,48,-9,-28,21,204,136267
-104,-7,35,-53,-60,-76,-146,-201,65,84,-145,-160,-34,-188,2,29,23,54,62,-6,59,-63,-59,76,-153,239,82,19,14,51,229,136268
-81,0,39,-46,-40,-61,-120,-105,90,-203,-212,-175,-83,17,5,23,4,45,51,-4,35,-58,-66,64,-150,209,60,16,7,34,178,136269
-63,-2,33,-36,-31,-56,-94,-237,34,-202,-107,-96,-89,-110,-60,18,3,42,18,-3,40,-46,-57,42,-141,204,42,-1,0,25,186,136270
295,74,-33,8,44,3,329,190,-134,-23,293,76,53,107,109,293,-61,-74,-257,247,766,232,-115,-240,142,1185,-230,-175,-191,-142,-541,136271
883,201,-127,64,171,124,988,524,-230,143,694,324,-60,294,262,754,-200,-254,-701,608,2003,655,-223,-708,527,2948,-675,-450,-546,-458,-1390,136272
947,219,-122,53,166,132,1059,509,-146,50,513,235,-3,217,250,854,-210,-245,-763,638,2261,715,-250,-760,519,3393,-708,-492,-617,-507,-1308,136273
707,157,-103,-16,82,48,779,230,-197,-52,505,119,-92,186,141,683,-199,-194,-667,462,1922,532,-260,-634,313,3003,-577,-439,-572,-449,-953,136274
45,23,19,-83,-75,-84,-7,-148,-149,-60,-62,-80,155,-138,-42,156,-80,-11,-209,-17,592,21,-163,-154,-185,1199,-119,-146,-233,-150,143,136275
-150,-14,80,-77,-72,-75,-259,-228,-36,16,-376,-163,173,-339,-109,-7,11,77,39,-122,86,-109,-74,72,-254,449,83,9,-29,47,392,136276
-186,-22,86,-66,-58,-50,-297,-131,-22,-68,-456,-251,-24,-343,-106,-50,43,91,115,-157,-85,-141,-46,145,-255,171,149,52,43,108,429,136277
-179,-36,60,-62,-68,-66,-246,-94,39,-121,-203,-151,13,-187,-168,-39,32,72,116,-147,-103,-144,-34,127,-215,142,122,51,46,79,355,136278
-170,-23,49,-42,-58,-58,-223,197,97,-45,-245,-58,231,-95,-65,-62,9,37,95,-153,-122,-159,-59,94,-201,93,101,29,29,58,299,136279
-148,-8,50,-34,-33,-61,-183,39,50,-39,-246,-83,97,-147,-45,-62,15,48,73,-143,-117,-153,-65,92,-179,81,96,20,32,72,285,136280
-43,-6,31,-19,-22,-38,-66,-65,-31,-72,67,-49,-53,-54,-5,26,-12,6,2,-66,70,-74,-63,14,-91,331,4,-16,-21,26,45,136281
45,4,21,-16,-4,-13,33,151,-58,16,57,-4,100,112,28,97,-22,-11,-52,14,266,13,-56,-53,-26,600,-53,-49,-59,-6,-66,136282
132,37,9,-6,16,5,138,345,4,-12,7,92,65,-36,71,175,-35,-13,-98,91,467,97,-59,-105,53,874,-98,-81,-103,-49,-212,136283
155,42,11,-20,11,18,147,69,64,-24,-49,-18,-30,-139,30,164,-81,-50,-161,63,506,88,-105,-151,26,948,-142,-131,-158,-113,-215,136284
4,-1,32,-47,-21,-8,-58,-80,202,-7,-149,-75,31,-9,3,48,-27,-11,-46,-37,204,-21,-69,-34,-92,526,-39,-58,-65,-36,73,136285
-17,-2,36,-38,-28,-14,-83,-195,190,-7,156,-58,138,108,6,45,-13,15,-6,-24,140,-12,-52,1,-91,438,-17,-33,-37,0,93,136286
24,21,25,-20,-2,-13,-11,-78,97,-56,290,-85,53,76,91,101,8,41,3,41,229,57,-25,6,-32,529,-5,-9,-20,6,37,136287
-23,-12,6,-45,-27,-39,-63,-78,44,13,-69,-82,88,-135,16,66,14,30,15,-2,148,29,-24,20,-66,407,11,4,-6,1,67,136288
-12,-11,26,-37,-13,-8,-83,-142,70,-66,-142,-66,25,-232,-31,48,4,31,15,-6,131,36,-30,4,-74,379,2,-3,-4,-6,58,136289
66,27,41,5,17,27,7,-111,92,-106,-28,8,-19,-213,-3,96,-6,8,-13,47,255,87,-39,-21,-9,529,-31,-19,-34,-27,-105,136290
-113,-8,61,-22,-28,-21,-178,-94,77,-30,-208,-35,144,-218,-53,-58,6,27,58,-101,-111,-65,-32,72,-171,69,63,31,25,30,235,136291
-168,-26,48,-31,-52,-55,-208,152,88,-109,-399,-11,-88,-180,-132,-99,45,60,123,-131,-254,-104,13,135,-182,-150,115,67,86,88,292,136292
-147,-21,34,-19,-46,-60,-144,74,94,-38,-327,36,-51,-106,-49,-84,35,49,108,-106,-219,-98,10,116,-145,-123,106,40,71,84,257,136293
-122,-7,24,-15,-45,-57,-102,4,47,-4,-140,-19,6,-124,57,-55,11,25,61,-100,-151,-97,-21,67,-125,-43,70,9,33,47,189,136294
-163,-15,30,-17,-56,-59,-183,-271,67,-27,-129,-58,176,-364,-33,-86,16,35,94,-135,-255,-134,-4,103,-153,-180,97,52,63,61,250,136295
-39,6,41,-6,-6,-13,-92,-52,9,-19,-134,-20,56,-34,-91,13,28,34,73,-40,-57,-34,33,63,-44,100,43,46,53,50,136,136296
-112,-4,57,-9,-10,-13,-163,-120,54,-20,-258,-41,20,15,-43,-29,80,93,154,-67,-197,-85,78,147,-71,-88,129,109,113,117,262,136297
-119,-24,31,-22,-38,-26,-169,24,92,-6,12,78,59,12,-34,-21,76,98,152,-60,-187,-87,71,155,-58,-96,130,109,108,119,231,136298
-87,-15,45,-11,-11,-6,-157,57,49,-17,-25,95,133,-74,-44,-6,84,107,155,-38,-166,-71,72,167,-30,-74,143,116,125,130,189,136299
-78,-12,37,-25,-15,-1,-138,76,-84,-125,204,-26,-51,-28,-25,-18,51,66,129,-47,-156,-69,34,135,-28,-53,106,93,97,106,135,136300
5,-11,3,-16,-17,5,-2,-10,-55,-185,-18,-20,23,85,-43,20,-40,-37,-7,-20,36,-23,-47,-15,3,227,-36,-27,-30,-8,-123,136301
-10,4,6,-9,-18,-12,11,0,8,63,-217,43,-91,222,-51,14,-31,-26,2,-22,29,-29,-30,-11,-14,211,-33,-14,-29,-18,-93,136302
111,30,-33,5,8,-4,167,-6,38,-53,-75,-40,-75,267,-15,149,-15,-32,-69,93,324,94,-5,-95,101,607,-105,-64,-75,-60,-266,136303
144,46,-16,-1,23,15,182,-297,-28,-108,-62,-136,-76,-59,14,188,-22,-26,-127,121,441,138,-11,-135,109,774,-129,-92,-111,-89,-226,136304
-16,0,43,-15,-1,6,-45,-231,-33,-19,-193,-134,129,-281,-24,19,-31,-6,-58,-40,85,-27,-46,-40,-67,290,-47,-42,-58,-45,36,136305
-53,-12,23,-11,-23,-24,-100,39,39,-3,-157,-149,29,-127,32,-48,-52,-28,-43,-99,-42,-88,-69,-22,-118,99,-25,-43,-45,-38,61,136306
37,15,7,8,-2,-7,4,151,60,3,68,-80,-38,46,56,18,-44,-28,-66,-39,108,-8,-39,-64,-49,294,-58,-58,-64,-58,-69,136307
7,7,14,-11,-8,2,-26,-15,-12,11,99,-9,-140,132,-2,18,-7,13,-1,-40,74,-25,8,-14,-44,244,-27,-4,-20,-21,7,136308
51,17,28,-5,22,41,20,-61,-26,96,258,8,-39,-24,-2,74,6,15,-7,14,176,3,21,-20,9,368,-19,-4,-15,-18,-30,136309
65,11,28,-9,26,45,16,-140,73,113,60,16,59,-165,-34,56,-38,-33,-68,-8,181,-29,-35,-77,-19,398,-75,-62,-66,-69,-140,136310
97,35,25,18,46,44,71,-8,2,108,31,20,196,-113,-62,76,-30,-23,-60,11,229,-5,-21,-79,7,493,-79,-48,-72,-69,-133,136311
331,71,-41,39,72,59,362,405,-229,-201,92,1,93,137,5,269,-65,-96,-192,187,713,187,-61,-222,189,1161,-236,-132,-177,-154,-515,136312
518,119,-56,49,112,78,571,345,-180,-100,285,103,40,196,54,435,-112,-138,-361,310,1133,331,-97,-379,301,1779,-377,-240,-303,-258,-793,136313
512,131,-49,35,94,62,575,203,-76,4,348,266,96,211,85,458,-97,-110,-378,325,1202,358,-90,-374,289,1909,-362,-230,-301,-265,-736,136314
137,64,15,11,5,-2,150,4,1,-25,244,21,205,39,-74,176,-39,-2,-141,72,497,106,-52,-103,10,965,-89,-69,-112,-101,-7,136315
-80,0,30,-10,-43,-51,-129,-49,33,-110,97,-60,-185,-236,-55,-49,-44,1,3,-104,-17,-63,-58,19,-159,262,29,-19,-19,-15,162,136316
-87,-11,24,-18,-44,-52,-123,-141,-23,-33,184,-109,-157,-255,77,-44,-15,14,33,-87,-55,-41,-27,45,-133,198,48,2,25,14,156,136317
-106,-16,33,-20,-37,-48,-114,-152,31,43,24,-179,-52,-87,20,-39,14,45,61,-65,-81,0,-7,84,-101,135,72,23,47,56,181,136318
-74,-9,31,-3,-22,-31,-91,-204,20,-72,99,-77,-194,-37,-82,-37,-4,9,36,-56,-48,35,-17,46,-85,170,35,4,24,27,149,136319
-96,-27,30,-15,-36,-31,-150,-265,-74,29,93,-90,-45,-163,-111,-75,-25,-17,38,-98,-122,-3,-31,23,-131,57,20,-10,19,3,165,136320
23,-4,13,-5,-14,-15,-33,-171,-21,212,110,-24,62,-106,11,16,-11,-28,-11,-9,94,96,-27,-21,-29,349,-23,-39,-16,-15,-74,136321
447,78,-80,33,71,49,475,287,29,76,506,218,-204,215,123,390,-89,-127,-330,305,1019,436,-80,-330,298,1635,-329,-219,-238,-216,-731,136322
566,116,-82,35,98,62,632,420,-80,46,416,181,-164,297,136,523,-95,-124,-414,390,1342,533,-88,-411,356,2113,-390,-254,-305,-273,-797,136323
549,117,-88,16,83,43,603,511,-108,-57,239,186,-206,226,129,512,-124,-143,-454,371,1401,484,-133,-446,308,2242,-416,-286,-355,-302,-775,136324
186,46,-13,-28,8,-4,170,22,66,-134,-48,100,1,175,4,230,-66,-36,-215,100,687,158,-97,-180,17,1288,-157,-131,-179,-148,-112,136325
-80,-14,42,-55,-41,-32,-126,-241,137,-10,-277,-59,192,127,-85,37,23,65,42,-57,105,-65,-24,64,-132,479,71,26,17,39,222,136326
-61,-5,43,-40,-25,-15,-101,28,23,83,29,-66,108,-167,-84,58,40,62,104,-34,106,-91,10,78,-73,473,89,61,58,69,165,136327
-18,11,50,-10,-4,-3,-59,-60,20,87,98,-88,24,-116,26,40,8,17,60,-49,108,-139,-12,19,-71,499,28,21,12,23,100,136328
-161,-36,49,-36,-38,-47,-226,-258,98,4,-184,-83,92,-94,-38,-97,2,25,69,-178,-213,-308,-29,71,-190,70,74,28,36,43,259,136329
-155,-23,53,-25,-33,-29,-224,-188,138,-15,-135,-54,197,84,-15,-101,14,42,96,-168,-267,-316,-13,98,-169,-22,99,46,68,73,258,136330
165,53,0,25,49,36,162,56,-11,21,267,-7,6,140,94,166,-15,-15,-68,91,355,-41,-25,-85,93,817,-78,-56,-46,-24,-278,136331
813,169,-132,57,170,133,918,635,-126,-177,968,253,-169,429,175,709,-155,-206,-570,552,1791,504,-142,-614,544,2815,-583,-375,-430,-374,-1302,136332
972,204,-163,38,176,130,1097,769,-216,-172,954,393,-120,473,142,852,-216,-263,-768,636,2274,662,-202,-784,587,3551,-731,-491,-602,-529,-1441,136333
212,27,-95,93,85,92,315,187,-154,118,320,217,-143,351,118,33,31,-54,-31,152,-162,88,92,-40,389,-815,-76,51,44,-12,-457,139420
166,28,-93,68,60,63,270,165,42,106,271,244,-74,306,76,13,7,-60,-61,117,-159,30,74,-64,325,-733,-88,28,-4,-44,-353,139421
150,7,-70,61,58,63,233,15,-1,22,180,117,59,297,13,-34,-43,-97,-94,56,-202,-47,23,-105,239,-711,-122,-24,-51,-86,-337,139422
161,10,-61,55,74,67,237,152,-46,-84,-128,131,-82,315,72,-21,-43,-90,-87,70,-160,-35,21,-89,230,-631,-107,-20,-47,-82,-284,139423
99,1,-81,39,24,23,193,-16,33,-101,92,191,-73,195,66,-13,0,-38,-24,82,-172,-21,66,-25,222,-653,-56,37,-5,-29,-164,139424
-253,-36,-5,26,-43,-29,-190,-114,-21,-120,-297,15,-28,-180,-44,-274,87,92,231,-149,-870,-280,127,258,-45,-1638,231,203,192,149,508,139425
-739,-132,101,11,-130,-93,-748,-444,49,-3,-597,-326,38,-270,-144,-678,227,254,646,-470,-1940,-631,250,687,-367,-3193,623,455,517,452,1247,139426
-825,-182,114,-4,-135,-93,-846,-617,193,-8,-499,-281,52,-143,-178,-776,236,234,722,-531,-2203,-683,260,735,-385,-3642,666,492,582,493,1227,139427
-577,-136,52,17,-79,-52,-531,-171,155,73,-283,-168,95,-12,-26,-602,170,126,528,-352,-1714,-465,207,513,-178,-3065,451,350,441,356,598,139428
126,12,-84,89,67,61,275,524,13,241,347,193,156,290,117,-34,32,-51,16,145,-223,126,109,-15,326,-1088,-57,42,61,26,-466,139429
335,49,-120,84,99,83,473,474,-67,241,606,291,113,249,179,149,-42,-117,-215,259,332,302,37,-214,393,-329,-241,-86,-112,-142,-629,139430
287,50,-101,68,95,80,380,235,-99,149,511,265,-27,297,144,107,-49,-111,-220,209,332,291,18,-193,291,-354,-228,-105,-127,-155,-483,139431
268,65,-80,65,85,84,352,323,-120,169,279,228,-129,291,159,111,-22,-82,-197,207,354,306,26,-156,269,-347,-187,-74,-103,-124,-376,139432
218,41,-76,45,53,65,302,362,-122,182,122,237,1,203,120,57,-51,-98,-211,165,298,259,-11,-169,208,-383,-197,-99,-120,-144,-358,139433
214,44,-72,47,55,63,269,300,-25,208,32,177,-128,-39,26,51,-48,-99,-202,140,285,233,-20,-161,179,-374,-196,-97,-132,-153,-303,139434
-214,-52,-8,-8,-42,-25,-222,-131,91,-19,-257,-81,11,-204,-59,-286,27,20,83,-174,-587,-127,25,140,-147,-1550,101,81,80,44,401,139435
-582,-142,66,-30,-111,-77,-633,-398,11,54,-460,-147,148,-255,-79,-566,145,157,441,-387,-1429,-409,140,486,-341,-2711,416,308,354,296,940,139436
-561,-129,72,-2,-83,-45,-606,-136,40,-116,-391,-104,-82,-278,-79,-567,167,152,494,-361,-1495,-404,182,508,-268,-2839,440,339,402,331,856,139437
-347,-82,27,25,-36,-7,-348,-79,147,-150,-31,-61,-109,7,-106,-408,117,76,329,-215,-1112,-272,152,339,-90,-2306,276,230,299,242,359,139438
75,4,-70,60,42,46,156,36,15,64,168,97,-154,260,39,-55,42,-20,43,91,-233,51,100,28,241,-1075,-10,46,75,31,-291,139439
184,32,-86,65,64,64,283,244,-95,105,225,102,33,150,154,56,21,-31,-50,167,62,140,77,-67,286,-650,-79,-5,-14,-46,-326,139440
174,22,-64,45,56,61,248,246,-133,206,509,46,-5,80,65,44,15,-57,-75,147,86,122,62,-78,249,-589,-102,-26,-51,-74,-279,139441
181,25,-47,46,61,65,246,169,-68,190,418,155,21,185,103,62,20,-54,-87,156,116,127,57,-75,242,-516,-104,-32,-53,-61,-297,139442
163,26,-65,29,40,47,246,191,-72,37,209,214,-44,13,75,63,-11,-51,-114,144,140,129,25,-94,227,-448,-126,-57,-68,-80,-294,139443
158,20,-69,27,33,43,252,36,-15,17,333,229,-152,-5,136,63,-39,-67,-134,150,187,120,3,-108,221,-365,-137,-77,-90,-91,-277,139444
130,16,-59,12,29,39,198,9,-156,-46,117,94,-157,13,122,63,-10,-38,-91,138,149,114,9,-74,199,-418,-99,-38,-59,-67,-197,139445
-23,4,-7,21,20,24,25,20,-132,24,-146,33,-22,71,54,-55,37,18,44,40,-153,7,52,51,84,-848,34,44,44,18,69,139446
-35,-12,-9,10,12,13,20,-93,-9,-94,66,26,22,2,36,-87,11,-11,31,13,-201,-26,39,38,54,-910,20,18,33,23,28,139447
1,-6,-50,9,0,9,103,18,-38,-41,2,70,-124,68,23,-47,1,-29,12,45,-92,31,33,10,101,-757,-6,-7,6,3,-92,139448
82,18,-66,21,15,24,213,8,-59,-72,89,212,-123,334,45,39,9,-30,-41,123,111,115,26,-30,169,-493,-50,-26,-29,-30,-227,139449
144,25,-65,21,24,27,258,161,-122,-182,319,208,-36,487,47,96,-13,-42,-113,165,269,164,21,-83,192,-286,-100,-62,-71,-68,-298,139450
102,7,-60,0,22,15,169,160,-229,-133,4,54,13,144,6,36,-43,-74,-143,100,191,112,-28,-101,120,-383,-121,-86,-97,-94,-239,139451
102,7,-42,-20,25,35,154,90,-177,-157,62,53,-43,-8,6,21,-56,-82,-149,77,187,99,-54,-120,88,-383,-143,-106,-106,-114,-253,139452
110,7,-30,-19,27,64,123,5,-65,-66,77,-61,-84,198,34,-2,-39,-74,-124,64,140,83,-37,-106,66,-444,-134,-94,-95,-102,-200,139453
93,11,-58,-5,19,46,113,15,-52,-34,103,-53,-137,275,32,16,10,-36,-76,82,130,91,6,-63,82,-478,-87,-47,-53,-63,-180,139454
206,52,-76,37,41,46,295,28,-110,67,180,123,-171,194,96,158,26,-18,-116,206,420,239,22,-88,202,-80,-101,-59,-55,-52,-289,139455
97,27,-33,30,18,27,160,94,-59,334,280,91,-101,117,65,68,23,0,-51,117,196,143,12,-16,94,-356,-35,-14,-21,-37,-98,139456
29,0,-31,0,7,15,76,64,-33,83,-49,47,99,166,65,12,13,-17,-17,60,64,83,12,-6,56,-512,-26,-22,-9,-21,-35,139457
-33,-10,-18,-13,-14,5,5,39,63,-104,-232,-22,6,-64,-11,-53,-7,-29,-15,6,-60,15,-3,6,-1,-653,-4,-35,-3,-7,52,139458
52,24,-5,22,29,42,76,175,91,71,0,55,-68,110,32,-15,-8,-20,-19,55,30,57,10,-17,44,-519,-35,-38,-17,-24,-86,139459
162,37,-24,14,56,72,137,248,-115,68,37,-25,84,-55,1,32,-59,-82,-125,91,184,107,-53,-111,82,-265,-137,-111,-110,-100,-250,139460
159,14,-32,5,44,63,118,285,-64,216,8,12,44,-187,44,28,-73,-92,-145,67,188,86,-73,-129,74,-245,-157,-117,-129,-118,-250,139461
128,25,-18,15,26,47,117,315,58,267,59,89,5,-151,87,51,-19,-34,-67,95,207,115,0,-74,98,-245,-84,-66,-67,-58,-157,139462
108,25,-41,9,10,27,151,-13,57,91,140,-8,-47,59,115,96,15,-2,-54,140,262,150,33,-51,141,-179,-50,-41,-39,-31,-156,139463
86,9,-27,0,12,32,116,96,-21,119,84,-38,13,111,59,60,-22,-30,-90,98,215,106,-31,-58,99,-218,-64,-72,-71,-57,-160,139464
219,39,-44,8,54,66,248,232,58,41,320,84,-6,77,82,140,-70,-90,-186,172,463,190,-76,-172,168,147,-186,-154,-149,-123,-415,139465
333,64,-60,17,69,90,357,133,51,-63,317,140,113,-40,79,225,-106,-140,-278,232,721,274,-96,-276,229,514,-286,-222,-241,-203,-567,139466
394,90,-49,30,82,94,399,190,-40,62,221,70,134,-65,109,297,-71,-105,-307,277,867,334,-61,-296,260,718,-297,-224,-250,-207,-557,139467
333,69,-48,8,54,52,347,123,-111,87,220,55,-73,-107,119,291,-65,-64,-287,268,813,293,-61,-243,211,696,-249,-190,-216,-172,-418,139468
88,36,-15,-5,-9,-9,116,-200,-38,86,135,44,72,70,70,103,-11,12,-104,117,328,98,-40,-44,34,61,-59,-65,-68,-42,-43,139469
102,42,-19,18,12,-7,134,-9,125,197,187,141,-51,109,6,116,24,23,-59,136,290,99,-5,-15,60,12,-31,-36,-37,-8,-95,139470
113,17,-32,4,5,-13,99,131,149,34,236,149,31,29,39,116,1,-2,-78,132,285,73,-33,-50,41,17,-62,-64,-62,-40,-143,139471
31,-3,-24,-9,-10,-21,-38,-41,63,3,-195,29,-1,-106,23,44,10,21,-20,70,100,0,-22,1,-23,-230,-12,-29,-24,-5,-20,139472
17,-5,-25,0,-15,-35,-43,5,-38,-29,-140,19,-25,-140,10,45,16,21,3,76,74,-1,-1,21,-7,-276,0,-12,-11,13,-69,139473
48,16,-16,4,-9,-7,31,-38,-142,-17,162,67,-20,127,20,54,-21,-23,-87,77,146,25,-53,-61,2,-161,-68,-75,-72,-37,-125,139474
277,61,-16,39,61,68,284,173,-40,95,188,200,60,131,45,211,-56,-83,-213,219,558,194,-78,-200,140,398,-211,-160,-165,-138,-467,139475
508,116,-51,53,117,112,588,460,-36,-150,254,93,152,156,134,399,-115,-152,-377,362,1090,394,-132,-382,296,1141,-376,-274,-298,-269,-791,139476
461,97,-57,28,92,88,544,193,14,-228,291,184,140,56,97,352,-151,-174,-410,296,1080,365,-166,-400,216,1173,-390,-304,-350,-302,-738,139477
283,63,-36,-5,52,53,318,-63,-54,-122,145,151,138,-172,59,230,-107,-98,-307,165,768,249,-112,-274,77,778,-259,-226,-265,-216,-379,139478
20,14,-1,-13,-3,-7,32,-181,-75,-51,38,45,23,-142,-54,44,-7,16,-76,22,238,71,-27,-32,-75,39,-26,-68,-66,-42,102,139479
-19,7,-5,-6,-20,-18,6,-116,82,-174,10,77,54,-127,-30,19,10,22,-7,5,142,52,-17,19,-62,-110,18,-28,-15,-6,115,139480
-2,18,0,3,-14,-12,43,-44,-17,-112,-177,105,15,-92,58,47,28,27,28,37,171,86,9,43,-14,-84,33,-1,19,26,63,139481
-31,3,-25,-13,-24,-40,36,35,-20,-72,-97,67,-45,-44,-60,37,22,22,38,30,158,91,5,44,-9,-118,27,-9,22,28,68,139482
-13,15,3,0,-5,-16,32,-78,-97,38,206,66,-77,16,-68,54,29,20,16,41,179,91,-14,39,1,-82,11,-27,15,20,8,139483
24,24,8,-2,7,-2,58,30,-122,-86,-60,-45,-248,145,54,59,11,2,-48,39,205,90,-44,-2,-1,-24,-21,-53,-22,-8,-31,139484
243,62,-28,15,50,28,299,-7,-119,-10,181,18,-34,215,37,250,14,-29,-147,217,659,282,-26,-125,185,597,-142,-114,-92,-65,-363,139485
440,95,-73,13,94,68,523,195,-158,31,541,150,-26,165,69,415,-65,-106,-345,350,1118,430,-83,-330,311,1293,-327,-237,-248,-208,-700,139486
569,115,-106,-4,111,85,645,424,-319,10,548,211,141,153,84,516,-136,-171,-478,421,1417,494,-147,-465,346,1776,-454,-322,-372,-313,-868,139487
452,118,-55,-3,90,78,489,125,-248,-92,373,277,-101,136,56,442,-93,-105,-376,332,1207,395,-118,-346,230,1524,-329,-244,-308,-245,-545,139488
-21,9,35,-53,-17,-8,-81,-80,-75,-43,-140,46,-38,-50,-20,31,-56,-16,-86,-31,217,-20,-86,-30,-164,199,-32,-92,-105,-60,104,139489
-2,-9,36,-53,-5,13,-92,-120,-33,-21,-84,112,90,15,-1,9,-63,-33,-70,-9,149,-45,-99,-33,-139,97,-46,-94,-89,-47,17,139490
-21,-23,16,-53,-22,-9,-83,-62,40,-77,-119,-8,66,-132,4,39,7,34,10,30,114,-25,-34,43,-114,15,17,-20,-14,9,92,139491
27,10,-13,-16,-10,-19,42,112,-32,-40,-157,26,31,37,4,137,85,100,64,134,215,74,34,94,-15,102,68,51,49,79,10,139492
67,40,-28,10,-2,-32,156,-42,-29,-209,25,61,23,157,-46,190,69,79,-17,170,348,120,28,21,23,256,3,6,2,26,-88,139493
69,32,-18,6,1,-24,142,39,-130,-233,-96,17,152,112,-69,138,-11,7,-93,117,330,73,-35,-61,-21,248,-81,-66,-73,-47,-171,139494
276,73,-40,21,55,44,326,267,-147,-14,221,28,277,93,-28,260,-85,-96,-224,223,711,223,-101,-220,115,798,-242,-171,-198,-156,-525,139495
683,154,-124,34,122,107,770,414,-254,-16,355,176,-109,416,62,611,-161,-203,-518,505,1636,570,-171,-516,400,2100,-517,-346,-423,-353,-1094,139496
721,172,-126,28,126,95,804,357,-212,43,351,241,36,352,59,666,-161,-174,-597,518,1802,613,-183,-548,392,2408,-533,-382,-465,-388,-1043,139497
509,128,-87,-3,73,45,555,129,-183,104,356,99,173,188,85,500,-131,-115,-477,356,1432,448,-175,-410,206,1964,-391,-309,-385,-316,-607,139498
-27,10,17,-55,-46,-57,-49,-11,-16,-129,-25,-155,290,-185,-13,77,-27,25,-83,-14,343,37,-80,-19,-159,506,-24,-61,-89,-50,190,139499
-90,-13,52,-42,-48,-54,-123,-25,95,-9,-265,-83,196,-169,-47,-7,-30,-1,-17,-71,114,-45,-77,27,-191,192,9,-40,-33,-2,148,139500
-53,1,67,-24,-25,-20,-80,112,-15,22,-195,-9,22,-145,37,29,0,27,16,-34,136,-4,-37,51,-133,194,28,-15,3,28,127,139501
-53,11,37,-32,-25,-15,-56,77,-92,34,-114,-56,9,-380,27,62,33,48,43,-7,151,32,-15,77,-81,206,54,12,24,50,142,139502
-63,3,37,-20,-21,-11,-85,-23,25,41,86,-14,-7,-88,-59,6,12,8,27,-50,69,-20,-43,51,-107,116,35,-3,3,33,41,139503
-10,9,40,-6,6,6,-44,109,15,106,14,-113,42,46,-16,9,-12,-22,9,-45,81,-12,-54,9,-95,149,-16,-24,-17,1,-24,139504
314,68,-37,12,65,44,328,298,62,50,281,96,108,76,42,278,-66,-101,-223,199,772,260,-95,-221,161,1107,-249,-167,-179,-146,-568,139505
773,154,-129,33,136,99,851,542,-105,-29,501,280,-24,183,90,686,-153,-211,-571,530,1811,630,-174,-578,485,2576,-580,-372,-445,-380,-1240,139506
926,208,-154,49,162,131,1042,796,-241,24,374,248,-62,268,227,855,-195,-237,-732,658,2274,766,-217,-709,554,3276,-694,-462,-587,-482,-1383,139507
714,168,-81,9,123,110,754,389,-104,-94,516,211,-3,191,83,672,-181,-187,-641,477,1890,566,-221,-581,311,2813,-568,-392,-526,-428,-887,139508
43,28,52,-55,-13,-2,-58,-249,102,-110,2,-188,-125,-343,-66,117,-61,-2,-152,-8,465,5,-137,-78,-214,872,-83,-97,-160,-112,160,139509
-99,-12,40,-61,-57,-52,-171,-178,46,-130,-331,-373,15,-467,-69,2,-17,32,12,-58,131,-88,-81,42,-250,374,23,-9,-41,2,181,139510
-106,-3,41,-45,-64,-60,-137,-257,8,-38,-94,-241,26,-183,-91,-1,-20,27,6,-51,84,-88,-70,28,-226,281,14,-7,-37,1,161,139511
-56,10,50,-13,-43,-49,-75,-210,31,47,43,-34,81,-170,-29,20,-34,9,-25,-17,123,-64,-70,8,-184,295,-9,-22,-41,-13,76,139512
-12,25,29,1,-25,-36,14,-15,102,15,266,22,2,-113,-8,83,-18,19,-23,39,239,3,-54,19,-121,418,-4,-9,-32,5,56,139513
-11,-4,-8,-35,-44,-48,27,34,68,99,210,-70,-92,48,-20,113,-16,28,-16,61,296,50,-48,8,-90,487,-8,-5,-26,5,-34,139514
589,119,-102,15,92,70,665,340,-44,-46,466,213,-229,306,45,589,-113,-149,-405,487,1512,525,-124,-421,368,2169,-426,-262,-334,-275,-1076,139515
1523,325,-244,93,305,242,1671,846,-227,73,1146,638,-37,652,238,1333,-310,-402,-1147,1100,3494,1230,-304,-1153,971,5012,-1111,-715,-892,-757,-2400,139516
1709,370,-267,67,322,251,1843,1111,-280,462,1092,644,-34,626,285,1504,-403,-470,-1423,1171,4078,1355,-414,-1373,979,5993,-1303,-882,-1117,-948,-2499,139517
1267,287,-151,8,214,169,1320,739,-234,117,661,367,107,360,227,1167,-347,-342,-1152,813,3306,997,-406,-1084,554,5062,-1012,-715,-952,-806,-1589,139518
47,47,79,-107,-51,-54,-42,-119,61,-71,-276,-187,238,-327,-61,207,-109,-2,-284,-32,843,61,-236,-167,-314,1727,-142,-190,-298,-203,303,139519
-227,-7,105,-99,-99,-91,-325,-234,113,10,-439,-262,-19,-194,-146,-1,25,101,73,-147,154,-101,-92,151,-364,741,141,21,1,74,543,139520
-221,-6,80,-84,-83,-84,-294,-341,94,-194,-455,-161,85,-183,-156,5,45,106,126,-123,74,-94,-50,169,-296,588,161,52,57,119,442,139521
-235,-39,61,-91,-85,-89,-318,-397,-39,-279,-403,-271,13,-132,-187,-52,11,70,91,-176,-42,-135,-76,138,-300,405,124,29,36,84,371,139522
-192,-39,64,-77,-83,-67,-286,-241,24,-148,-341,-246,-50,-80,-137,-57,-14,33,71,-163,-31,-130,-83,98,-269,405,88,8,9,63,298,139523
-160,-37,51,-73,-60,-47,-249,-345,3,-198,-285,-82,152,-175,-90,-32,8,44,81,-134,-8,-95,-61,100,-232,401,84,22,19,65,218,139524
273,53,-15,-2,43,46,243,195,-16,54,324,116,-28,98,6,328,-48,-53,-175,183,831,257,-87,-171,115,1550,-196,-130,-166,-88,-530,139525
846,160,-112,24,156,124,895,615,-163,47,597,274,-137,388,199,824,-154,-189,-593,593,2097,721,-169,-596,522,3326,-591,-372,-481,-375,-1317,139526
1192,256,-178,45,205,159,1302,703,-187,-29,845,530,-288,598,207,1141,-222,-260,-873,859,2968,1017,-247,-871,743,4612,-831,-537,-697,-582,-1818,139527
1164,266,-167,17,191,137,1252,549,-297,-24,642,390,-197,606,193,1138,-254,-267,-955,820,3060,975,-302,-925,626,4844,-858,-580,-775,-645,-1599,139528
60,38,43,-94,-48,-65,-41,-196,49,-120,-311,-276,107,-371,-52,254,-38,60,-215,31,815,71,-138,-115,-234,1818,-83,-108,-219,-139,285,139529
-266,-23,97,-88,-107,-106,-389,-491,191,-140,-560,-458,144,-493,-129,-18,54,148,147,-152,-37,-212,-40,203,-388,621,192,95,67,111,603,139530
-169,-8,80,-60,-74,-73,-258,-371,173,-123,-326,-375,5,-324,-98,5,-3,67,59,-112,20,-198,-94,90,-317,711,93,10,5,46,312,139531
-244,-27,94,-54,-85,-76,-324,-408,107,-27,-85,-375,80,-278,-78,-92,-13,51,87,-191,-213,-305,-83,125,-369,401,118,36,21,58,371,139532
-243,-30,82,-51,-80,-82,-309,-197,93,125,-38,-279,131,-393,-3,-81,2,76,143,-173,-276,-312,-58,162,-333,303,152,73,69,101,364,139533
-139,-17,76,-28,-46,-58,-212,-53,71,134,80,-165,70,-484,20,6,23,82,139,-74,-135,-215,-27,147,-222,500,137,79,65,101,231,139534
522,103,-57,13,101,64,517,511,-60,176,549,131,-7,53,168,535,-108,-127,-349,403,1232,333,-124,-364,286,2371,-359,-230,-288,-214,-1004,139535
1780,356,-269,94,362,292,1914,1189,-402,-134,1119,705,-133,703,420,1544,-402,-504,-1352,1234,3963,1327,-377,-1382,1131,6210,-1320,-864,-1051,-897,-2956,139536
2360,497,-349,97,453,377,2553,1554,-591,-232,1712,811,-97,783,387,2072,-565,-658,-1918,1595,5509,1813,-570,-1913,1416,8468,-1792,-1213,-1506,-1301,-3603,139537
1645,361,-208,-25,264,206,1727,971,-340,-4,1029,371,-47,330,200,1573,-451,-442,-1535,1076,4369,1305,-521,-1448,774,7037,-1326,-953,-1246,-1058,-2107,139538
-51,32,95,-176,-109,-120,-182,-434,-3,-132,-447,-361,44,-418,-130,237,-102,51,-275,-84,969,42,-241,-142,-429,2363,-89,-164,-304,-205,552,139539
-437,-41,157,-151,-161,-160,-581,-709,179,-338,-433,-332,109,-340,-197,-82,60,194,218,-276,-1,-192,-71,288,-535,889,293,115,90,157,888,139540
-434,-62,127,-137,-161,-160,-547,-567,135,-349,-440,-404,-25,-234,-247,-117,60,156,242,-268,-110,-159,-57,276,-469,655,275,108,119,180,726,139541
-363,-47,117,-119,-131,-137,-481,-453,155,-149,-396,-352,49,-226,-98,-98,51,128,199,-241,-87,-100,-60,234,-397,627,234,88,106,162,586,139542
-273,-30,101,-84,-93,-98,-403,-321,249,-74,-254,-281,123,-324,-116,-53,59,117,204,-183,4,-19,-25,206,-310,689,193,95,109,158,488,139543
-250,-41,87,-81,-82,-86,-360,-485,102,-94,-177,-293,101,-327,-184,-24,68,116,205,-159,37,24,1,199,-253,685,184,99,123,154,403,139544
-11,6,56,-43,-25,-32,-72,-233,-42,-41,-147,-149,26,-39,-46,169,46,72,82,36,489,200,6,63,-44,1267,55,30,35,75,10,139545
469,107,-36,10,82,44,482,288,-89,172,216,80,-168,365,85,532,-61,-82,-284,352,1442,527,-102,-303,264,2630,-293,-202,-235,-170,-755,139546
1061,226,-117,44,210,156,1117,502,-82,95,733,359,-297,397,223,981,-249,-292,-805,708,2688,915,-291,-827,593,4457,-789,-546,-650,-542,-1645,139547
807,176,-63,-10,140,101,790,421,-27,-18,414,172,-87,120,122,767,-257,-250,-756,460,2244,621,-322,-744,285,4003,-672,-520,-638,-539,-1090,139548
-111,-5,103,-90,-72,-76,-245,-71,90,-180,-288,-201,-9,-438,-125,79,-13,76,-45,-134,349,-125,-112,13,-352,1485,39,-35,-101,-47,464,139549
-317,-48,108,-93,-121,-123,-422,-197,172,-178,-342,-297,-41,-293,-144,-35,82,162,215,-189,-217,-315,6,252,-377,773,242,138,128,155,636,139550
-276,-33,88,-77,-102,-105,-328,-251,82,-45,-196,-275,-29,8,-86,-37,35,113,165,-173,-288,-397,-22,200,-331,775,180,90,94,134,465,139551
-264,-42,97,-82,-93,-85,-327,-274,126,32,-193,-160,-159,-39,-127,-103,-26,33,104,-222,-434,-520,-79,130,-369,678,109,30,41,67,311,139552
-160,-26,104,-66,-47,-34,-255,-152,62,-5,-347,-101,-34,-35,-54,-65,-56,-4,45,-189,-359,-512,-106,57,-327,818,53,-16,-5,26,175,139553
-35,-4,90,-53,-6,0,-160,20,163,-27,-398,-110,-1,-356,17,51,-31,9,23,-87,-183,-412,-78,33,-216,1069,31,-22,-10,29,97,139554
-46,3,94,-40,3,-9,-164,-45,68,-239,-230,-185,-74,-235,-39,65,1,33,25,-68,-150,-347,-57,45,-189,1040,33,-1,3,28,73,139555
273,63,7,-17,48,6,231,222,-23,93,320,75,-153,-111,12,370,-28,-24,-175,187,631,34,-64,-180,97,2008,-167,-115,-149,-109,-430,139556
201,53,14,-34,17,-32,147,166,-112,416,166,46,-255,-151,61,343,14,34,-102,155,629,113,-19,-105,56,1901,-88,-49,-86,-60,-196,139557
126,48,36,-34,9,-16,43,154,-33,161,-27,-61,-63,-121,23,240,-15,7,-86,72,552,116,-69,-88,-28,1680,-73,-57,-85,-63,-63,139558
-126,-19,91,-51,-34,-41,-268,-121,92,-18,-298,-168,-59,-316,-38,-32,-36,19,49,-166,53,-47,-99,51,-273,865,54,-7,-10,2,180,139559
-179,-41,86,-60,-54,-50,-316,-142,164,-20,-131,-223,-160,-265,-119,-85,-21,37,92,-189,-41,-6,-80,101,-271,644,86,15,30,56,201,139560
-136,-22,75,-34,-43,-44,-254,-335,260,-11,43,-250,119,-82,-68,-46,8,51,104,-137,76,111,-59,103,-199,708,89,31,57,65,232,139561
-101,-9,88,-7,-26,-34,-222,-207,186,-12,19,-119,219,50,-6,-5,48,77,141,-84,174,202,-5,136,-137,736,123,79,103,85,226,139562
-130,-18,75,-27,-39,-56,-221,142,60,-92,-157,-114,267,-197,49,-12,43,88,167,-93,180,220,14,155,-129,651,141,87,116,95,292,139563
-171,-28,60,-25,-56,-67,-246,-38,104,77,-47,-124,250,-217,-53,-54,18,66,164,-142,113,186,-7,145,-166,537,132,63,101,85,320,139564
-205,-33,64,-22,-47,-57,-289,-92,82,120,-218,-66,97,-149,-75,-132,-41,11,112,-197,-10,79,-67,103,-234,390,94,17,53,50,262,139565
-357,-61,108,-39,-75,-75,-473,-204,122,36,-439,-112,353,-255,-69,-245,28,83,271,-297,-389,-81,-9,267,-342,-135,241,132,173,160,581,139566
-531,-108,126,-44,-123,-116,-659,-350,174,-107,-589,-222,249,-183,-105,-370,116,169,461,-388,-817,-247,82,451,-410,-720,397,261,329,293,818,139567
-440,-100,79,-37,-104,-110,-513,-262,109,-95,-271,-290,278,-278,-93,-310,71,116,361,-327,-746,-261,64,353,-324,-540,311,194,284,230,546,139568
-167,-32,45,4,-32,-41,-178,-187,121,82,83,-123,286,-115,-43,-78,32,47,168,-133,-307,-173,47,156,-121,195,125,99,143,107,194,139569
-104,3,57,21,-2,-13,-126,-21,77,73,5,-16,46,40,8,-35,47,60,137,-98,-346,-275,51,133,-107,330,118,95,125,100,169,139570
-41,7,34,22,9,-8,-76,96,-17,39,-58,38,42,-170,-53,-19,-10,3,61,-102,-375,-404,-3,53,-116,491,47,44,47,34,71,139571
-69,-23,46,2,-3,-3,-130,23,51,-18,-51,13,240,-281,-52,-57,-53,-23,47,-143,-519,-531,-39,33,-167,444,39,12,15,11,116,139572
-102,-32,53,-23,-22,-22,-188,-108,90,-16,-139,-79,228,-140,-26,-67,-15,16,93,-153,-646,-583,-9,86,-168,358,87,51,64,53,206,139573
-95,-12,55,-17,-18,-23,-184,-162,113,-45,-100,-55,123,58,2,-56,14,41,109,-123,-635,-551,18,110,-139,358,109,85,91,81,209,139574
-239,-57,73,-35,-48,-39,-357,-274,5,-170,-262,-144,-107,-102,7,-154,63,98,217,-203,-857,-570,61,225,-222,-37,228,162,183,155,468,139575
-602,-124,153,-59,-112,-88,-798,-362,186,144,-553,-233,49,-351,-118,-450,152,216,513,-447,-1547,-727,156,524,-460,-1186,502,327,398,345,1069,139576
-1063,-227,220,-95,-212,-183,-1286,-837,317,-44,-581,-420,75,-444,-247,-826,237,325,851,-744,-2440,-947,226,864,-723,-2650,808,541,661,576,1687,139577
-881,-187,164,-39,-157,-148,-992,-578,218,-76,-449,-248,-168,-255,-157,-695,229,281,807,-567,-2065,-649,233,786,-484,-2398,720,507,646,570,1249,139578
-115,-29,12,51,14,-3,-54,108,-83,67,39,110,-199,122,-10,-89,91,57,281,-36,-414,63,142,217,101,-328,174,178,235,188,32,139579
48,3,-34,34,31,4,118,229,-123,8,262,108,-115,149,62,43,20,0,48,37,96,244,64,14,150,292,1,44,62,20,-96,139580
-26,-23,-18,-1,16,-2,-17,61,-74,-82,120,-43,-104,148,-26,-23,14,8,55,-27,54,238,49,40,60,164,32,48,60,24,-2,139581
-30,-22,22,-3,31,29,-72,-48,-16,37,64,-44,-16,142,1,-52,3,-2,74,-51,57,247,30,50,27,118,39,40,60,38,47,139582
-50,-20,39,-14,23,16,-89,-125,-138,3,91,31,71,-89,38,-22,40,47,113,-23,109,295,64,102,45,116,86,87,106,83,142,139583
-91,-11,40,1,10,1,-92,96,-44,-16,-15,100,-90,-89,-17,-19,79,87,154,-13,84,293,92,151,41,65,133,122,151,122,197,139584
-243,-48,56,-10,-32,-27,-266,-100,-25,-45,-279,-37,11,-184,-38,-205,38,59,191,-176,-298,78,57,188,-126,-408,169,123,153,112,404,139585
-616,-130,118,-30,-98,-77,-713,-417,136,-64,-424,-258,40,-484,-102,-577,57,99,402,-509,-1214,-343,69,408,-473,-1616,386,235,296,226,960,139586
-1133,-229,207,-55,-209,-181,-1273,-726,320,46,-617,-495,197,-556,-278,-994,199,278,831,-858,-2423,-801,198,860,-797,-3294,790,514,648,547,1747,139587
-1126,-221,170,-9,-202,-192,-1208,-610,328,80,-559,-310,47,-422,-203,-938,305,357,1012,-767,-2583,-795,318,1000,-632,-3554,901,646,810,701,1642,139588
-156,-37,-9,77,18,-8,-92,165,35,71,31,203,-100,86,25,-186,101,39,328,-87,-730,-131,162,265,93,-922,201,209,289,244,5,139589
97,2,-21,63,72,67,139,211,-16,64,238,230,40,96,96,-39,-48,-83,-15,-1,-268,-118,12,-34,131,-77,-62,-11,11,-16,-300,139590
57,-18,-4,46,59,69,55,169,-93,30,1,109,61,37,45,-74,-34,-58,-13,-59,-419,-266,17,-8,32,-120,-31,-10,8,-21,-124,139591
54,-13,-26,28,48,30,55,166,-17,-76,-8,45,-103,198,18,-37,8,-12,19,-22,-411,-277,68,16,55,-23,6,23,38,6,-46,139592
46,7,-7,34,45,30,51,98,73,89,-118,65,-68,162,-12,-15,40,26,44,-4,-412,-277,97,43,52,7,36,54,60,27,40,139593
31,9,-18,36,38,16,63,-120,-81,24,-142,77,80,100,-39,-45,0,-9,15,-26,-406,-287,67,7,27,12,1,35,34,2,-13,139594
-279,-43,50,17,-33,-44,-258,-174,39,190,-266,-109,34,-47,10,-298,48,75,225,-257,-984,-485,96,222,-214,-852,229,164,193,143,603,139595
-1102,-215,194,-52,-206,-177,-1165,-668,186,-24,-842,-470,-65,-540,-177,-962,194,292,807,-826,-2652,-1053,192,820,-789,-3299,802,510,636,540,1801,139596
-1453,-295,269,-51,-254,-204,-1578,-908,336,-426,-1251,-634,142,-593,-267,-1307,274,370,1153,-1061,-3532,-1271,281,1136,-972,-4725,1077,709,900,765,2176,139597
-1083,-246,155,-2,-177,-153,-1167,-537,235,-102,-598,-407,78,-349,-216,-1072,186,214,905,-797,-2869,-929,240,851,-631,-4010,785,525,720,596,1316,139598
-135,-71,-28,73,23,17,-114,109,135,70,449,111,53,210,28,-272,43,-19,233,-97,-857,-97,149,150,94,-1376,114,124,230,148,-30,139599
119,-15,-44,72,77,49,144,356,51,155,244,204,50,198,57,-42,-16,-66,13,58,-178,132,96,-66,222,-481,-68,7,47,-18,-265,139600
111,1,-36,67,71,42,158,271,70,301,105,268,-10,54,70,-41,-29,-57,-4,43,-89,149,82,-64,177,-364,-63,1,21,-37,-233,139601
93,14,-39,75,64,35,182,281,126,195,277,227,-94,133,63,-3,3,-19,2,77,-1,188,97,-34,187,-260,-36,19,35,-16,-144,139602
63,12,-38,59,46,19,147,233,16,93,119,176,-170,217,67,-11,7,-23,6,60,2,186,75,-12,149,-250,-24,23,32,-14,-143,139603
49,13,-27,52,33,-1,92,158,40,72,30,57,-13,132,54,-40,3,-12,13,29,-48,135,78,0,109,-287,-8,23,35,2,-37,139604
-216,-46,-5,8,-41,-74,-215,-83,73,-23,-33,-68,173,34,-98,-235,63,69,177,-143,-554,-74,120,193,-73,-973,170,139,173,119,428,139605
-641,-122,74,-36,-128,-119,-679,-460,168,-97,-546,-190,-9,-94,-189,-574,144,188,481,-446,-1470,-424,182,504,-363,-2224,465,323,401,319,1041,139606
-1049,-224,164,-48,-181,-153,-1144,-516,193,63,-882,-351,45,-371,-229,-949,212,274,826,-744,-2457,-799,242,825,-649,-3636,768,526,649,537,1619,139607
-909,-202,145,-12,-130,-99,-994,-469,228,114,-747,-301,69,-354,-185,-865,215,233,836,-614,-2348,-709,271,795,-477,-3546,718,524,661,547,1250,139608
-59,-39,-1,69,53,69,-31,217,-35,89,244,107,-117,120,70,-226,5,-51,188,-57,-684,-94,98,122,123,-1231,81,101,176,106,-205,139609
191,11,-33,70,94,109,240,315,-152,82,478,332,-160,184,113,-24,-67,-116,-84,62,-100,54,19,-116,220,-354,-126,-60,-39,-77,-423,139610
137,5,-31,50,72,89,173,293,-38,164,282,293,15,148,68,-28,-44,-74,-59,47,-132,15,37,-74,168,-332,-74,-29,-16,-54,-274,139611
175,16,-45,57,78,87,216,316,-81,79,54,249,3,76,8,35,-38,-68,-85,88,-11,65,39,-100,194,-123,-88,-36,-29,-63,-317,139612
181,37,-52,66,81,82,229,109,-77,-4,185,197,-73,149,41,55,-17,-50,-83,112,42,85,60,-89,198,-30,-78,-19,-28,-58,-234,139613
189,32,-84,51,60,42,274,25,-84,29,205,126,-116,328,70,79,-40,-63,-137,111,134,101,34,-128,190,113,-115,-53,-68,-88,-264,139614
-315,-68,8,-6,-66,-57,-268,-342,-34,-223,-289,-93,92,36,-55,-332,23,63,176,-264,-843,-297,81,201,-216,-1233,207,127,153,108,617,139615
-974,-204,129,-49,-196,-157,-1021,-606,152,-342,-644,-473,4,-221,-168,-914,136,222,673,-723,-2295,-825,168,705,-685,-3315,674,418,516,441,1552,139616
-1165,-249,166,-27,-214,-174,-1231,-709,345,-276,-605,-399,-43,-193,-195,-1086,230,294,938,-813,-2841,-948,289,927,-738,-4205,865,590,730,629,1757,139617
-799,-180,102,29,-114,-93,-798,-383,220,-59,-191,-68,25,61,-135,-754,242,235,785,-498,-2152,-603,332,738,-364,-3400,668,501,644,549,1048,139618
-7,-27,-67,80,41,40,81,334,-62,115,300,245,13,359,75,-102,85,-1,173,64,-486,33,168,112,212,-1144,88,124,190,147,-242,139619
204,15,-89,87,72,69,287,228,-155,201,208,271,63,284,138,57,1,-72,-65,163,42,170,71,-108,279,-394,-108,-15,-8,-43,-418,139620
148,21,-61,68,69,58,219,139,-74,143,129,206,55,167,89,12,-24,-59,-58,103,-8,114,56,-82,182,-441,-91,-13,-22,-57,-266,139621
166,10,-62,65,72,67,211,100,-138,29,220,112,-99,57,-9,14,-40,-68,-79,96,42,104,49,-103,151,-354,-112,-31,-48,-71,-304,139622
96,5,-38,58,62,71,124,107,-58,74,207,82,-113,114,1,-47,-42,-69,-82,32,-69,33,26,-85,69,-495,-87,-36,-53,-63,-191,139623
83,10,-22,56,55,69,102,252,17,12,184,208,-39,-13,141,-47,-34,-55,-45,33,-72,22,29,-60,70,-519,-70,-19,-31,-49,-160,139624
-88,-27,-2,21,7,20,-88,56,-20,-50,-67,112,-173,-121,68,-147,27,15,98,-63,-373,-59,83,82,-22,-911,71,93,85,47,143,139625
-379,-90,37,-11,-61,-33,-409,-254,53,-84,-88,-63,-238,-117,-27,-360,95,117,305,-240,-959,-264,149,308,-204,-1728,296,230,242,203,593,139626
-774,-169,95,-41,-140,-107,-846,-460,71,-147,-216,-289,-36,-171,-177,-696,185,225,604,-522,-1843,-581,229,619,-457,-2965,598,424,484,406,1207,139627
-866,-188,112,-24,-153,-109,-927,-396,217,-47,-433,-420,29,-235,-194,-781,231,242,751,-553,-2146,-646,281,739,-441,-3444,684,520,603,519,1233,139628
-94,-42,-39,54,19,27,-31,148,57,94,181,49,-52,398,57,-178,77,15,238,1,-631,-33,167,171,159,-1384,140,163,218,165,-95,139629
185,18,-91,63,69,61,282,227,-83,52,232,129,-97,519,13,49,-16,-58,-63,152,2,161,80,-103,295,-446,-92,-12,-10,-37,-398,139630
138,14,-69,43,53,42,202,210,-23,48,153,144,-89,64,16,35,7,-19,-37,122,-45,134,91,-47,238,-468,-36,24,11,-11,-252,139631
155,28,-56,51,67,60,191,158,-60,10,127,32,36,140,93,40,4,-24,-48,122,-17,143,79,-65,235,-389,-49,8,-7,-28,-281,139632
140,22,-62,47,58,63,198,93,-38,44,238,82,-123,-74,39,26,-31,-54,-82,113,-6,108,38,-95,209,-323,-81,-25,-32,-63,-276,139633
152,38,-59,56,52,52,266,170,-53,79,450,251,25,30,93,65,-17,-46,-86,145,69,134,50,-98,227,-176,-91,-23,-43,-70,-305,139634
-316,-62,5,-2,-75,-68,-244,-380,143,152,-39,30,73,-47,-22,-294,50,75,207,-193,-839,-236,110,228,-147,-1402,229,163,161,114,570,139635
-1265,-266,161,-80,-269,-217,-1333,-1041,384,-64,-951,-402,339,-413,-264,-1089,251,333,918,-852,-2889,-990,263,970,-822,-4327,913,610,722,605,1961,139636
-1208,-251,162,-26,-219,-157,-1276,-720,280,-257,-852,-400,229,-458,-242,-1107,257,306,961,-810,-2968,-962,291,972,-717,-4607,903,616,774,663,1739,139637
-1002,-241,112,-12,-170,-112,-1070,-442,206,-1,-458,-355,83,-242,-192,-995,203,215,836,-693,-2653,-818,274,809,-560,-4292,732,529,675,566,1294,139638
-112,-59,-37,62,38,71,-96,102,-21,64,126,59,-164,242,69,-284,56,-27,241,-61,-861,-110,153,166,111,-1899,114,156,245,168,-163,139639
330,43,-123,86,124,130,413,170,-181,58,251,275,-220,497,155,123,-21,-109,-137,243,231,254,91,-182,369,-434,-200,-40,-34,-89,-641,139640
268,38,-118,69,84,79,374,296,-178,112,363,254,-217,317,142,121,-21,-91,-144,205,290,232,76,-169,290,-357,-172,-37,-67,-108,-505,139641
161,20,-115,36,42,23,279,194,-147,0,164,208,-298,75,63,45,-40,-77,-122,122,179,157,38,-153,173,-496,-137,-39,-77,-100,-353,139642
192,41,-102,57,60,47,298,18,-84,32,132,188,-238,255,118,70,-37,-69,-162,141,269,183,42,-166,165,-354,-157,-58,-95,-108,-359,139643
166,29,-68,40,61,51,218,84,-96,61,97,110,-74,261,63,25,-43,-71,-152,104,226,142,22,-156,119,-418,-150,-56,-101,-117,-267,139644
-109,-31,-10,-12,-10,4,-93,-101,-14,45,13,-100,-43,74,42,-164,32,22,64,-69,-285,-52,75,61,-71,-1119,68,91,60,28,225,139645
-595,-131,37,-56,-135,-113,-616,-237,141,-20,-322,-163,7,-163,-92,-534,137,171,430,-373,-1293,-406,178,442,-358,-2512,426,324,346,293,930,139646
-706,-157,50,-37,-139,-128,-761,-344,140,-32,-553,-123,109,-326,-110,-657,162,182,544,-463,-1665,-520,212,533,-412,-3031,516,378,434,360,1024,139647
-690,-168,70,-4,-116,-90,-769,-361,144,-84,-561,-158,6,-126,-86,-695,171,174,575,-461,-1802,-547,229,552,-380,-3232,526,376,460,381,950,139648
-119,-44,-56,48,6,-2,-85,132,-33,85,12,103,-133,141,10,-231,73,25,211,-14,-689,-83,157,155,100,-1682,137,150,207,155,-6,139649
159,16,-115,58,51,36,281,336,-139,230,166,312,-141,255,48,48,0,-54,-30,188,-26,159,96,-93,314,-679,-80,14,12,-27,-388,139650
173,34,-89,60,56,38,295,100,-94,134,-16,190,-94,335,134,64,-6,-52,-84,192,-1,153,77,-113,302,-516,-95,6,-26,-58,-328,139651
157,43,-81,68,52,34,260,208,2,24,-41,138,-115,53,55,39,-4,-47,-104,162,-70,116,62,-100,250,-521,-105,-1,-36,-65,-274,139652
108,13,-82,39,25,27,189,152,-53,33,10,105,-142,-17,42,-5,-31,-59,-110,119,-158,60,46,-106,185,-585,-103,-24,-55,-82,-226,139653
79,4,-60,27,17,16,169,143,-21,-26,91,-1,-206,120,19,-2,0,-35,-76,118,-192,44,52,-71,172,-602,-68,-14,-31,-50,-130,139654
-122,-29,-29,-2,-26,-27,-51,15,158,10,-72,1,46,36,-103,-162,3,-1,15,-42,-572,-124,46,45,-16,-1116,44,47,31,4,198,139655
-765,-164,60,-36,-165,-145,-757,-526,189,19,-487,-250,132,-294,-184,-688,143,168,502,-497,-1911,-618,173,533,-472,-3025,503,360,398,327,1157,139656
-701,-155,34,-12,-137,-110,-698,-404,55,550,-589,-204,-20,-247,-86,-658,171,171,551,-434,-1877,-554,226,558,-376,-3125,509,373,449,372,949,139657
-480,-116,30,22,-61,-16,-522,-301,30,148,-695,-105,-4,-174,-63,-520,148,126,448,-310,-1507,-395,194,423,-227,-2732,389,317,369,297,536,139658
-58,-31,-27,57,43,69,-68,-215,37,21,-98,76,-45,-1,12,-197,52,11,166,-21,-591,-49,120,116,88,-1578,92,133,164,120,-173,139659
241,35,-92,68,87,94,306,-3,-63,84,326,194,-123,163,69,84,0,-64,-82,193,182,243,81,-127,287,-549,-140,-11,-42,-52,-511,139660
234,55,-80,72,73,78,320,245,-135,-15,217,71,-90,215,132,111,18,-43,-97,195,296,267,68,-124,258,-437,-133,-18,-63,-62,-407,139661
194,35,-90,42,40,44,288,286,-174,-223,5,124,-98,208,73,82,-38,-80,-169,143,327,232,14,-176,183,-402,-169,-68,-119,-128,-434,139662
170,9,-94,31,38,44,249,268,-83,-58,-24,124,-104,250,34,23,-87,-110,-196,85,281,176,-35,-199,102,-446,-194,-106,-149,-161,-365,139663
149,17,-76,34,34,44,211,202,-125,94,141,55,-60,167,107,10,-79,-101,-167,66,249,168,-28,-181,80,-475,-168,-83,-142,-144,-326,139664
110,11,-70,28,25,30,183,227,-71,67,-1,90,-82,116,53,8,-35,-65,-112,62,220,166,-7,-133,72,-511,-118,-56,-100,-96,-255,139665
315,60,-88,40,79,74,415,235,-200,12,210,206,-85,276,118,213,-28,-74,-203,260,670,356,3,-239,274,125,-214,-98,-154,-142,-541,139666
632,127,-147,58,139,127,768,415,-206,-92,375,296,-128,451,210,492,-86,-168,-454,505,1370,619,-48,-483,502,1178,-447,-249,-337,-310,-1033,139667
656,124,-142,31,128,116,774,548,-343,26,459,359,101,445,189,495,-158,-213,-580,471,1459,576,-132,-583,439,1435,-535,-340,-445,-406,-1002,139668
168,28,-41,-21,14,20,210,128,-193,-102,-60,13,-33,217,69,129,-64,-66,-250,128,463,170,-58,-226,69,172,-197,-125,-205,-188,-156,139669
21,1,-27,-31,-13,-7,22,-30,-66,-49,-205,-46,-93,130,-16,24,-1,-24,-79,80,65,35,10,-73,30,-274,-62,-28,-64,-68,-17,139670
92,22,-46,-36,-2,1,83,127,-16,20,53,67,-155,77,52,98,-15,-43,-118,167,149,66,-6,-119,123,-43,-104,-46,-79,-82,-137,139671
14,11,-12,-45,-11,9,-24,-34,78,148,252,73,-6,93,128,58,14,0,-29,141,-60,-15,17,-22,89,-251,-11,26,-12,-21,15,139672
34,-8,-31,-48,-14,-10,0,-91,-64,-11,152,46,-105,194,47,60,2,-11,-48,150,-68,-20,4,-32,105,-211,-25,-3,-26,-33,-88,139673
131,16,-34,-8,20,21,124,235,-34,-8,-175,96,-135,229,49,113,-19,-36,-108,184,33,4,-18,-100,141,-30,-86,-61,-79,-73,-190,139674
339,69,-54,45,87,85,365,320,-92,23,114,165,-6,157,46,244,-47,-82,-252,295,404,143,-52,-233,254,473,-241,-155,-182,-159,-544,139675
1165,247,-193,127,276,245,1319,805,-278,138,827,491,-28,402,190,917,-207,-320,-843,869,2196,831,-170,-854,824,2935,-845,-520,-639,-564,-1832,139676
1419,301,-246,101,282,240,1641,911,-408,478,972,565,-213,580,298,1191,-287,-381,-1126,1017,3035,1105,-248,-1107,931,4123,-1055,-674,-873,-771,-2105,139677
1117,261,-210,31,179,141,1331,482,-358,201,642,450,-115,456,205,1036,-219,-257,-940,826,2722,967,-227,-899,681,3681,-824,-545,-744,-630,-1455,139678
247,98,-43,-38,-8,-23,341,22,-199,-89,-122,52,-71,68,-44,342,-60,0,-316,204,1055,326,-115,-245,31,1329,-191,-153,-281,-212,-49,139679
-122,18,19,-61,-79,-67,-91,-107,-107,-189,-333,-179,-90,-171,-12,2,8,68,-29,-64,216,46,-69,40,-215,96,60,2,-57,-10,321,139680
-118,-6,20,-47,-57,-32,-121,-271,-162,-205,-93,-209,98,-199,-29,-39,-2,37,-10,-86,143,41,-78,36,-190,-88,50,2,-34,6,250,139681
-66,-14,25,-39,-41,-13,-99,-153,-88,-1,-252,-135,213,-198,-62,-50,-37,-28,-58,-97,200,60,-110,-36,-172,-78,-30,-61,-78,-42,89,139682
-92,-24,38,-40,-40,-14,-149,-265,118,27,-266,-185,244,-306,-152,-98,-34,-22,-27,-138,104,37,-94,-29,-193,-272,-19,-50,-63,-37,121,139683
-88,-31,10,-41,-48,-19,-97,-182,-35,-50,-17,-124,1,-152,-166,-72,-17,-23,4,-104,140,73,-66,-29,-148,-257,-19,-16,-36,-24,114,139684
136,21,-24,3,6,17,177,67,-54,-28,15,98,52,40,25,123,-46,-73,-118,69,584,254,-79,-171,38,353,-146,-102,-123,-110,-288,139685
394,70,-74,29,56,57,482,187,-117,74,263,179,190,6,120,345,-113,-150,-315,257,1161,450,-143,-380,230,1200,-347,-233,-292,-250,-692,139686
716,144,-109,38,127,132,843,490,-165,86,618,246,11,335,154,621,-179,-236,-597,487,1843,677,-202,-640,441,2246,-589,-399,-493,-410,-1184,139687
821,153,-132,9,144,146,925,540,-278,1,426,329,-18,286,156,701,-237,-283,-784,533,2101,686,-278,-781,441,2740,-713,-523,-622,-532,-1241,139688
144,30,-16,-42,-9,6,140,-153,55,-76,-192,-12,24,118,-65,172,-79,-55,-285,68,673,104,-153,-263,-83,915,-207,-194,-257,-208,-26,139689
-92,-6,36,-39,-46,-40,-111,-222,147,-108,-246,-166,26,-223,-12,-20,5,29,-22,-43,-7,-135,-62,-10,-186,97,10,-28,-43,-8,243,139690
11,25,13,-7,-18,-28,46,-148,-49,-17,0,-80,3,28,-10,57,-1,-9,-60,50,58,-126,-53,-63,-73,305,-47,-58,-64,-39,61,139691
-37,13,3,-16,-51,-58,40,-171,-4,-70,50,-74,-92,62,-11,25,-2,-5,-31,37,-105,-214,-56,-26,-97,175,-17,-48,-46,-20,127,139692
23,28,15,9,-19,-37,77,-3,-33,-61,-47,-140,178,165,17,48,-24,-25,-69,55,-106,-223,-79,-64,-70,232,-54,-70,-68,-44,12,139693
87,27,20,7,8,5,79,58,-64,66,-171,-25,71,138,-45,68,-52,-46,-116,80,-39,-193,-91,-113,-37,350,-101,-101,-98,-79,-106,139694
330,65,-42,-3,48,43,329,439,-181,-13,375,131,-16,288,54,302,-62,-85,-240,280,518,69,-94,-258,185,1078,-252,-166,-187,-145,-540,139695
1019,199,-160,51,200,164,1102,763,-184,-62,891,344,3,511,129,900,-183,-247,-727,764,2111,701,-186,-757,693,3216,-723,-462,-560,-474,-1581,139696
1117,224,-171,28,203,161,1211,728,-343,-160,704,377,93,296,149,1009,-249,-304,-904,783,2555,831,-281,-908,682,3848,-846,-588,-719,-612,-1652,139697
910,195,-124,-10,145,115,1005,625,-294,8,515,206,27,202,153,860,-229,-246,-814,621,2334,728,-291,-807,474,3514,-732,-534,-668,-560,-1168,139698
82,41,32,-74,-37,-35,84,-105,14,-200,-11,-43,209,-151,-44,197,-57,1,-232,29,722,135,-138,-188,-152,1243,-134,-161,-241,-168,238,139699
-212,-20,82,-74,-84,-67,-245,-248,-33,-179,-342,-293,133,-281,-75,-57,20,68,43,-160,52,-63,-66,68,-299,223,87,-16,-28,22,471,139700
-156,-33,70,-66,-71,-42,-210,-200,-44,-35,-299,-156,-74,-245,-56,-42,12,49,34,-127,92,-10,-58,38,-224,205,52,-24,-15,30,319,139701
-152,-23,59,-63,-67,-51,-201,-130,55,76,-193,-64,121,-130,-57,-49,38,64,73,-116,67,14,-39,67,-191,90,86,13,27,64,349,139702
-117,-1,38,-55,-65,-73,-129,-99,4,-9,-207,-63,55,89,-98,0,62,74,123,-71,129,68,-14,86,-124,127,109,47,65,86,246,139703
-101,-3,30,-39,-49,-60,-107,-43,9,-118,-209,-159,72,92,-119,1,52,69,84,-69,134,71,-16,77,-111,124,91,27,47,70,208,139704
91,28,18,-7,17,10,50,-58,38,34,191,-89,-30,92,-48,83,-29,-22,-70,12,404,143,-90,-85,-21,515,-74,-89,-80,-52,-139,139705
384,85,-23,16,78,77,379,133,25,148,314,54,58,139,90,304,-104,-127,-315,197,979,326,-151,-338,163,1371,-296,-242,-252,-216,-570,139706
477,101,-65,8,73,62,513,304,-99,59,286,206,-138,91,96,422,-127,-139,-411,292,1239,395,-176,-421,230,1801,-363,-300,-328,-276,-669,139707
452,114,-56,8,70,45,506,201,-121,23,352,181,-73,131,41,442,-93,-97,-370,297,1242,393,-148,-386,213,1875,-324,-258,-307,-250,-591,139708
121,39,8,-26,0,-6,117,-200,-69,-42,-64,-5,81,-258,-30,180,-44,-15,-168,56,566,95,-119,-171,-34,1027,-130,-138,-168,-126,-65,139709
-15,26,56,-17,-11,-14,-54,-268,-37,-54,-1,-130,150,-338,76,42,7,20,-6,-20,169,-58,-76,-20,-111,513,-1,-42,-47,-14,116,139710
-12,5,20,-13,-21,-30,-19,-152,46,-107,-42,-111,214,-54,-34,55,5,20,4,-2,121,-86,-60,-22,-89,491,-12,-47,-39,-15,96,139711
-36,5,20,-5,-25,-35,-10,-59,-83,-28,-4,-91,50,-48,-113,59,37,42,50,8,42,-107,-22,22,-73,389,36,-5,16,35,143,139712
-48,6,21,-21,-28,-35,-21,19,-17,-61,85,-25,124,61,-40,40,29,32,28,-3,-2,-120,-31,5,-77,347,32,-24,5,24,114,139713
-77,-17,31,-33,-25,-15,-103,23,28,46,115,-54,43,-156,-20,-16,-6,-1,10,-46,-75,-155,-60,-4,-118,237,21,-47,-4,3,74,139714
289,61,-16,2,61,52,272,299,-152,136,271,90,-112,58,59,261,-66,-95,-213,198,647,133,-113,-252,153,1198,-220,-191,-173,-147,-548,139715
766,174,-80,44,158,122,806,668,-240,206,632,234,-297,292,218,681,-143,-191,-554,524,1727,552,-180,-597,489,2681,-536,-378,-445,-366,-1153,139716
773,175,-83,25,145,110,814,541,-83,75,682,255,-97,341,209,724,-154,-177,-616,528,1902,594,-208,-640,456,2967,-565,-419,-510,-419,-1065,139717
547,151,-46,3,89,53,575,297,20,-174,282,192,-31,173,121,564,-91,-91,-460,385,1520,442,-153,-457,290,2480,-391,-318,-391,-307,-584,139718
-13,33,35,-47,-46,-74,-44,-148,135,68,-206,-173,83,-81,-11,115,-4,52,-86,-15,372,-5,-89,-43,-136,924,-3,-81,-99,-55,261,139719
-199,-15,83,-43,-74,-84,-260,-151,194,112,-221,-130,179,-368,-58,-89,-16,48,68,-160,-122,-175,-90,83,-246,231,106,-17,12,47,380,139720
-180,-29,66,-48,-60,-72,-245,-70,128,35,-374,51,81,-148,-79,-89,-6,42,87,-149,-158,-160,-76,78,-205,182,86,3,29,54,299,139721
-167,-21,66,-38,-48,-49,-231,-112,215,62,-19,5,47,137,-57,-72,39,65,133,-116,-190,-139,-21,115,-167,111,117,41,81,89,325,139722
-134,-19,58,-30,-47,-32,-193,-148,159,19,19,-15,-76,-105,-62,-62,25,41,85,-111,-180,-135,-36,84,-130,122,102,5,55,70,243,139723
-131,-10,32,-22,-45,-46,-153,-76,86,-45,-39,-42,-43,-124,-150,-58,9,27,43,-102,-175,-146,-48,47,-129,128,75,-23,33,46,174,139724
-55,16,44,-3,-11,-20,-72,-153,100,-21,-10,57,57,-87,-88,14,25,43,38,-37,-60,-80,-21,39,-57,267,44,-14,32,46,107,139725
104,28,30,8,37,30,78,-103,-37,-11,66,5,39,84,-107,125,-9,2,-65,63,222,23,-44,-69,35,639,-60,-78,-31,-31,-93,139726
114,25,19,-6,27,24,88,-205,24,48,1,-87,-38,-29,16,141,-23,6,-85,66,290,47,-66,-90,33,727,-72,-88,-53,-39,-55,139727
-68,4,49,-17,-14,0,-95,-351,127,97,-58,-46,-65,-200,-11,9,20,47,56,-45,-27,-69,-22,41,-81,273,67,-2,32,41,197,139728
-56,-3,43,-15,-5,-3,-90,-311,48,-63,-6,41,2,-88,-38,-1,24,35,73,-41,-13,-42,5,47,-57,251,75,-3,42,47,92,139729
35,9,16,1,12,8,17,-49,33,-154,80,-50,45,-79,-31,66,-2,3,-11,13,211,47,-21,-42,-5,500,-23,-63,-27,-17,-36,139730
19,11,14,1,11,10,24,145,14,-224,91,-28,-2,43,-84,65,3,23,11,12,253,84,-25,-20,-10,480,-3,-45,-16,5,-17,139731
29,5,14,-6,17,19,37,6,-120,-13,155,9,27,33,-22,74,-2,17,16,10,325,119,-31,-19,0,510,-2,-40,-20,20,-9,139732
44,22,45,6,39,60,31,-5,-21,-128,241,-36,-49,-44,-10,74,-2,9,2,15,363,138,-39,-25,1,534,-16,-49,-21,18,-54,139733
86,35,41,12,44,70,84,-9,-84,-48,243,6,22,-171,32,129,0,0,4,63,498,211,-22,-49,59,694,-40,-40,-34,5,-164,139734
-95,4,66,-18,-11,10,-128,-139,-159,11,-162,-68,-86,-395,36,-6,38,65,139,-60,143,64,16,94,-63,237,112,51,65,100,224,139735
-394,-68,98,-56,-81,-74,-481,-298,72,16,-398,-197,-18,-228,-62,-234,110,154,350,-240,-531,-197,63,330,-240,-675,337,185,257,265,633,139736
-315,-57,84,-35,-51,-56,-395,-228,156,-162,-159,-84,47,-137,-60,-205,100,125,317,-180,-500,-189,66,284,-156,-607,285,165,240,243,451,139737
-211,-52,61,-28,-36,-21,-315,-294,106,184,-56,-77,-14,-240,-74,-177,25,44,185,-157,-420,-206,-1,153,-129,-418,152,62,146,140,263,139738
-55,-27,42,-6,12,25,-154,-37,37,99,-46,-84,-57,-161,-42,-84,-17,-21,72,-79,-221,-148,-27,37,-41,-85,32,-4,46,50,2,139739
62,-3,14,10,40,33,5,39,59,84,-14,-36,-1,64,-81,30,-24,-19,6,26,21,-73,-18,-36,45,289,-29,-34,-6,5,-112,139740
6,-2,5,24,14,2,1,-87,77,166,-2,15,17,78,-69,20,-1,18,4,4,-78,-125,-4,-9,6,207,23,-26,18,32,25,139741
-6,1,7,39,14,-5,2,-74,96,196,191,64,-162,-55,24,15,14,20,14,6,-141,-148,1,3,1,191,34,-10,26,38,64,139742
-9,7,15,31,23,10,-16,118,-40,139,125,16,61,-137,57,33,30,36,46,23,-149,-139,31,36,31,214,44,27,45,59,53,139743
7,0,28,15,15,27,-16,89,116,26,-94,-33,4,-143,95,44,37,50,61,43,-123,-130,43,42,42,247,53,27,49,59,16,139744
3,6,33,4,14,23,-25,-92,11,-30,-60,-99,-6,-78,22,27,19,36,26,25,-134,-137,18,15,25,224,35,4,34,49,49,139745
-87,-9,21,2,-16,-18,-121,-112,31,-20,-32,-94,4,-95,-72,-61,18,30,63,-60,-298,-194,25,57,-56,-35,73,23,60,63,155,139746
-73,9,21,14,-2,-21,-87,-192,-6,164,11,5,175,-56,-24,-17,69,66,113,-23,-242,-132,76,100,-15,-36,111,66,105,104,181,139747
-70,2,18,11,-8,-28,-72,-138,164,88,-3,-24,-168,-33,3,-2,64,74,116,-13,-190,-84,51,100,-8,-24,114,72,107,109,163,139748
-32,7,8,-1,3,-7,-32,-16,101,95,-130,-55,-17,-176,-3,-8,6,25,52,-26,-71,-26,-1,37,-10,66,56,26,54,44,68,139749
-21,4,19,10,15,13,-31,55,-3,-36,-32,14,54,1,-49,-24,2,29,54,-45,6,38,-19,25,-22,34,56,12,44,34,72,139750
39,18,15,18,30,41,37,114,57,-19,-116,-68,-42,138,62,24,-3,15,5,-19,206,155,-21,-27,11,193,5,-26,-3,9,-37,139751
21,2,1,11,10,6,47,-13,-18,-72,-167,-48,9,94,5,25,-12,9,-15,-17,291,200,-14,-47,6,239,-22,-40,-17,-4,-57,139752
33,7,-8,6,3,-2,75,72,118,38,-61,-34,-43,-266,-38,41,-9,-11,-20,-9,374,238,-21,-69,29,314,-40,-55,-36,-13,-72,139753
45,20,0,15,11,4,64,7,157,-69,169,-48,55,-233,10,52,-5,-5,-15,-3,416,243,-14,-60,40,352,-36,-39,-23,-4,-61,139754
-102,-18,12,-17,-25,-18,-127,-272,156,0,-218,-110,13,-83,-12,-61,8,27,61,-100,103,97,-1,35,-73,-21,69,11,41,42,218,139755
-212,-32,33,-22,-47,-37,-244,-236,21,95,-318,29,-20,-8,-35,-155,45,72,190,-151,-200,-29,23,141,-121,-385,169,81,134,131,308,139756
-134,-31,22,-12,-23,-22,-175,-224,124,-526,-112,-45,59,232,-97,-124,9,20,111,-109,-172,-59,-20,76,-84,-248,91,43,89,85,135,139757
24,-3,5,14,23,29,-13,52,70,-317,-46,6,102,90,-16,-31,-46,-45,-48,-24,23,-44,-51,-52,-1,111,-39,-50,-19,-22,-152,139758
26,-6,7,2,15,33,-15,120,11,30,15,-19,36,-131,-28,-12,-27,-17,-38,-17,-29,-83,-21,-50,-1,127,-33,-46,-10,-21,-125,139759
92,14,11,4,30,40,50,31,17,-47,155,100,70,24,-30,57,-19,-14,-37,60,61,-50,-11,-70,64,321,-41,-38,-8,-22,-141,139760
70,30,17,9,24,25,37,283,151,-37,103,90,73,8,-15,59,-2,2,-7,62,14,-79,-3,-33,50,326,-12,-11,2,4,-46,139761
-2,24,18,12,12,5,-6,131,47,-105,28,21,-50,100,31,51,61,85,116,68,-113,-104,73,82,55,178,101,80,92,89,106,139762
14,18,-3,-3,7,1,33,49,-13,-75,159,0,-126,93,84,129,88,100,92,128,-22,-53,107,69,107,320,95,84,100,100,110,139763
-24,13,10,-10,1,0,-34,-138,57,44,-117,8,-10,114,79,85,71,93,65,76,-119,-89,71,71,51,205,99,68,89,87,128,139764
-66,1,7,-12,-11,-22,-64,-42,-10,-37,-24,-103,-2,-43,5,27,58,92,82,32,-209,-124,69,84,20,73,115,76,97,100,131,139765
-47,8,30,-4,2,-9,-78,84,-57,-145,-142,-120,-87,-62,-17,-10,35,58,64,-4,-242,-134,37,58,-15,13,92,54,70,75,69,139766
148,38,-4,22,39,27,135,191,-60,-73,-9,-76,-12,-68,-30,90,-72,-76,-122,75,147,-3,-58,-156,70,521,-133,-97,-103,-99,-329,139767
314,84,-33,46,66,62,321,485,-26,-79,146,35,104,58,83,213,-112,-123,-267,173,558,153,-94,-291,153,1029,-267,-187,-220,-210,-500,139768
95,53,19,17,23,24,99,378,-106,14,150,-45,198,-154,29,81,-58,-34,-118,42,261,62,-51,-123,1,551,-92,-81,-106,-88,-165,139769
-73,-8,21,-27,-25,-26,-94,115,-43,1,-40,-104,68,-201,-54,-23,-10,8,3,-52,26,21,-18,-3,-79,138,29,1,-2,-2,10,139770
-18,-5,22,-24,-14,-15,-81,-45,27,29,119,-24,-129,-240,29,12,-14,-5,-21,-23,178,113,-28,-38,-32,236,-1,-13,-16,0,-34,139771
-5,-1,29,-19,1,-1,-130,-144,84,82,73,10,-9,-164,-34,2,-18,1,-23,-28,196,137,-26,-41,-33,206,-7,-16,-23,-10,2,139772
-67,-4,33,-19,-8,-8,-199,-162,116,206,-217,42,-50,-15,8,-27,21,54,64,-67,93,116,10,31,-60,23,69,34,31,38,149,139773
-81,-6,29,-15,-16,-35,-177,-238,163,-119,-42,16,-18,81,39,-38,58,70,115,-74,35,95,40,82,-59,-79,109,75,70,75,223,139774
22,13,7,22,14,-6,9,-133,244,-213,115,-39,132,-167,88,43,31,33,36,9,209,144,19,6,29,179,35,23,21,24,2,139775
-107,1,29,22,-15,-22,-85,-247,49,-170,-96,-64,166,-259,28,-83,28,53,103,-93,-117,-19,35,82,-85,-197,105,68,71,56,229,139776
-180,-3,39,27,-34,-26,-148,-86,89,-188,-258,-141,36,-141,-46,-139,59,83,181,-118,-326,-107,66,150,-114,-445,170,134,136,122,329,139777
-138,-2,33,27,-16,-20,-118,-230,123,-161,73,-122,17,-121,-15,-100,57,72,163,-74,-301,-102,63,129,-67,-357,148,124,128,116,176,139778
-58,-2,-4,13,-9,-19,-37,-169,3,-47,195,-87,-59,-70,9,-52,3,1,64,-35,-173,-86,14,27,-12,-120,33,44,51,40,15,139779
21,9,-2,8,10,-6,26,-10,55,-9,109,15,38,59,57,-5,-12,-16,-18,0,-68,-64,3,-36,19,83,-14,2,5,-7,-54,139780
-10,3,24,3,1,-2,-43,-178,28,-97,125,-134,47,-142,-1,-33,-3,-1,4,-29,-165,-104,17,-12,-21,-18,19,17,21,1,9,139781
-38,-6,30,0,3,0,-74,-110,-18,-10,-27,-234,196,-320,14,-61,-17,-7,15,-60,-229,-140,18,-3,-33,-99,12,16,19,9,8,139782
-43,-13,23,11,4,1,-55,-12,58,28,-290,-67,91,-60,70,-58,-13,-5,4,-53,-215,-133,9,-8,-33,-86,16,21,18,6,18,139783
-70,-6,13,16,-9,-16,-52,-153,67,-66,-109,22,53,-5,92,-47,22,34,75,-41,-245,-113,33,47,-16,-131,71,71,72,48,90,139784
-81,-7,-7,3,-31,-37,-29,46,32,-120,-167,-10,46,67,48,-31,24,25,88,-30,-217,-95,54,56,-1,-110,72,66,79,53,121,139785
-111,-6,21,1,-20,-20,-74,67,71,-47,-66,26,-42,0,25,-75,28,33,96,-61,-270,-117,36,71,-44,-207,81,72,77,58,136,139786
-187,-30,58,-1,-13,-2,-213,-9,-52,-81,-11,-66,133,-152,-39,-170,24,30,134,-143,-453,-181,38,113,-121,-503,113,96,97,78,235,139787
-161,-47,50,-24,-23,-2,-230,-61,-90,-129,-30,-133,-65,-170,-44,-179,-9,1,115,-150,-441,-178,26,88,-115,-515,76,67,76,55,207,139788
-61,-13,34,4,12,16,-119,55,14,41,-30,-118,-37,13,-4,-111,-7,-16,59,-89,-268,-90,10,42,-55,-326,37,43,40,43,83,139789
-16,-3,17,20,9,14,-40,49,13,268,47,103,72,358,-9,-50,-7,5,21,-51,-147,-23,16,17,-30,-186,36,33,32,30,72,139790
-4,0,6,12,1,7,13,-115,-98,184,-15,111,60,90,36,-16,-1,5,15,-24,-52,19,24,2,-16,-92,23,26,22,6,34,139791
17,8,9,26,5,4,59,138,61,61,-95,2,-142,95,87,13,1,11,18,18,31,64,45,-11,11,0,6,30,15,-2,-15,139792
3,-2,-5,29,-8,-22,50,-48,-118,45,-150,-26,-15,6,0,17,26,32,61,27,31,69,66,35,12,-31,44,72,44,38,46,139793
89,17,-41,22,13,-26,160,-66,-36,-116,-30,9,55,237,-11,91,-7,-13,-60,79,246,148,18,-63,70,264,-49,3,-44,-25,-119,139794
-67,-11,-2,0,-21,-35,-49,-117,124,-58,-43,-49,195,193,-113,-48,-2,10,3,-47,-74,-7,18,1,-78,-151,22,35,-4,3,154,139795
-359,-83,50,-40,-96,-78,-407,-193,97,-67,-335,-164,62,-74,-90,-311,59,83,239,-257,-740,-273,67,234,-270,-1045,240,179,181,161,569,139796
-376,-72,62,-22,-81,-68,-411,-218,32,391,-319,-74,-29,-228,-62,-329,75,100,293,-266,-865,-303,96,282,-235,-1210,289,219,239,204,583,139797
-451,-89,55,-12,-96,-96,-440,-405,75,251,-493,-56,-79,-142,3,-362,115,148,382,-287,-1037,-349,139,367,-243,-1459,369,283,303,265,647,139798
-232,-44,15,22,-47,-66,-168,94,20,19,-157,19,-120,187,40,-171,110,105,265,-107,-611,-149,146,217,-30,-889,230,202,224,191,273,139799
-22,-11,-25,20,1,-4,22,261,-97,36,54,62,-209,173,1,-34,43,16,60,-9,-212,-28,73,29,84,-318,48,69,79,55,-51,139800
-1,-18,-11,-4,8,23,-1,49,-63,-70,4,-2,-143,76,-16,-63,-30,-47,-34,-34,-182,-55,2,-43,43,-244,-27,-3,-2,-29,-128,139801
71,14,0,16,36,46,73,41,-145,-1,114,-50,-80,43,74,-4,-49,-58,-75,-3,-39,-17,-23,-80,75,-29,-63,-28,-42,-51,-198,139802
11,9,-4,8,16,9,27,77,-54,15,159,34,60,4,-17,-52,-42,-44,-34,-45,-122,-56,-18,-43,27,-133,-35,-5,-28,-35,-72,139803
4,-8,-10,3,8,-2,-4,102,-106,39,135,76,-141,21,30,-55,-31,-40,-15,-47,-131,-51,-4,-34,23,-147,-25,10,-19,-25,-13,139804
-101,-44,-2,0,-18,-26,-140,12,-3,9,-57,-4,-31,-109,-3,-143,-9,-14,71,-133,-359,-130,12,46,-78,-449,56,56,41,15,147,139805
-419,-100,60,-18,-89,-81,-481,-47,176,68,-282,-143,163,-279,-65,-393,60,75,319,-338,-1014,-375,70,296,-283,-1370,282,214,225,186,653,139806
-579,-120,96,-13,-109,-92,-651,-339,203,-4,-285,-191,-24,-155,-150,-520,136,158,471,-426,-1410,-488,139,465,-363,-1985,443,330,368,316,951,139807
-763,-166,117,-22,-145,-128,-856,-564,236,15,-525,-324,91,-57,-160,-677,208,246,636,-530,-1867,-604,214,639,-461,-2691,622,454,517,446,1197,139808
-352,-86,33,27,-60,-48,-362,-159,141,36,-177,-34,76,112,7,-352,134,100,349,-209,-1054,-270,143,330,-125,-1663,308,259,311,267,379,139809
99,14,-40,52,35,35,149,154,-9,92,66,84,-102,37,123,12,-2,-52,-25,90,-62,86,40,-46,151,-318,-50,12,20,0,-295,139810
156,19,-38,51,49,51,181,-15,-29,36,169,117,-19,61,61,46,-34,-74,-85,98,102,114,6,-107,113,-81,-106,-32,-48,-69,-302,139811
149,17,-24,42,61,65,162,107,67,26,123,115,-7,-4,40,29,-42,-84,-112,70,82,74,-17,-116,54,-88,-113,-44,-68,-91,-291,139812
186,30,-22,36,68,59,185,311,-99,-36,90,49,-17,-13,3,47,-65,-83,-136,84,158,83,-21,-145,49,18,-123,-53,-86,-115,-260,139813
116,4,-38,21,32,32,125,222,-223,116,11,3,89,189,-96,11,-59,-64,-116,56,70,43,-18,-109,3,-69,-93,-50,-72,-100,-184,139814
-108,-41,4,4,-25,-15,-109,66,-99,154,35,-99,-95,228,-53,-140,-5,12,21,-89,-346,-128,17,44,-145,-627,63,53,36,5,246,139815
-660,-150,107,-46,-148,-110,-750,-213,179,115,-220,-241,-25,-234,-137,-583,129,178,455,-477,-1542,-553,129,475,-510,-2275,478,329,356,287,1128,139816
-825,-184,141,-42,-151,-116,-940,-415,126,-132,-402,-289,-71,-400,-138,-720,207,248,683,-560,-1994,-668,217,680,-531,-2979,636,458,539,444,1313,139817
-718,-165,103,-12,-125,-103,-777,-314,226,-219,-283,-211,-38,-112,-61,-620,209,226,649,-459,-1811,-551,241,633,-360,-2804,580,451,533,447,1054,139818
-196,-40,16,54,-10,-3,-148,33,123,54,-104,22,17,70,71,-189,133,88,295,-69,-756,-118,188,267,76,-1387,237,243,281,233,161,139819
157,33,-61,73,63,59,236,277,114,102,377,175,3,218,150,70,10,-42,-33,129,22,138,71,-56,275,-303,-65,21,15,-7,-349,139820
145,17,-53,53,60,57,194,253,32,39,122,145,-26,236,73,50,-9,-54,-72,89,67,135,42,-76,227,-214,-86,6,-20,-50,-273,139821
85,9,-23,33,38,41,117,127,-27,31,-176,70,20,82,50,-1,-23,-56,-62,25,-5,78,22,-53,163,-299,-64,5,-19,-48,-183,139822
86,14,-28,20,36,26,124,92,-179,-96,37,-23,100,-17,-20,-12,-39,-69,-73,12,23,67,-16,-82,131,-258,-70,-20,-43,-67,-193,139823
67,13,-26,18,27,21,110,-47,-58,-39,92,56,-18,5,-40,-26,-50,-73,-93,-9,0,47,-23,-83,104,-257,-70,-25,-59,-62,-124,139824
0,-4,-6,22,21,12,18,-22,102,132,-53,119,-19,43,13,-82,-38,-44,-63,-48,-140,-14,-21,-27,29,-452,-27,-5,-35,-36,-4,139825
-222,-52,33,-1,-35,-19,-241,-203,103,86,-134,-97,8,-26,-77,-250,20,44,101,-192,-602,-183,14,154,-129,-1100,156,92,95,98,369,139826
-538,-123,63,-41,-110,-93,-576,-494,137,-141,-554,-135,-74,-142,-69,-476,117,156,387,-368,-1245,-399,116,427,-303,-2004,419,282,312,294,822,139827
-727,-170,60,-43,-149,-139,-779,-612,99,-34,-675,-156,24,-271,-167,-621,190,213,599,-465,-1692,-526,192,620,-389,-2688,576,415,477,432,1033,139828
-223,-64,-24,26,-29,-33,-216,-131,23,-35,-95,36,-45,214,-34,-216,124,89,315,-79,-722,-116,153,286,16,-1431,254,230,280,246,228,139829
149,5,-80,44,50,34,198,177,-41,-141,225,91,-49,273,20,79,26,-42,-10,148,71,143,68,-33,204,-313,-63,38,10,11,-305,139830
111,4,-64,39,37,13,155,88,-27,-92,224,58,79,101,-110,46,12,-27,-47,103,38,86,51,-44,121,-328,-58,19,-17,-30,-194,139831
17,-5,-38,21,17,-1,61,-23,-44,25,-24,93,57,66,-9,-41,15,-14,-6,15,-165,-8,39,6,11,-570,-1,41,12,-9,-2,139832
53,-1,-42,25,25,19,115,32,18,44,136,139,49,298,37,-21,-12,-42,-48,45,-61,28,25,-34,34,-429,-47,17,-13,-35,-96,139833
123,14,-39,29,45,57,164,170,-42,91,181,194,-167,231,61,26,-36,-66,-96,95,79,74,0,-83,70,-229,-96,-24,-62,-87,-192,139834
154,34,-26,36,58,66,182,232,-49,101,81,284,-147,-2,40,68,-22,-50,-98,119,151,96,15,-85,100,-119,-97,-26,-65,-77,-190,139835
-367,-98,34,-33,-78,-62,-408,-350,105,64,-318,-145,59,-198,-54,-331,65,94,215,-252,-873,-312,76,274,-277,-1522,246,182,184,141,643,139836
-631,-148,80,-45,-140,-115,-688,-440,135,135,-469,-229,60,-321,-81,-539,156,179,477,-406,-1478,-499,166,511,-388,-2404,476,337,380,335,991,139837
-586,-123,87,-10,-111,-92,-631,-297,87,15,-344,-169,-55,-140,-96,-511,185,183,540,-356,-1478,-431,213,528,-282,-2466,491,374,426,369,904,139838
-154,-57,-5,37,-3,1,-151,-259,-48,16,-16,13,134,104,-20,-212,62,6,195,-95,-646,-123,90,166,39,-1339,136,139,162,125,84,139839
174,7,-66,54,78,78,206,174,-39,122,276,14,87,162,-77,22,-41,-108,-116,75,53,103,-13,-133,216,-370,-133,-59,-76,-92,-350,139840
109,4,-52,53,53,49,156,2,2,49,151,45,-34,87,-18,-18,-40,-74,-109,42,-2,54,-9,-99,150,-433,-98,-46,-66,-92,-219,139841
176,7,-66,35,40,50,231,19,38,-52,42,175,-27,179,-16,64,-31,-82,-152,126,203,139,7,-142,205,-162,-133,-73,-92,-100,-305,139842
163,1,-46,29,38,51,193,144,-114,-7,104,133,-101,189,21,31,-53,-91,-127,91,169,105,-13,-127,174,-163,-125,-77,-95,-105,-337,139843
163,4,-21,34,52,62,168,-17,-53,28,145,33,9,152,-23,17,-62,-90,-127,68,143,77,-21,-112,139,-170,-122,-81,-96,-100,-288,139844
91,9,-3,31,34,60,74,-99,-78,18,-23,40,1,63,-31,-11,-26,-37,-90,34,23,44,3,-48,84,-331,-55,-34,-55,-53,-117,139845
-120,-24,-5,4,-30,-3,-106,-168,24,2,-236,12,-29,29,55,-123,28,39,72,-72,-328,-72,54,106,-36,-820,97,81,64,57,231,139846
-375,-81,15,-25,-93,-81,-363,-171,132,5,-246,41,21,-121,-7,-317,90,116,288,-231,-854,-258,113,319,-189,-1558,291,222,232,208,571,139847
-474,-100,44,-12,-87,-84,-470,-257,86,115,-33,-55,146,-144,-102,-391,143,159,419,-289,-1123,-327,158,443,-239,-1980,414,302,353,311,718,139848
-145,-39,-7,23,-8,-10,-110,-97,-61,71,133,19,-10,-4,-40,-132,110,86,246,-37,-492,-43,149,231,32,-1152,202,188,229,181,158,139849
124,15,-45,42,56,53,181,36,-34,57,205,146,-80,111,-5,58,17,-8,8,129,117,163,73,-19,173,-363,-37,36,30,4,-260,139850
202,27,-53,34,68,81,257,354,2,-8,47,212,-10,17,13,110,-23,-46,-100,155,336,217,33,-105,160,-60,-123,-37,-67,-68,-322,139851
141,13,-48,17,37,60,203,294,-105,-62,-16,148,-8,185,-10,67,-11,-49,-79,96,274,173,14,-82,85,-146,-86,-30,-60,-58,-235,139852
145,28,-48,20,35,44,242,102,-49,-131,174,129,59,153,42,81,-20,-51,-95,98,339,196,8,-85,84,-66,-92,-29,-74,-75,-295,139853
175,50,-51,29,44,47,291,93,-118,13,-45,123,-60,46,81,142,-22,-36,-122,136,453,243,1,-117,135,104,-113,-43,-84,-85,-351,139854
81,16,-18,-3,23,38,134,-66,-119,123,-238,83,-100,6,7,65,-27,-34,-116,48,282,152,-17,-96,33,-95,-83,-35,-78,-87,-148,139855
-186,-46,54,-33,-18,24,-236,-288,11,77,-321,-173,-9,-36,-60,-184,13,20,52,-162,-353,-110,3,102,-180,-934,100,67,61,34,254,139856
-249,-72,43,-46,-34,13,-329,-313,23,-74,-380,-176,5,-45,2,-262,41,45,132,-206,-597,-190,36,173,-196,-1262,161,96,127,83,326,139857
-138,-55,24,-25,-11,27,-219,63,25,-22,-107,-67,-55,-119,-46,-195,38,16,108,-117,-461,-130,49,121,-78,-1054,102,69,98,70,183,139858
-12,-34,7,-10,11,46,-75,95,18,-59,-56,80,-66,45,-75,-90,6,-19,40,-7,-232,-50,26,46,40,-707,45,35,46,27,24,139859
94,5,-18,17,33,60,124,67,-114,-76,32,74,-136,25,66,55,0,-19,-23,114,67,67,28,-23,164,-270,-24,12,-7,-13,-134,139860
98,18,-38,20,37,45,149,174,-46,120,228,95,157,116,99,71,17,7,-17,123,78,60,29,-15,164,-221,-15,15,-1,-3,-114,139861
83,13,-42,13,20,29,116,35,5,-85,49,118,68,297,6,70,24,17,-44,116,38,40,27,-21,142,-227,-20,6,-11,-26,-78,139862
82,7,-30,20,11,31,93,8,-58,-121,210,23,52,19,-93,63,28,25,-33,104,-13,23,45,0,129,-269,2,26,8,-6,-25,139863
20,-9,-30,3,-5,8,41,242,-188,-23,-14,-47,-19,-115,-85,2,7,-5,-35,52,-116,-45,22,-4,67,-390,4,8,5,-15,-38,139864
26,-3,-33,3,4,19,49,272,-132,-48,190,-40,-111,-21,-51,7,8,-13,-40,72,-73,-29,9,-19,80,-338,-6,10,-1,-16,-85,139865
124,-1,-62,4,15,26,141,162,-139,-64,156,46,0,101,-48,115,23,-7,-79,157,167,101,27,-45,173,-39,-46,-15,-26,-32,-157,139866
250,24,-70,5,35,45,288,376,-31,131,102,93,-11,223,103,230,-8,-35,-160,247,478,222,4,-137,255,393,-136,-78,-98,-87,-398,139867
322,51,-64,18,62,67,371,348,-73,113,126,113,79,79,56,260,-64,-93,-259,253,658,248,-56,-240,230,650,-230,-143,-190,-168,-503,139868
153,31,-23,22,25,32,172,23,-64,84,137,29,-75,-119,70,115,-45,-36,-159,107,346,137,-37,-122,51,212,-121,-70,-114,-107,-135,139869
30,10,10,16,14,12,23,-153,67,36,-5,-28,-18,-181,81,12,2,1,-39,-7,108,62,-7,-8,-43,-184,-21,-6,-26,-32,55,139870
127,32,-9,11,45,39,95,49,8,2,-54,85,-165,139,82,80,-23,-38,-102,38,336,181,-21,-86,28,78,-91,-38,-75,-67,-190,139871
66,8,-8,-11,20,24,-20,50,1,-70,104,111,-39,-62,88,48,7,0,-39,1,284,171,-6,-33,-14,-53,-33,2,-34,-26,-62,139872
39,-4,-31,-29,-10,-5,-51,113,32,101,92,143,108,56,55,65,34,22,-30,10,295,182,-3,-9,-12,-75,-11,2,-15,-13,-47,139873
116,15,-36,-3,7,12,50,179,-39,76,83,132,56,-102,48,130,54,32,-41,82,438,252,15,-20,62,98,-20,13,-11,8,-133,139874
59,0,-40,-13,-5,-10,64,119,-141,-70,96,-3,-107,-88,28,65,11,19,-37,32,334,177,-14,-22,14,0,-28,-2,-27,-8,-75,139875
119,27,-48,28,20,-2,197,244,-125,-156,169,35,-137,26,8,95,-44,-34,-114,63,397,164,-48,-102,53,154,-104,-80,-98,-72,-215,139876
147,41,-41,41,28,12,241,139,-65,-164,8,14,90,139,-19,74,-92,-102,-215,55,415,116,-92,-194,30,251,-187,-156,-181,-153,-290,139877
149,22,-24,17,28,34,177,287,-138,-30,139,-38,112,40,-18,46,-125,-142,-263,40,345,50,-130,-231,1,246,-245,-188,-223,-201,-277,139878
36,-3,2,-6,5,14,36,-56,32,-34,36,47,54,-74,30,-22,-63,-67,-119,-3,65,-49,-73,-85,-53,-90,-107,-76,-109,-101,-68,139879
24,7,0,9,-8,-9,56,-37,87,-38,-27,106,78,-60,109,21,-5,-13,-37,55,24,-14,3,-11,-5,-129,-28,6,-29,-36,-15,139880
13,7,-4,5,-16,-17,35,61,47,-41,62,42,-1,-61,146,22,-4,-4,-23,46,-14,-32,15,-4,-2,-161,-15,3,-22,-24,61,139881
-5,2,4,11,-3,7,6,188,-9,-83,68,37,-116,-118,55,-15,-5,-2,-9,37,-102,-65,-16,6,-11,-265,-6,-2,-19,-16,80,139882
-9,-18,-3,14,-12,18,-19,-23,38,-62,-79,-46,-82,-52,106,-16,-11,-8,-23,47,-134,-83,-24,9,-15,-288,-7,2,-17,-16,53,139883
30,7,1,16,6,34,53,-52,89,29,14,73,152,24,53,30,4,4,-13,97,-35,-24,0,6,39,-167,-12,6,-2,-14,-27,139884
132,42,-18,21,26,47,195,235,-7,37,210,42,-34,93,79,120,7,-10,-74,174,199,77,6,-55,127,140,-75,-28,-49,-44,-173,139885
267,69,-45,35,61,62,343,166,-118,-90,198,112,-202,90,87,223,-33,-60,-211,237,495,172,-18,-192,183,573,-193,-111,-160,-138,-381,139886
338,70,-61,24,62,74,395,342,-124,25,282,24,9,201,70,256,-107,-129,-317,227,674,207,-93,-296,180,829,-296,-207,-252,-225,-537,139887
449,99,-56,31,95,103,504,341,-67,-97,287,89,-108,167,151,344,-139,-149,-365,284,956,312,-130,-381,234,1235,-359,-249,-312,-280,-610,139888
184,36,4,-5,28,51,199,102,30,-21,-144,66,-112,-25,62,158,-76,-63,-152,87,496,144,-62,-161,35,586,-159,-118,-174,-142,-184,139889
9,4,34,-12,-4,23,7,15,-32,27,-141,5,-53,-170,21,20,-20,-8,-40,-38,169,45,-33,-19,-71,93,-27,-41,-51,-28,41,139890
26,29,19,10,2,9,73,140,50,105,43,-61,-35,-24,78,42,-20,-5,-93,-26,247,101,-40,-47,-40,152,-47,-65,-68,-37,-9,139891
42,35,0,16,1,10,99,-13,27,72,73,-6,112,149,29,72,9,27,-64,-4,304,140,-18,-12,-11,188,-37,-40,-36,-20,-33,139892
-14,12,3,-2,-4,4,37,-109,-14,-93,19,-65,-57,32,12,38,36,45,-16,-52,204,106,-4,23,-48,36,3,-13,-8,11,44,139893
-60,2,17,-15,-19,-11,-28,-32,128,-104,73,-14,-184,-57,18,-18,39,42,20,-100,79,54,5,44,-95,-132,32,9,18,36,120,139894
188,57,-26,19,29,30,237,147,97,-93,151,72,-42,106,59,159,-30,-47,-147,59,523,213,-46,-124,77,497,-161,-98,-102,-87,-365,139895
768,178,-118,70,168,147,871,368,-138,-17,374,350,-38,361,209,621,-172,-236,-598,468,1735,633,-167,-598,468,2216,-602,-401,-461,-404,-1264,139896
937,198,-146,54,180,160,1047,550,-164,139,779,425,-47,328,162,765,-272,-309,-823,590,2191,740,-266,-817,516,2973,-760,-544,-642,-564,-1456,139897
839,172,-141,15,138,118,958,612,-266,118,409,312,58,302,120,731,-260,-269,-799,557,2102,672,-285,-762,423,2979,-696,-528,-641,-546,-1252,139898
237,79,-32,-37,9,5,280,311,-93,-53,-5,81,-41,-99,58,314,-77,-19,-305,194,915,225,-124,-235,2,1389,-204,-194,-260,-206,-117,139899
-128,3,43,-54,-70,-55,-144,-213,-36,-143,-309,-33,66,-220,31,49,59,125,78,12,81,-49,8,123,-171,240,131,52,43,66,414,139900
-121,-17,33,-70,-66,-44,-157,-172,-66,-76,-137,-70,75,-301,0,18,32,73,81,13,-17,-81,-2,95,-154,126,94,42,37,58,249,139901
-145,-36,37,-48,-55,-40,-220,-144,44,78,58,-171,83,-401,-31,-83,-23,16,42,-65,-212,-177,-52,59,-221,-114,58,-2,7,12,215,139902
-128,-12,47,-29,-38,-30,-180,-160,192,174,-159,-59,15,-82,-57,-84,-14,16,29,-65,-252,-185,-39,52,-197,-175,43,-19,6,6,190,139903
-115,-20,25,-31,-47,-35,-141,17,157,178,-58,-25,-2,56,11,-47,5,28,49,-34,-223,-150,-9,50,-152,-173,45,-10,16,11,185,139904
-12,4,6,-13,-27,-18,-21,99,-5,123,110,96,77,69,49,23,-17,-3,-8,28,-34,-57,-34,-20,-61,70,-23,-45,-15,-29,-23,139905
470,100,-49,39,100,80,504,407,-117,149,378,241,62,269,105,393,-114,-146,-309,354,951,320,-108,-348,285,1401,-344,-232,-253,-245,-799,139906
729,178,-78,75,161,135,800,492,-106,35,410,209,-70,281,111,627,-149,-194,-519,531,1606,558,-138,-547,443,2307,-529,-349,-407,-383,-1064,139907
776,187,-92,54,146,127,841,530,-122,-59,543,183,-213,223,219,689,-183,-212,-644,535,1825,604,-182,-626,425,2670,-594,-423,-504,-442,-1078,139908
299,84,-23,-20,26,18,313,248,-47,10,248,48,13,14,9,332,-110,-76,-369,182,961,251,-148,-313,46,1527,-271,-240,-306,-249,-251,139909
-86,8,42,-48,-54,-45,-109,-122,22,-36,-11,-18,14,-212,-46,24,-7,54,-34,-80,156,-23,-48,24,-183,396,41,-30,-36,-10,265,139910
-101,-15,26,-54,-59,-54,-111,-267,-50,-24,-8,-47,-118,-232,21,-10,-15,28,-11,-129,84,-36,-65,32,-181,284,30,-34,-16,1,188,139911
-64,-3,39,-28,-36,-29,-83,-136,63,-130,6,-158,-26,-217,-36,6,-17,31,-15,-124,107,-5,-54,18,-158,273,29,-35,-6,10,99,139912
-52,2,42,-16,-22,-14,-80,-10,-27,-37,-8,-174,-62,-261,-49,-13,-32,3,-29,-137,85,-14,-60,-2,-159,232,5,-48,-21,1,79,139913
-79,-13,34,-40,-36,-37,-106,-44,27,43,-147,-194,21,-255,-119,-54,-52,-20,-34,-171,28,-52,-87,-12,-196,136,-17,-64,-39,-10,60,139914
142,27,-9,-5,4,2,121,243,-20,-116,128,-72,66,116,19,118,-67,-64,-148,14,446,127,-95,-137,-17,712,-139,-137,-125,-84,-324,139915
1150,252,-168,102,241,191,1244,1022,-209,-316,1019,591,-195,613,234,970,-183,-266,-761,792,2557,970,-171,-808,755,3636,-776,-514,-586,-487,-1835,139916
1612,350,-245,110,313,249,1777,1129,-325,24,1297,686,-189,683,318,1418,-296,-382,-1173,1131,3738,1351,-282,-1196,1015,5394,-1137,-750,-911,-785,-2357,139917
1414,316,-214,41,245,187,1571,629,-315,21,797,426,3,417,227,1308,-312,-329,-1149,987,3535,1182,-330,-1124,794,5266,-1038,-718,-902,-777,-1938,139918
406,124,-20,-70,10,-4,426,-64,-62,14,45,-140,28,-168,-32,516,-156,-54,-521,280,1541,361,-225,-433,-6,2641,-358,-327,-436,-370,-261,139919
-345,-25,131,-108,-136,-125,-435,-436,129,-51,-410,-308,117,-248,-83,-90,51,172,131,-191,-156,-234,-40,205,-470,285,233,56,74,99,767,139920
-309,-33,103,-86,-124,-108,-375,-395,84,-117,-318,-213,45,-87,-121,-72,64,145,187,-137,-222,-196,-5,210,-363,160,228,75,118,144,585,139921
-264,-19,84,-65,-91,-96,-334,-296,55,49,-90,-215,79,-103,-144,-70,50,108,195,-111,-243,-185,-9,192,-300,105,202,81,127,125,431,139922
