-236,-50,24,-7,-42,-37,-241,-271,-58,-34,-287,-50,110,-61,75,-238,39,71,191,-156,-546,-127,78,148,-143,-1094,176,95,111,93,392,25336
-236,-49,23,0,-38,-19,-251,-258,-64,-48,-289,-119,-43,33,61,-257,54,63,222,-161,-613,-141,92,166,-132,-1192,186,103,137,122,359,25337
-153,-36,-1,8,-17,3,-158,-40,67,-22,-156,-50,-8,224,-20,-196,28,26,169,-95,-491,-77,70,122,-56,-1027,119,85,113,99,186,25338
53,9,-38,45,36,44,91,72,-5,-47,167,130,-11,116,32,-41,-28,-48,26,39,-106,63,12,-30,104,-486,-44,1,7,-3,-135,25339
162,44,-22,62,66,70,227,129,-105,20,391,205,73,93,41,70,-12,-33,-26,127,104,145,26,-68,173,-161,-75,-21,-22,-22,-242,25340
238,63,-40,49,77,75,340,77,-30,23,368,153,-2,216,49,169,-6,-40,-97,206,298,219,39,-114,243,142,-118,-42,-45,-29,-317,25341
164,35,-48,27,52,61,257,-153,12,18,148,46,-123,94,16,103,-16,-54,-79,137,177,136,21,-99,152,22,-102,-49,-50,-28,-247,25342
141,25,-48,24,33,66,219,80,-35,72,179,174,55,90,-12,73,-26,-50,-66,90,117,103,-1,-78,100,-34,-88,-41,-46,-33,-284,25343
202,53,-33,41,66,81,267,330,-79,-41,156,95,4,77,18,139,-2,-21,-63,159,235,162,16,-73,148,122,-82,-31,-37,-13,-259,25344
187,37,-9,22,66,85,199,331,-51,-48,-11,83,-180,-10,14,121,-10,-15,-44,150,216,143,26,-58,126,82,-66,-24,-39,-12,-219,25345
358,71,-46,43,114,118,357,332,-10,-46,27,102,-281,-35,63,221,-65,-97,-192,241,548,244,-31,-209,229,521,-211,-131,-148,-121,-467,25346
330,73,-62,45,91,91,361,183,18,-23,172,97,-111,104,114,211,-95,-122,-258,222,581,228,-69,-257,179,589,-259,-192,-198,-177,-472,25347
319,82,-55,46,75,83,381,153,59,135,224,180,-34,30,136,222,-78,-108,-221,238,609,245,-50,-247,179,648,-229,-165,-182,-168,-402,25348
130,31,-45,11,14,16,165,88,-67,143,157,-27,-276,-81,2,87,-47,-39,-95,117,283,112,-31,-109,36,196,-87,-84,-95,-96,-120,25349
36,11,-19,-2,-10,-1,46,99,-107,-7,105,-74,-119,-14,-10,28,-11,-2,-6,62,123,66,0,-35,4,-41,-15,-31,-35,-41,-2,25350
21,17,-17,0,-7,-6,45,89,-5,-52,151,26,29,46,73,54,20,20,54,89,133,100,49,9,36,-69,12,13,11,-8,6,25351
103,36,-27,24,20,18,143,72,70,64,180,73,138,18,65,124,18,19,19,153,268,156,33,-32,100,103,-16,-11,-8,-32,-95,25352
67,25,-10,19,18,15,85,-125,-11,86,108,72,-5,41,131,64,-8,0,-14,96,180,96,-2,-54,37,-3,-28,-45,-33,-58,-67,25353
36,20,-15,1,1,1,67,80,-50,-10,-60,106,85,151,-44,21,-21,-26,-24,66,139,63,-14,-71,7,-59,-42,-63,-55,-72,-58,25354
170,55,-28,37,51,44,219,130,-57,-191,301,97,158,244,3,155,2,-13,-32,189,388,197,24,-84,138,268,-77,-50,-42,-60,-205,25355
493,135,-64,77,133,133,544,551,-9,-76,438,345,-38,240,210,390,-51,-83,-227,404,965,421,-33,-289,354,1073,-273,-154,-175,-185,-598,25356
557,140,-84,87,140,138,625,406,-49,-42,524,395,-158,265,170,447,-97,-121,-315,434,1141,439,-76,-367,369,1364,-348,-211,-250,-250,-701,25357
448,93,-80,44,90,86,514,199,37,-3,218,151,-104,263,97,369,-119,-126,-299,339,988,340,-108,-344,255,1232,-321,-217,-252,-246,-576,25358
152,42,1,5,18,22,174,13,54,64,-54,-47,-74,-20,45,145,-37,-19,-97,130,420,123,-47,-118,19,502,-95,-81,-113,-89,-88,25359
-42,-7,24,-12,-35,-23,-41,-58,53,108,-181,-39,59,-176,-12,-10,-8,13,18,-14,5,-29,-20,-3,-128,-33,22,-31,-35,-2,133,25360
15,15,8,14,-9,1,37,-11,130,111,-11,199,13,61,-12,30,-6,9,30,15,62,18,-1,-11,-64,34,5,-18,-20,7,73,25361
25,8,-3,2,-2,7,52,11,43,137,-120,150,11,-12,-42,36,-18,-3,6,12,58,1,-10,-27,-60,42,-3,-31,-34,-2,76,25362
-81,-14,6,-23,-32,-36,-66,-226,9,58,-121,-109,132,-8,-11,-49,-7,33,76,-66,-164,-76,6,56,-128,-242,76,13,16,54,258,25363
-121,-34,3,-23,-51,-46,-103,-228,-9,0,15,19,72,-178,-23,-81,-12,27,91,-98,-244,-98,-10,70,-145,-367,79,12,24,61,146,25364
152,41,-38,26,33,25,180,199,-112,-39,41,129,-221,36,3,134,-23,-29,-45,128,252,123,-23,-82,94,284,-91,-58,-45,-26,-272,25365
391,96,-53,50,96,83,421,325,-27,-47,322,188,-122,-62,66,360,-12,-49,-173,326,748,327,-17,-208,290,943,-218,-107,-128,-107,-442,25366
459,114,-50,49,110,94,489,302,-106,-51,422,166,324,188,98,405,-50,-81,-227,362,927,366,-41,-271,311,1190,-275,-149,-187,-168,-544,25367
365,85,-24,25,82,67,388,221,-102,-68,204,99,345,147,-1,316,-82,-83,-183,280,789,277,-77,-235,213,1027,-240,-143,-186,-162,-414,25368
87,12,12,-10,4,10,89,-337,59,-116,23,-27,275,-61,-53,110,-39,-10,-81,88,322,73,-69,-78,-5,405,-67,-80,-99,-71,25,25369
15,11,32,-14,9,15,9,34,119,-92,26,-78,-57,34,-53,61,15,21,-15,49,164,38,-17,4,-23,158,-2,-31,-32,-8,130,25370
-28,0,19,-22,-13,-11,-28,132,41,194,-16,-171,-10,1,-30,29,31,31,28,25,106,24,8,18,-24,57,11,-9,-2,0,121,25371
-36,8,22,-8,1,-9,-23,80,-34,85,-108,-3,-256,29,47,29,17,31,48,30,96,39,-23,39,-9,26,43,0,17,25,77,25372
-6,17,23,-2,10,13,-25,162,-76,-129,-199,18,-215,100,-19,26,-5,23,19,19,102,24,-49,16,-16,30,20,-17,-12,16,151,25373
11,8,20,2,12,27,-28,180,-44,-81,-195,-56,-170,15,-8,-6,-37,-21,-24,0,87,-7,-67,-18,-41,5,-18,-53,-51,-32,59,25374
107,52,7,32,39,50,102,-44,-83,144,-67,85,-173,175,3,92,-1,-6,-17,102,298,95,-14,-45,73,253,-51,-39,-34,-18,-83,25375
374,101,-39,56,101,96,415,234,-3,145,326,234,-399,87,48,314,-52,-82,-200,304,857,305,-52,-235,294,1005,-251,-129,-153,-145,-515,25376
456,127,-29,59,130,115,500,394,-82,87,330,174,-50,9,128,387,-84,-104,-279,349,1036,348,-94,-318,316,1304,-309,-189,-213,-207,-605,25377
381,94,-35,26,94,82,410,39,-37,-59,76,57,-12,-138,44,316,-124,-124,-313,269,939,264,-139,-337,208,1234,-308,-222,-256,-237,-482,25378
45,4,13,-27,-8,-13,48,-177,19,-90,-141,-147,-39,-145,21,77,-52,-23,-97,34,316,19,-81,-90,-52,430,-75,-88,-113,-85,65,25379
-107,-8,31,-31,-44,-41,-106,-76,-74,74,-87,-139,-40,2,-8,-5,44,76,85,-24,-20,-54,16,96,-111,-26,92,44,33,62,288,25380
-69,6,50,-5,-16,-14,-91,-55,-45,48,-31,-76,-44,21,-77,16,69,88,116,9,-45,-31,45,110,-68,-56,98,70,68,73,218,25381
-23,-3,38,-19,-3,1,-59,-175,111,18,-93,-62,-3,-16,-46,20,17,27,57,17,3,-30,2,34,-47,18,22,22,16,13,81,25382
-7,8,26,-16,-1,-5,-37,-137,23,101,-14,-49,-52,24,-19,41,24,35,67,34,17,2,12,36,-19,39,36,36,24,28,110,25383
68,16,-19,-18,-7,-7,78,-19,20,30,-15,-30,-49,54,26,124,1,5,-14,105,189,78,-16,-35,69,284,-36,-15,-27,-20,-57,25384
97,42,-40,-4,-1,-1,116,114,-32,46,29,49,-126,83,34,153,-5,-8,-56,143,290,119,-27,-69,101,413,-63,-35,-52,-50,-135,25385
487,131,-66,52,132,118,510,198,-114,-76,533,236,-157,426,130,457,-28,-73,-266,426,1036,424,-41,-280,412,1402,-278,-141,-175,-176,-659,25386
642,152,-51,51,175,176,623,430,-82,-148,456,203,-163,295,197,555,-96,-132,-440,483,1362,487,-115,-444,445,1863,-412,-257,-305,-291,-806,25387
498,109,-38,19,110,109,477,197,5,-41,260,110,315,45,189,452,-91,-97,-366,370,1151,370,-121,-349,311,1617,-320,-219,-267,-241,-524,25388
91,40,17,-19,9,-8,108,-18,97,-125,-126,21,126,14,46,190,32,66,-71,116,472,118,-6,-17,54,689,-7,-18,-58,-19,218,25389
-64,6,32,-20,-31,-33,-65,-188,19,-43,-389,-93,360,4,-51,26,40,73,21,-31,100,-29,-6,76,-83,174,67,8,0,35,271,25390
-54,-6,15,-34,-22,-19,-67,-147,-100,-1,-333,-180,61,-137,-39,-32,-21,4,-27,-76,67,-70,-71,8,-99,127,2,-40,-39,-2,99,25391
-87,-9,20,-30,-29,-36,-68,-126,-124,-238,-91,-85,26,-15,-47,-16,20,39,35,-62,48,-51,-19,75,-60,61,57,24,31,65,180,25392
-72,1,21,-14,-26,-21,-37,-8,-77,-135,-217,-28,-81,-137,3,22,51,67,75,-28,89,-8,27,93,-7,76,84,55,51,92,216,25393
-59,-6,13,-11,-16,-18,-30,-55,-106,39,-102,20,-128,-54,42,6,31,43,30,-32,109,-2,-4,47,3,103,53,35,21,71,142,25394
53,15,-9,4,15,11,85,2,-6,-62,147,-44,21,100,-59,60,-30,-36,-70,18,292,43,-60,-81,60,372,-65,-59,-71,-24,-109,25395
163,52,-14,26,32,35,216,2,-128,8,132,-31,233,83,-34,159,-29,-43,-110,114,519,129,-61,-125,147,678,-121,-78,-97,-55,-201,25396
227,55,-33,22,42,34,273,-29,-69,-24,113,82,-96,-165,-61,223,-36,-49,-160,165,641,172,-80,-164,193,869,-157,-99,-119,-80,-295,25397
227,67,-19,34,55,60,248,99,22,-125,53,57,-126,-37,-81,217,-48,-46,-191,151,609,150,-89,-179,145,868,-149,-121,-134,-91,-225,25398
34,-3,11,-10,-8,1,-2,3,43,-62,-279,-165,-104,8,-130,38,-37,-23,-105,0,214,-14,-59,-85,-34,379,-57,-79,-83,-51,-10,25399
-42,-27,15,-25,-29,-22,-92,-205,100,61,-267,-213,-74,26,-44,-19,-26,-12,-34,-29,44,-60,-32,-28,-76,153,-13,-30,-48,-28,57,25400
-67,-3,39,-2,-19,-18,-75,-48,116,31,59,-208,135,-129,73,0,19,39,60,0,-36,-51,2,46,-45,58,67,36,25,37,74,25401
-33,7,42,22,-19,-12,-41,-19,36,50,132,-86,70,30,71,19,39,61,90,32,-37,-16,19,62,-10,56,78,55,49,51,104,25402
49,25,46,28,5,13,18,36,-46,69,-128,82,47,134,15,75,18,19,6,69,63,20,-1,-16,41,201,6,12,5,-8,80,25403
-45,-12,46,-3,-11,-3,-85,-69,-13,29,-71,-53,75,14,-53,-6,31,39,28,2,-112,-53,30,34,-28,-24,44,33,20,14,197,25404
-29,-19,-3,-2,-19,-26,-10,-28,24,-16,107,9,198,118,-79,10,14,29,7,17,-46,-12,11,7,0,39,16,15,13,13,70,25405
137,47,-18,36,25,7,201,7,-1,82,329,-16,220,133,31,146,4,18,-67,135,264,113,-20,-72,129,456,-59,-16,-15,-26,-166,25406
195,62,-19,40,39,24,281,53,-114,127,318,-15,-25,120,49,175,-35,-40,-144,144,397,121,-58,-147,138,636,-113,-70,-90,-85,-210,25407
100,32,-12,14,17,11,158,18,-129,-132,108,-48,-141,112,-58,84,-72,-66,-166,51,277,29,-92,-157,26,482,-121,-111,-128,-106,-136,25408
-29,10,26,-4,-9,-4,-32,-51,19,-121,54,-20,101,-121,-21,5,-5,14,-35,-31,65,-29,-19,-15,-41,164,-1,-25,-31,-2,119,25409
-104,-33,11,-28,-37,-42,-119,13,-45,-114,173,-137,7,-75,-11,-46,0,22,11,-92,-43,-71,-20,39,-76,-12,54,11,21,43,138,25410
-6,0,2,-8,-11,-10,-14,48,-59,-54,89,-116,-285,28,-29,15,-17,0,-18,-26,126,-4,-28,-13,9,189,5,-2,-8,25,23,25411
42,29,17,2,12,7,33,98,-134,4,97,-23,-108,174,-113,50,3,1,-19,8,209,23,-10,-25,36,275,-14,4,-4,16,-38,25412
20,5,-4,-7,9,-9,12,-79,-113,24,-40,50,14,-49,-84,55,8,9,1,-13,196,16,-2,-4,25,255,1,11,2,21,-63,25413
-46,-19,-13,-29,-26,-39,-65,-149,-76,-106,-60,-171,-8,-140,-35,4,0,23,27,-57,92,-21,-16,33,-14,119,28,28,14,47,101,25414
-96,-30,10,-24,-46,-48,-101,25,28,107,-102,-183,192,-67,-47,-38,4,21,30,-83,5,-64,-7,43,-43,-1,50,29,26,58,150,25415
-150,-38,31,-23,-47,-38,-167,46,161,0,-123,-135,339,22,-82,-89,16,33,67,-125,-121,-117,6,84,-81,-168,76,47,53,65,209,25416
-225,-54,70,-44,-52,-49,-280,-107,132,-36,-54,-134,-60,-243,-80,-159,41,55,129,-177,-315,-181,34,152,-138,-447,128,86,97,100,332,25417
-208,-43,62,-17,-37,-46,-244,-40,-23,2,-48,-127,-85,-258,11,-168,34,44,132,-165,-338,-176,29,138,-113,-478,132,90,99,95,248,25418
-8,3,3,17,15,-3,-1,36,-120,47,-61,2,17,68,-23,1,-4,2,26,7,6,-29,-14,21,58,11,31,30,42,30,-153,25419
57,15,-10,16,31,15,76,-35,-52,3,-6,28,79,179,12,67,-21,-11,-21,65,138,29,-18,-28,103,225,-8,10,8,-11,-141,25420
-66,-30,2,-21,-21,-20,-91,-100,-90,52,-124,-131,94,-76,44,-46,-23,-4,4,-31,-111,-90,-41,3,-20,-58,15,-1,2,-13,38,25421
-30,-9,37,-5,3,0,-57,43,-37,-65,34,-22,7,-73,19,2,13,22,27,27,-73,-29,4,22,39,6,23,28,20,7,11,25422
-66,-19,37,-15,-8,-2,-118,123,-48,-129,-242,-49,-25,-214,12,-48,3,12,8,-12,-179,-74,-4,17,-17,-133,31,6,5,-6,92,25423
-136,-46,19,-25,-29,-38,-176,-59,-59,18,-225,-103,-88,-154,31,-119,-23,-11,5,-80,-321,-137,-19,32,-88,-313,38,2,12,-13,112,25424
-12,-20,-19,-8,1,-26,7,-56,-28,116,108,-50,63,34,52,-25,-55,-59,-66,-6,-94,-46,-53,-59,4,1,-48,-41,-39,-60,-126,25425
-117,-41,0,-29,-33,-43,-84,-5,-69,102,-66,-157,37,62,-26,-111,-61,-34,-11,-85,-254,-123,-49,-14,-95,-208,6,-16,-17,-28,14,25426
-71,-26,22,-6,-3,-4,-62,-10,-136,53,-127,-172,-60,-13,-68,-69,-8,1,18,-53,-185,-77,1,20,-41,-174,22,27,28,18,46,25427
3,-17,-13,-8,8,16,-5,-35,-157,-7,25,-96,-81,-110,-30,0,-15,-6,-49,-9,-3,-20,-23,-25,4,23,-22,-11,-15,-13,-127,25428
-7,-15,-11,-6,6,14,-22,10,24,-21,-108,-22,-35,76,18,-24,-56,-51,-80,-52,5,-52,-64,-66,-36,30,-53,-52,-52,-44,-153,25429
-42,-4,23,1,-6,-1,-60,-118,134,209,31,64,192,-11,69,-30,3,15,31,-53,-47,-50,0,24,-41,-68,39,28,32,37,35,25430
18,27,32,19,21,10,11,56,-9,182,-1,45,176,-131,2,25,42,48,48,9,73,22,45,46,35,60,61,58,58,70,50,25431
-9,10,24,10,8,8,-31,122,53,239,-38,23,-35,-8,49,-10,16,15,24,-30,32,-18,23,25,-1,-6,29,30,36,44,79,25432
16,6,6,-1,12,10,9,-36,195,124,0,81,-91,151,15,14,-2,-7,-1,-7,114,12,10,2,20,94,-12,11,12,23,-57,25433
34,3,-6,-10,6,4,27,-224,92,129,93,89,-33,69,-21,28,-13,-9,-22,-2,156,25,6,-18,31,156,-21,0,0,7,-70,25434
14,1,-4,-6,-5,-5,-3,-31,106,9,54,19,125,-67,113,-23,-47,-47,-66,-53,87,-26,-48,-41,-18,88,-33,-37,-24,-30,-107,25435
94,19,-13,18,28,21,84,-58,-45,-5,24,-25,71,62,63,22,-77,-86,-135,-5,204,11,-91,-119,10,275,-105,-97,-93,-85,-216,25436
67,13,-3,11,27,18,55,-58,-113,-13,62,-126,135,56,33,40,-26,-38,-76,15,186,15,-42,-63,21,252,-50,-50,-55,-38,-118,25437
47,12,-4,5,2,1,36,-10,-61,-5,116,8,197,160,80,82,32,21,-8,53,186,49,25,8,68,251,7,19,7,15,-76,25438
-1,11,-13,3,-9,-24,4,23,10,16,29,60,42,149,25,56,30,32,18,24,85,18,20,57,41,137,47,26,38,36,47,25439
56,27,-29,-7,12,-4,78,100,-18,-85,89,-46,-34,-67,48,77,3,1,-30,57,165,58,-9,-1,82,270,-8,-8,4,-3,-97,25440
-17,-5,-18,-22,-13,-20,-7,-102,-115,20,126,-173,50,-72,21,2,-21,-13,-24,2,13,-17,-12,11,8,103,7,-1,-9,-18,-12,25441
-74,-17,-14,-20,-28,-35,-89,-162,-78,44,-8,-69,-90,-82,41,-35,-2,4,14,-32,-114,-47,0,50,-26,-31,44,20,15,19,25,25442
9,0,-17,0,7,0,-1,-153,11,28,108,-10,-170,57,33,24,-10,-14,-28,43,2,6,-14,1,24,147,-6,-21,-10,-9,-105,25443
99,39,2,25,45,37,105,-54,-75,-156,-26,-52,-48,235,48,91,-9,-28,-68,93,159,62,-13,-33,75,351,-45,-37,-22,-38,-67,25444
90,26,16,22,28,36,93,-119,-13,-78,-53,37,92,137,80,72,-21,-29,-68,55,141,51,-10,-36,40,335,-49,-40,-35,-56,-117,25445
32,-4,-9,-1,-5,-2,57,5,-94,-151,-111,55,-56,37,60,28,-21,-27,-45,18,79,8,-14,-31,-6,235,-34,-35,-35,-45,-111,25446
-11,2,-25,7,-15,-27,59,19,-81,-49,4,91,-323,85,-3,45,53,41,48,41,55,25,39,65,16,173,54,38,53,40,23,25447
29,34,-26,24,13,-3,97,24,-101,36,22,87,-358,104,92,86,53,30,19,60,163,65,42,39,52,286,26,24,48,33,-37,25448
21,27,-1,4,19,4,44,249,-148,11,-48,26,-196,141,43,44,6,-19,5,6,105,23,-9,4,-3,217,-6,-3,0,2,-102,25449
-14,1,2,-17,0,-5,-3,53,-124,-27,-83,-31,-112,-2,1,8,-4,-24,11,-23,56,-12,-26,5,-44,135,4,-7,0,1,-82,25450
-19,-8,17,-7,-1,0,-19,-157,-77,-19,-93,47,16,91,-9,-1,-9,-21,3,-34,47,-26,-28,10,-55,107,12,-13,-7,1,-93,25451
-36,-21,28,-13,-6,-2,-73,-143,30,162,-195,-123,188,-147,3,-65,-40,-58,-25,-91,-19,-80,-63,-14,-119,34,-25,-53,-45,-35,-77,25452
-39,-26,25,-18,-11,-5,-92,-55,128,191,103,-92,428,-71,-3,-91,-49,-81,-31,-103,-41,-91,-56,-30,-129,2,-47,-61,-52,-44,-106,25453
-4,-2,14,-4,6,-5,-21,-66,96,58,206,61,211,113,55,-9,16,-14,24,-28,44,-13,18,15,-53,91,4,-8,7,4,-13,25454
-13,1,4,-6,4,-17,-31,84,28,40,30,129,-153,116,73,18,54,37,58,0,24,9,51,77,-28,57,56,37,50,47,63,25455
-95,-28,20,-30,-21,-35,-133,24,1,29,-132,40,-195,65,-4,-67,22,25,83,-84,-158,-75,16,103,-110,-176,91,41,65,54,93,25456
-39,-18,12,-13,-1,-11,-64,116,42,2,-70,-21,83,163,5,-49,-10,-21,36,-64,-74,-55,-23,48,-72,-75,38,0,20,11,3,25457
-48,-18,15,-10,0,-7,-70,133,-77,-103,87,8,45,102,16,-57,-2,-21,24,-75,-109,-68,-29,55,-78,-101,35,0,17,8,-15,25458
-41,-8,9,-6,-1,-3,-41,-16,-89,-62,201,86,-47,61,39,-15,33,14,56,-34,-83,-31,15,82,-36,-54,54,38,42,38,11,25459
41,15,-11,3,19,7,34,105,-67,-129,158,146,-26,19,14,56,36,-3,27,31,72,42,24,27,50,158,4,18,13,7,-84,25460
83,25,-14,11,22,5,85,21,-56,-109,-101,139,57,86,10,100,38,6,-3,80,163,83,18,24,77,292,-6,12,8,3,-46,25461
57,20,-27,9,11,-11,81,-1,-46,64,120,62,126,-33,-9,77,25,-3,-14,73,141,71,13,21,54,265,-4,5,4,2,-68,25462
102,25,-33,10,29,17,127,22,-2,33,227,37,35,1,18,89,-18,-42,-89,95,222,71,-33,-50,55,413,-81,-59,-61,-52,-263,25463
93,25,-1,8,35,36,85,-139,-26,-128,-35,75,112,-33,-41,50,-36,-49,-93,48,178,30,-51,-64,5,369,-89,-71,-78,-63,-240,25464
3,3,37,-12,24,30,-35,-149,90,-96,-173,-83,-77,-258,-44,-30,-16,-34,-23,-38,-23,-55,-37,8,-87,114,-27,-32,-44,-26,-17,25465
-19,-15,22,-8,2,2,-41,24,-12,39,-47,-12,18,-189,-48,-39,-12,-28,1,-51,-68,-76,-28,22,-109,31,-6,-30,-24,-12,21,25466
3,5,-15,5,-9,-31,18,-122,-28,-35,-48,44,362,8,-45,26,35,23,64,14,15,-8,20,75,-33,119,41,33,40,35,32,25467
2,9,-29,-9,-14,-43,44,100,-32,-46,13,-20,8,47,-47,61,44,29,75,37,66,25,31,77,1,167,41,42,51,44,54,25468
27,-3,-5,-9,-7,-28,24,-39,-46,-99,82,34,-54,-57,-54,36,-1,-16,19,18,79,-10,-18,26,-33,193,2,0,3,2,-81,25469
0,-7,19,-5,2,-11,-9,-159,-14,-114,171,59,-234,-10,-35,14,-4,1,32,1,38,-25,-12,45,-47,120,15,13,10,17,-10,25470
-45,-3,18,0,-8,-17,-44,-39,-11,-101,257,134,-7,84,-14,-6,-6,5,39,-34,-20,-39,-11,56,-78,34,24,6,19,17,22,25471
11,-11,-22,-6,-8,-13,1,70,156,-34,162,59,139,-84,-14,11,-32,-33,-19,-9,56,-16,-40,-10,-61,177,-28,-42,-34,-39,-126,25472
8,-3,-4,-17,-4,-6,-10,91,27,-54,351,1,-210,-5,-50,2,-20,-15,7,-13,29,-21,-18,17,-59,133,-19,-19,-19,-27,-77,25473
-6,-12,19,-19,-4,-6,-38,56,-22,32,302,52,65,-11,-8,-15,-21,-20,21,-19,-9,-39,-5,42,-76,69,-14,-5,2,-20,-43,25474
231,43,-19,27,67,58,232,257,-178,-16,290,202,117,-34,29,199,-14,-39,-74,181,448,165,-16,-58,146,655,-121,-40,-40,-55,-371,25475
877,196,-107,109,241,224,941,479,-292,-118,609,423,-63,311,156,715,-106,-190,-493,652,1714,640,-108,-502,632,2364,-541,-288,-312,-334,-1329,25476
1154,262,-158,121,291,281,1245,786,-262,-60,553,332,-133,635,191,945,-180,-256,-705,844,2352,835,-175,-714,782,3314,-730,-402,-487,-494,-1622,25477
1116,272,-139,106,259,230,1224,688,-244,99,505,413,-10,695,208,948,-177,-236,-679,814,2398,805,-180,-696,712,3465,-692,-390,-506,-490,-1434,25478
283,94,-31,-24,26,-2,332,67,-30,-13,264,103,-197,-7,123,333,-86,-50,-288,211,943,189,-125,-219,27,1604,-214,-177,-262,-229,-49,25479
-241,-28,44,-74,-103,-125,-257,-277,83,-124,-296,-22,-86,-286,-90,-87,25,84,71,-157,-114,-186,-22,158,-305,160,124,26,10,39,485,25480
-82,-17,40,-40,-39,-53,-126,-139,32,-132,-420,51,105,-118,-170,-10,-6,39,0,-64,56,-92,-38,69,-180,345,27,-20,-21,6,213,25481
-98,-44,29,-55,-41,-38,-153,-121,152,-114,-421,-126,117,-261,-102,-51,-56,-8,-67,-112,-20,-146,-89,14,-219,259,-19,-72,-60,-40,156,25482
-169,-60,27,-71,-67,-74,-203,-70,157,-81,-5,-212,213,-190,-114,-102,-45,-4,5,-159,-151,-189,-71,66,-252,79,20,-34,-24,-8,182,25483
-184,-52,19,-59,-73,-81,-215,-32,165,-4,-85,-137,121,-246,-63,-116,-20,14,89,-152,-208,-173,-56,106,-228,-4,75,9,18,39,243,25484
458,109,-54,55,119,92,478,326,22,-32,184,216,-245,117,116,401,-57,-98,-194,348,963,326,-76,-229,323,1503,-264,-135,-135,-122,-791,25485
1943,469,-243,274,513,477,2118,1238,-306,-13,1377,874,-189,686,380,1592,-257,-426,-1096,1435,3866,1428,-250,-1194,1417,5422,-1199,-653,-732,-725,-2803,25486
2254,551,-292,268,554,494,2478,1481,-367,-2,1486,922,-42,779,416,1896,-360,-498,-1464,1647,4747,1633,-378,-1496,1511,6801,-1469,-871,-1011,-985,-3038,25487
1848,463,-205,173,418,373,2015,913,-300,-137,1060,631,1,674,365,1615,-312,-374,-1282,1345,4143,1316,-360,-1261,1101,6183,-1209,-766,-924,-880,-2206,25488
360,102,4,-65,7,-10,380,-218,-10,-155,-28,-191,65,-117,-50,473,-135,-33,-450,253,1431,190,-210,-330,-91,2661,-288,-295,-416,-343,83,25489
-487,-101,116,-165,-199,-211,-583,-903,174,-204,-632,-467,167,-409,-219,-229,-11,132,141,-361,-334,-437,-86,251,-658,251,233,19,-5,56,942,25490
-456,-117,109,-145,-175,-162,-571,-549,210,-90,-362,-310,163,-302,-174,-268,-21,61,120,-364,-444,-442,-115,206,-588,27,181,-16,13,53,707,25491
-360,-112,99,-124,-133,-110,-482,-463,27,-279,-313,-400,-113,-451,-127,-223,-27,45,101,-320,-390,-370,-106,171,-480,43,145,-12,16,55,531,25492
-292,-68,108,-80,-106,-87,-383,-240,131,-107,-306,-419,-16,-337,-77,-145,38,88,168,-227,-307,-272,-29,217,-359,96,195,54,93,119,511,25493
-257,-50,81,-49,-100,-95,-300,-104,125,-44,-310,-176,181,-157,-29,-102,52,88,177,-175,-246,-207,2,213,-282,140,185,69,106,112,378,25494
20,14,26,-2,-14,-14,13,-98,-1,-12,-45,-6,-138,128,26,106,5,10,23,33,255,9,-32,19,-52,780,-19,-32,-4,-9,-106,25495
659,159,-83,66,144,130,737,474,-288,3,445,264,-126,162,105,620,-93,-139,-377,509,1511,485,-93,-411,448,2475,-445,-257,-268,-269,-1001,25496
1068,261,-140,109,241,224,1173,599,-316,-14,570,535,-9,416,223,965,-164,-222,-705,801,2369,782,-192,-709,706,3710,-710,-431,-475,-463,-1505,25497
1300,306,-162,109,295,270,1371,731,-250,28,768,570,-18,499,234,1158,-220,-277,-896,947,2902,916,-268,-885,805,4507,-861,-540,-621,-602,-1654,25498
249,61,37,-72,12,18,144,113,30,-135,-25,-80,6,-395,10,300,-124,-59,-377,123,977,72,-202,-275,-130,2036,-245,-266,-329,-271,18,25499
-403,-81,155,-133,-144,-124,-585,-400,87,-14,-373,-307,129,-452,-120,-202,28,135,157,-318,-369,-368,-49,252,-538,197,246,42,47,103,815,25500
-295,-48,105,-102,-108,-95,-381,-277,110,-64,-319,-40,7,-44,-30,-74,86,150,211,-188,-234,-219,20,263,-342,312,240,103,124,166,587,25501
-272,-50,70,-73,-108,-107,-289,-201,175,-256,-357,-90,-27,16,-17,-76,64,135,181,-181,-222,-204,8,222,-306,293,203,84,109,160,496,25502
-264,-41,66,-42,-90,-97,-262,-288,101,-126,-326,-186,5,-212,-98,-100,46,100,180,-198,-251,-210,-4,201,-293,233,186,78,102,140,434,25503
-148,-22,61,-28,-53,-34,-181,-112,69,20,-203,-174,12,-94,-160,-52,11,45,123,-144,-114,-157,-25,115,-221,402,100,31,47,91,225,25504
152,47,27,22,49,53,119,52,-43,-157,89,-115,152,-65,-90,171,-25,-21,-51,71,421,61,-64,-73,14,1102,-95,-72,-57,-18,-281,25505
1031,260,-91,142,275,261,1094,499,-95,-39,566,280,90,323,111,871,-154,-225,-583,723,2138,717,-183,-642,688,3407,-656,-376,-418,-368,-1519,25506
1163,282,-128,116,265,247,1274,490,-49,-49,722,359,-248,302,137,993,-253,-309,-822,796,2558,788,-295,-847,694,4095,-817,-524,-615,-549,-1651,25507
889,230,-71,74,187,154,971,387,-67,-27,496,205,-147,136,86,795,-216,-222,-688,592,2120,572,-269,-676,429,3598,-645,-445,-537,-484,-1079,25508
68,34,36,-60,-43,-64,34,-109,27,-29,-115,-219,111,-489,-149,177,-63,6,-194,19,606,-29,-126,-110,-198,1608,-94,-154,-196,-146,255,25509
-259,-41,92,-73,-108,-108,-317,-211,170,-64,-244,-275,-14,-500,-158,-100,3,81,65,-222,-121,-264,-65,142,-382,583,131,-13,1,30,529,25510
-246,-44,81,-53,-91,-95,-304,-114,197,-162,-226,-99,-85,-247,-52,-112,2,60,130,-218,-183,-275,-51,159,-342,440,126,19,29,41,443,25511
-278,-46,85,-46,-87,-104,-318,-394,113,-305,-123,-34,-31,-99,-27,-107,67,125,238,-195,-262,-239,33,236,-291,264,205,118,122,120,514,25512
-283,-61,71,-63,-100,-115,-321,-285,-27,-268,-161,-62,63,-275,-43,-113,58,117,214,-195,-309,-244,21,217,-280,180,207,98,118,113,470,25513
-269,-65,81,-61,-93,-82,-321,-88,21,-175,-158,-92,151,-418,-172,-136,22,76,151,-215,-325,-264,-12,157,-277,148,144,45,80,64,373,25514
-125,-36,67,-31,-41,-32,-163,-120,67,-7,-88,-175,-238,-330,-134,-44,-4,18,51,-125,-88,-164,-31,49,-167,448,37,-11,13,0,132,25515
-61,-4,51,-26,-17,-14,-98,-66,168,57,-71,-83,71,-105,-46,6,-10,10,30,-78,31,-110,-34,24,-108,595,10,-7,5,-13,90,25516
-22,20,36,-3,-8,-19,-41,-5,125,80,22,67,123,-120,19,38,0,26,32,-44,88,-65,-15,35,-68,662,0,2,17,-3,73,25517
44,21,24,-2,8,-13,67,-7,55,159,56,-83,-34,-185,-16,87,-31,-10,-58,4,231,-22,-52,-51,-38,863,-84,-70,-50,-63,-32,25518
-83,-5,53,-15,-18,-45,-59,-204,97,128,-1,-179,177,-95,-49,-14,-11,29,32,-90,1,-121,-24,34,-142,563,19,-16,0,-4,140,25519
-261,-36,76,-13,-63,-80,-239,-104,149,167,-110,-224,192,-272,-2,-148,42,95,187,-213,-362,-238,26,184,-248,73,167,83,106,116,426,25520
-210,-29,64,-11,-53,-76,-205,-9,102,15,82,-177,-7,-238,-40,-132,19,41,133,-201,-317,-201,-9,120,-207,145,107,30,71,91,249,25521
-108,-2,70,-2,-21,-32,-127,54,-27,-76,62,-115,187,-62,-119,-61,2,22,79,-140,-172,-141,-19,74,-132,338,53,6,33,63,134,25522
-116,-19,58,-19,-36,-36,-143,27,25,62,-132,-109,186,-181,-122,-72,-5,22,94,-156,-175,-142,-14,83,-127,327,63,20,41,78,130,25523
-112,-25,41,-18,-42,-43,-135,292,108,140,-35,-77,-37,-113,-12,-69,-20,28,87,-143,-186,-131,-11,75,-114,333,64,21,32,81,76,25524
-238,-54,53,-38,-71,-74,-258,-28,99,62,55,-95,-2,-112,-49,-156,11,66,150,-221,-405,-217,8,154,-199,17,142,69,82,127,345,25525
-143,-22,23,-27,-46,-55,-164,31,152,207,-45,-36,90,-57,-34,-77,6,43,115,-129,-243,-128,12,117,-100,196,89,49,70,98,171,25526
-198,-43,37,-43,-60,-69,-261,15,70,-10,-225,-127,35,-31,-108,-139,10,53,123,-178,-354,-184,7,125,-166,30,109,53,58,88,301,25527
-402,-100,68,-55,-113,-104,-472,-103,159,-3,-325,-166,-3,-208,-208,-310,32,81,218,-329,-744,-349,26,236,-321,-515,221,101,119,136,529,25528
-205,-41,41,-7,-50,-49,-243,-90,96,54,-33,-78,-49,-168,-52,-148,35,74,169,-161,-411,-186,49,160,-133,-140,142,71,114,105,254,25529
-75,-3,11,0,-30,-36,-103,142,28,-6,-51,25,139,-104,-5,-25,32,55,129,-49,-134,-63,50,89,-14,196,74,59,85,53,101,25530
-86,-7,12,-2,-21,-42,-104,80,34,12,-167,-87,518,-132,-10,-23,45,77,154,-35,-145,-59,62,106,-13,178,99,85,101,59,159,25531
-104,2,23,4,-19,-35,-95,102,29,125,-53,-48,-45,107,0,-16,55,99,149,-29,-146,-54,72,119,-5,136,119,85,114,57,244,25532
-107,-3,28,6,-15,-42,-100,-4,16,13,-53,48,-249,198,-17,-28,52,93,136,-46,-163,-70,67,106,-14,110,124,82,107,44,200,25533
-105,-8,43,-2,-5,-13,-127,-52,14,56,-21,-183,-337,105,-53,-59,23,65,112,-83,-191,-104,27,86,-39,58,98,62,76,32,131,25534
-188,-34,62,-20,-26,-17,-241,-119,47,-75,-236,-233,135,-196,-61,-160,1,52,149,-174,-369,-199,16,111,-126,-188,118,69,81,31,280,25535
-423,-92,79,-51,-101,-93,-487,-413,148,78,-380,-331,234,-227,-26,-339,52,117,300,-338,-828,-364,68,261,-299,-790,270,159,179,132,643,25536
-702,-179,99,-97,-177,-179,-765,-509,184,90,-568,-283,102,-263,-150,-554,78,159,435,-540,-1356,-557,91,414,-477,-1526,414,220,271,230,922,25537
-897,-212,133,-119,-219,-199,-977,-640,252,51,-770,-342,139,-523,-232,-719,126,215,577,-679,-1798,-682,145,557,-588,-2163,542,308,382,339,1187,25538
-328,-77,61,3,-51,-26,-352,-112,19,-39,-186,-117,144,-143,-160,-298,81,89,328,-254,-828,-244,126,248,-99,-934,229,174,240,185,273,25539
33,-5,19,38,42,53,59,127,-40,-83,167,43,-63,139,-71,-24,-2,-18,32,-17,-133,-10,44,-26,120,48,-16,10,45,18,-150,25540
-72,-28,9,0,-6,8,-61,73,25,-103,220,-77,-272,46,-51,-117,-40,-40,11,-120,-284,-99,19,-24,5,-93,-11,-14,8,8,-43,25541
-44,-5,34,22,15,21,-79,74,1,23,2,-47,-104,62,-42,-101,-14,-20,32,-109,-268,-80,29,3,13,-44,17,-2,22,38,4,25542
-86,-13,39,12,11,8,-156,3,-92,21,-209,-46,-105,-2,-8,-122,12,18,88,-127,-352,-97,47,61,-4,-144,78,42,72,89,123,25543
-130,-30,15,-9,-20,-29,-163,-31,-117,68,74,-13,-67,3,2,-112,30,39,117,-120,-378,-103,71,101,-5,-176,112,77,97,114,190,25544
-352,-88,25,-40,-101,-112,-376,-131,31,169,-29,-47,10,-63,-38,-266,68,90,235,-258,-760,-242,98,232,-171,-683,240,145,169,191,536,25545
-1027,-234,133,-121,-260,-276,-1120,-553,224,-44,-476,-392,-14,-406,-169,-821,178,247,671,-759,-2091,-740,194,686,-669,-2527,685,396,455,466,1492,25546
-1070,-256,146,-119,-253,-249,-1202,-464,285,72,-596,-313,-156,-428,-200,-917,161,218,696,-815,-2312,-798,186,704,-683,-2921,683,404,493,482,1403,25547
-910,-221,129,-75,-193,-178,-1048,-412,285,207,-516,-220,55,-399,-155,-796,178,218,666,-694,-2101,-676,212,649,-518,-2750,626,399,496,462,1163,25548
-308,-79,19,15,-16,-21,-361,72,135,141,-53,11,198,126,6,-325,112,93,354,-231,-972,-189,171,273,-18,-1336,254,217,295,232,210,25549
94,25,-41,67,87,79,82,277,-25,97,45,136,237,229,83,1,48,1,75,56,-163,92,107,-8,243,-242,9,67,100,35,-215,25550
71,10,-48,36,54,42,58,-28,-61,-24,-44,-3,-192,84,45,-22,19,-9,21,38,-119,64,80,-44,181,-174,-21,36,44,-16,-171,25551
15,12,-16,35,30,35,8,-91,-58,27,-171,32,11,50,-29,-59,14,-3,26,2,-157,16,73,-27,120,-243,-15,23,34,-25,-118,25552
25,11,-37,41,25,28,35,1,-58,50,7,67,-20,54,-73,-45,-11,-22,-8,11,-101,22,46,-62,115,-157,-33,-14,7,-60,-163,25553
25,6,-24,32,38,35,24,10,-40,-52,-62,-41,-159,28,-46,-48,-21,-19,-18,-5,-92,5,14,-61,94,-135,-21,-13,-9,-71,-83,25554
-183,-33,31,-6,-23,-27,-214,-146,95,90,-280,-91,-349,-6,-59,-197,29,50,141,-160,-478,-153,64,96,-65,-646,137,94,87,22,278,25555
-636,-149,72,-82,-157,-148,-699,-410,106,128,-433,-165,-354,-224,-179,-536,121,157,429,-479,-1340,-464,148,397,-392,-1812,423,258,278,223,934,25556
-969,-216,138,-106,-215,-197,-1052,-722,177,27,-465,-184,11,-266,-204,-813,198,246,665,-716,-2057,-699,235,644,-600,-2823,652,385,457,401,1382,25557
-1112,-253,152,-102,-235,-204,-1214,-569,190,-82,-610,-366,-75,-334,-286,-968,205,262,754,-824,-2451,-810,251,752,-683,-3419,738,440,553,487,1463,25558
-280,-61,40,47,-8,20,-302,6,90,79,-187,-52,-24,63,-114,-333,127,86,370,-200,-995,-170,191,288,32,-1546,265,235,317,248,146,25559
248,27,-66,70,104,121,257,176,-111,32,46,-10,-145,301,27,53,-28,-101,-65,130,37,161,39,-150,338,-88,-143,-28,-3,-57,-531,25560
114,15,-40,40,61,75,97,99,-6,80,-23,-85,-2,56,62,-52,-40,-81,-50,9,-146,36,15,-93,179,-249,-82,-29,-15,-48,-283,25561
107,36,-42,45,54,55,106,190,-76,191,239,109,77,156,109,-23,-13,-55,-10,37,-105,64,44,-51,193,-147,-48,3,6,-21,-218,25562
78,36,-26,56,44,40,101,14,-21,157,259,189,23,230,128,18,46,8,49,70,-99,94,98,25,197,-126,16,54,64,51,-94,25563
62,39,-17,62,50,24,117,-116,-73,50,8,165,64,145,128,32,77,32,66,97,-81,104,125,51,193,-94,43,83,85,88,-58,25564
-224,-38,20,2,-48,-55,-212,-101,-66,20,-328,-33,81,-57,23,-201,77,85,187,-137,-620,-133,127,198,-70,-783,208,142,144,155,462,25565
-1190,-283,129,-155,-304,-297,-1293,-832,146,-19,-899,-410,-40,-408,-161,-962,215,306,740,-846,-2471,-846,240,803,-793,-3290,803,470,523,526,1765,25566
-1303,-303,172,-135,-295,-275,-1445,-912,194,-111,-963,-441,1,-416,-156,-1090,273,339,926,-926,-2854,-926,318,942,-799,-3964,921,577,670,649,1804,25567
-1089,-271,132,-101,-224,-206,-1207,-471,141,-47,-680,-334,57,-323,-158,-967,222,252,821,-774,-2553,-769,291,797,-605,-3672,770,499,605,565,1315,25568
-216,-72,-4,30,7,15,-226,-56,-59,59,-187,198,-69,199,88,-314,75,11,293,-150,-932,-124,137,205,76,-1576,178,185,263,190,-134,25569
249,41,-83,80,107,114,301,310,-135,69,249,351,-160,363,139,62,-26,-112,-82,163,53,199,44,-170,349,-240,-155,-31,-19,-88,-588,25570
197,37,-71,57,85,80,245,84,-125,64,212,196,141,134,79,48,-15,-71,-108,120,56,162,50,-159,263,-206,-128,-40,-45,-100,-376,25571
114,25,-63,45,56,39,171,199,-57,55,153,133,362,199,-26,25,14,-32,-64,84,-6,126,64,-95,216,-269,-71,3,-1,-65,-236,25572
124,39,-56,53,71,52,177,154,-14,-8,138,148,124,86,32,41,12,-18,-27,101,51,138,70,-74,230,-203,-74,25,4,-59,-223,25573
112,28,-51,39,62,39,141,-9,-29,42,12,92,-96,86,75,-1,-46,-59,-75,55,14,85,15,-125,156,-229,-106,-36,-53,-99,-228,25574
-87,-29,-29,-8,-3,-17,-87,-21,38,-14,18,-11,182,-30,3,-174,-42,-37,-11,-118,-347,-93,0,-30,-32,-689,-4,-4,-15,-53,82,25575
-438,-106,41,-38,-102,-103,-488,-320,197,-17,-261,-89,98,-48,-61,-441,53,77,244,-366,-1054,-329,81,260,-284,-1645,272,153,170,130,629,25576
-580,-137,67,-43,-137,-133,-621,-269,151,20,-205,-235,-69,-145,-73,-516,159,170,472,-407,-1346,-377,200,449,-298,-2107,455,315,329,294,880,25577
-703,-167,70,-50,-158,-153,-726,-256,239,-26,-366,-275,-84,-203,-110,-629,163,176,570,-482,-1614,-460,218,530,-358,-2506,513,359,400,353,928,25578
-184,-45,-12,38,-10,-16,-137,-76,47,35,-105,78,-135,182,27,-239,86,38,242,-115,-706,-71,146,186,65,-1304,167,173,217,154,85,25579
174,38,-75,69,74,66,277,194,1,62,82,330,-82,452,69,50,2,-59,-47,146,21,175,70,-86,302,-287,-89,12,15,-24,-358,25580
147,19,-58,46,68,68,198,173,35,99,137,161,37,177,14,17,-24,-60,-81,115,9,121,36,-94,227,-247,-89,-14,-28,-43,-281,25581
83,-5,-54,10,48,55,94,70,-86,71,57,-13,-62,1,10,-26,-9,-43,-33,68,-104,77,46,-53,158,-354,-49,8,-1,-18,-171,25582
136,22,-52,19,46,50,169,179,-102,-35,188,178,-17,154,109,77,36,-12,-40,157,42,159,84,-38,232,-135,-45,29,14,10,-151,25583
116,42,-38,40,38,30,178,117,-25,71,275,168,-28,119,148,80,54,10,-23,155,48,157,93,-16,219,-120,-11,43,29,23,-81,25584
-288,-58,20,-22,-70,-60,-281,-151,26,108,-208,-68,-31,-27,-44,-266,59,61,155,-179,-708,-191,92,183,-151,-1097,194,128,118,113,512,25585
-1165,-268,162,-137,-281,-237,-1271,-715,124,25,-768,-462,-44,-564,-201,-983,170,255,678,-842,-2450,-852,197,740,-831,-3458,731,410,460,454,1676,25586
-1300,-314,192,-131,-280,-219,-1439,-813,81,128,-708,-491,265,-739,-236,-1138,188,262,838,-954,-2873,-952,233,857,-870,-4153,820,482,577,558,1631,25587
-1066,-291,135,-103,-221,-151,-1199,-752,23,-23,-566,-342,154,-406,-205,-1006,133,167,727,-806,-2534,-784,204,691,-649,-3808,645,417,501,471,1149,25588
-196,-79,-3,41,20,47,-201,-23,-84,41,67,162,-47,201,95,-304,61,3,273,-145,-903,-90,144,178,77,-1723,128,180,227,163,-98,25589
281,42,-88,92,123,121,348,439,-195,162,318,337,-441,367,115,93,-15,-95,-77,204,104,267,71,-153,387,-345,-171,-4,-18,-81,-574,25590
243,41,-82,63,92,87,321,287,-50,169,179,180,-454,252,140,105,-1,-67,-69,191,136,253,72,-126,333,-254,-130,11,-23,-66,-434,25591
285,49,-93,56,91,93,358,236,-167,99,160,193,30,245,139,133,-39,-97,-144,205,281,266,26,-193,311,-39,-185,-65,-89,-122,-494,25592
216,45,-76,56,83,82,277,231,-52,153,169,92,89,198,46,84,-26,-72,-135,144,197,202,23,-149,230,-137,-143,-50,-81,-109,-335,25593
172,38,-80,46,62,53,231,168,44,160,116,113,128,253,127,88,24,-17,-50,151,159,205,73,-71,229,-194,-76,17,-17,-55,-231,25594
-107,-10,-23,3,-19,-23,-87,-50,-1,89,-76,40,-2,-61,83,-111,73,71,121,-39,-343,-3,118,113,3,-835,116,109,96,58,265,25595
-794,-178,88,-84,-189,-187,-853,-383,119,-166,-538,-244,-200,-421,-150,-658,164,220,527,-545,-1693,-507,190,565,-520,-2647,546,338,371,344,1215,25596
-1006,-248,102,-107,-248,-230,-1089,-609,167,-160,-697,-431,-77,-282,-186,-886,151,209,642,-732,-2202,-692,185,669,-660,-3380,638,389,443,410,1328,25597
-964,-241,95,-80,-215,-196,-1061,-600,204,-133,-430,-279,70,-82,-58,-885,169,186,700,-697,-2241,-667,230,681,-582,-3517,643,413,488,444,1209,25598
-173,-54,-12,45,8,18,-199,-118,38,9,9,158,-92,133,132,-278,69,-12,300,-113,-812,-58,149,205,75,-1668,156,186,223,174,-53,25599
320,54,-107,89,117,114,313,324,53,5,341,328,-22,261,139,117,-48,-135,-91,236,219,297,36,-184,400,-238,-219,-44,-62,-103,-675,25600
274,56,-88,79,102,97,259,325,61,69,347,318,-106,224,138,125,-18,-74,-84,229,218,264,43,-129,331,-190,-141,-24,-38,-70,-451,25601
183,39,-72,59,70,69,197,177,-34,58,195,267,-203,169,136,91,7,-36,-68,193,126,208,48,-82,254,-285,-85,-4,-9,-34,-272,25602
174,24,-77,35,50,55,222,70,44,-70,152,203,-117,156,75,61,-19,-71,-126,171,134,177,22,-132,215,-241,-128,-50,-67,-78,-340,25603
126,26,-51,43,59,66,201,-98,64,-66,-20,81,88,156,21,24,-8,-39,-84,124,53,137,30,-94,155,-346,-96,-32,-47,-54,-218,25604
-82,-24,-48,5,0,5,-12,-208,0,-131,-33,-102,144,32,-9,-149,-22,-32,-16,-60,-328,-46,1,-9,-37,-808,-10,-8,-22,-22,52,25605
-929,-232,88,-124,-239,-196,-974,-746,145,-195,-890,-494,246,-137,-210,-812,95,168,494,-694,-1958,-694,108,554,-696,-2994,550,289,305,318,1342,25606
-1143,-289,122,-117,-278,-238,-1214,-659,208,69,-914,-471,263,-164,-115,-961,228,272,833,-780,-2486,-774,267,841,-715,-3830,787,502,577,546,1548,25607
-591,-144,57,-12,-104,-91,-601,-279,66,111,-457,-176,7,67,46,-539,206,180,612,-354,-1548,-325,266,559,-217,-2694,498,394,458,411,695,25608
50,11,-30,77,60,67,97,163,-69,68,232,103,17,372,113,-88,56,-37,125,65,-352,110,120,56,228,-1101,21,95,127,81,-322,25609
247,39,-70,77,101,110,332,174,31,77,499,237,-112,211,131,55,-48,-124,-147,180,130,221,22,-187,303,-386,-203,-71,-83,-108,-528,25610
260,43,-82,71,92,106,362,279,101,44,380,246,-432,209,124,113,-18,-86,-138,211,239,249,37,-168,311,-207,-183,-52,-74,-98,-482,25611
284,51,-84,65,89,91,364,300,9,44,323,288,-272,199,122,139,-30,-84,-142,226,315,261,25,-162,296,-86,-177,-53,-84,-106,-475,25612
222,42,-65,45,75,73,291,12,-152,160,-66,127,-145,42,129,92,-29,-81,-124,175,229,206,-2,-136,213,-183,-153,-49,-86,-104,-291,25613
156,40,-54,47,56,54,216,192,-177,97,12,143,29,88,94,63,23,-31,-68,145,132,175,50,-59,186,-297,-76,-11,-37,-52,-97,25614
177,42,-74,52,55,43,261,167,-115,0,231,192,-70,277,95,94,13,-33,-95,171,200,203,29,-86,208,-198,-95,-25,-40,-64,-229,25615
437,112,-103,98,132,114,551,343,-23,-1,438,300,-119,228,147,277,-61,-121,-263,349,700,373,-48,-272,385,486,-281,-129,-162,-181,-657,25616
526,144,-106,104,148,132,632,499,-57,41,435,166,-77,-35,105,349,-90,-148,-347,403,914,423,-82,-350,404,813,-340,-186,-233,-237,-704,25617
561,132,-123,89,139,124,666,253,-117,99,426,251,24,134,118,402,-89,-146,-379,428,1046,455,-91,-376,420,1035,-364,-209,-268,-255,-749,25618
239,52,-77,23,52,36,325,192,-126,59,164,121,-43,305,39,183,-34,-66,-211,204,498,219,-45,-182,165,348,-179,-113,-154,-139,-265,25619
41,22,-36,21,2,-4,117,-8,-50,91,52,18,150,-123,34,25,6,-7,-70,61,94,81,-18,-40,34,-177,-43,-29,-56,-45,-7,25620
71,34,-24,27,17,16,176,-61,-85,2,164,25,144,-138,15,54,13,-13,-59,95,126,94,-7,-39,76,-133,-38,-15,-42,-26,-59,25621
16,-3,-36,-2,-11,-8,131,0,-47,-32,112,43,-143,-36,5,0,-6,-29,-42,51,36,56,-17,-38,38,-257,-41,-18,-44,-26,-60,25622
21,-18,-40,0,-14,-4,112,111,-84,-90,-50,39,-74,126,4,-27,-27,-47,-63,34,34,39,-36,-66,27,-258,-71,-47,-65,-51,-48,25623
40,-21,-23,-16,-5,20,65,182,16,-106,48,-8,8,177,-32,-34,-55,-72,-101,25,22,24,-77,-92,17,-254,-93,-84,-85,-73,-102,25624
120,16,-19,12,38,65,129,205,-17,2,-10,30,2,151,56,40,-49,-65,-99,91,146,90,-62,-107,87,-92,-108,-82,-83,-74,-209,25625
-33,-13,-4,-10,-6,27,-24,-1,-12,9,-165,-28,80,26,-62,-69,-19,-22,-7,-20,-113,-14,-16,-11,-39,-418,-17,-27,-33,-30,59,25626
-248,-65,12,-43,-62,-49,-246,-182,-1,-82,-171,22,-109,4,-31,-240,19,43,138,-166,-516,-162,13,138,-174,-974,136,52,72,71,338,25627
-235,-59,-11,-33,-72,-65,-210,-272,14,-80,-8,-34,-65,169,31,-208,43,53,168,-139,-498,-122,29,156,-124,-997,149,86,103,106,312,25628
-12,2,-41,24,-18,-4,47,93,-79,-85,62,-50,-83,108,38,-5,64,38,104,58,-81,65,70,70,94,-494,52,75,68,69,26,25629
134,37,-38,33,23,34,193,95,-60,-96,-63,-14,-133,75,31,102,37,8,-12,163,208,167,28,-32,188,-100,-39,11,10,11,-125,25630
122,21,-28,24,28,42,157,251,-129,-51,51,65,70,169,-69,82,1,-17,-58,122,181,127,-10,-55,133,-113,-55,-34,-26,-32,-133,25631
84,8,-33,5,14,35,124,186,-65,80,236,44,-140,117,16,29,-31,-44,-93,68,108,65,-33,-85,66,-183,-71,-56,-60,-58,-102,25632
90,-2,-40,-2,12,14,124,170,-35,48,96,-81,216,118,112,3,-63,-84,-157,49,120,46,-78,-143,49,-138,-121,-99,-110,-107,-201,25633
132,15,-40,13,19,27,162,105,-11,16,106,51,228,25,63,49,-43,-61,-138,92,211,91,-49,-135,91,-25,-117,-84,-90,-90,-196,25634
-77,-37,-26,-26,-33,-22,-55,-145,-68,-139,-123,-3,1,-7,-42,-82,2,-2,-11,-38,-145,-42,-4,8,-71,-492,17,-3,-8,-1,172,25635
-680,-171,70,-94,-179,-159,-714,-363,56,-124,-563,-375,-132,-336,-118,-529,127,195,392,-440,-1303,-460,118,449,-491,-2065,457,252,283,287,1030,25636
-856,-231,85,-116,-215,-192,-926,-460,115,-70,-799,-437,-195,-505,-218,-709,125,202,504,-586,-1747,-605,114,562,-596,-2712,532,313,374,357,1132,25637
-764,-207,93,-84,-173,-142,-832,-499,-36,22,-648,-194,37,-423,-198,-655,130,174,510,-530,-1678,-517,136,527,-479,-2675,488,310,370,348,929,25638
-229,-90,-10,-6,-43,-23,-237,106,-46,89,-56,62,-10,-5,-38,-272,31,23,182,-150,-714,-126,63,154,-60,-1428,132,101,165,141,95,25639
169,16,-39,60,66,64,217,272,-54,134,311,219,24,175,144,33,-24,-67,-72,116,37,148,-9,-97,196,-399,-110,-32,-13,-37,-385,25640
218,45,-50,70,80,67,309,308,-125,97,336,226,-38,335,63,86,-19,-81,-114,156,180,186,-2,-135,218,-172,-147,-52,-58,-83,-368,25641
173,40,-33,64,69,66,252,170,-6,111,191,97,-198,95,18,75,2,-32,-95,133,122,154,12,-90,168,-223,-98,-45,-36,-51,-244,25642
182,41,-47,57,78,71,230,311,39,71,44,52,-163,41,-15,76,-19,-43,-105,130,147,145,-19,-104,166,-168,-106,-50,-46,-56,-276,25643
266,52,-60,48,84,78,304,280,22,-55,199,161,-137,81,7,145,-52,-92,-162,189,336,201,-47,-161,226,118,-174,-92,-95,-112,-471,25644
-116,-59,-13,-33,-40,-27,-116,-176,110,-10,-42,55,-60,12,-90,-111,25,27,55,-60,-296,-57,15,88,-66,-716,70,45,43,47,226,25645
-739,-196,78,-113,-206,-182,-804,-437,120,18,-558,-247,17,-195,-179,-597,121,178,440,-504,-1518,-510,88,505,-524,-2377,477,267,308,308,1101,25646
-948,-229,95,-109,-246,-216,-1009,-657,140,34,-815,-413,61,-222,-200,-790,168,220,608,-651,-2010,-646,148,661,-620,-3112,606,365,439,423,1262,25647
-638,-160,38,-52,-150,-138,-667,-355,210,88,-591,-128,75,-205,-135,-580,131,128,463,-437,-1499,-424,148,462,-340,-2532,405,275,338,309,676,25648
-47,-21,-21,47,11,24,-21,75,188,241,40,89,115,11,-12,-138,56,13,120,-10,-416,16,92,96,110,-1105,48,94,133,100,-59,25649
241,38,-64,69,78,96,284,96,-15,112,199,122,121,210,43,93,-6,-68,-104,177,206,213,30,-122,294,-268,-153,-31,-31,-58,-471,25650
215,44,-54,62,76,90,247,231,-67,132,230,14,-148,196,45,71,-29,-75,-120,156,210,181,-3,-123,231,-232,-145,-42,-61,-85,-404,25651
211,54,-35,60,79,101,245,169,-39,214,102,65,-406,58,73,83,-17,-59,-122,156,228,173,-14,-119,212,-184,-131,-50,-69,-74,-287,25652
188,33,-36,34,56,77,210,256,-98,-13,-15,157,-273,169,47,100,5,-35,-119,152,230,174,6,-109,194,-159,-119,-44,-55,-60,-238,25653
162,19,-47,25,35,49,199,270,-100,-139,78,125,-268,186,17,108,17,-26,-121,161,250,170,7,-102,185,-119,-104,-44,-51,-62,-325,25654
134,17,-50,17,23,41,193,153,-93,-82,122,57,-78,160,-16,85,-5,-35,-115,145,231,153,-10,-97,150,-128,-92,-37,-65,-57,-252,25655
89,8,-40,6,15,46,112,78,-86,93,82,30,150,104,-17,25,-20,-28,-76,88,122,93,-22,-67,98,-271,-69,-30,-54,-53,-162,25656
110,13,-40,7,30,62,113,69,8,5,-52,138,164,170,-23,32,-24,-40,-94,86,137,94,-12,-85,91,-230,-96,-52,-55,-60,-199,25657
158,26,-54,9,38,56,177,130,-39,-83,-27,61,-120,73,-51,86,-24,-33,-147,136,237,148,-19,-118,143,-66,-111,-69,-70,-71,-256,25658
125,15,-55,2,25,26,148,160,-25,20,-3,-9,70,-68,13,88,-4,-21,-127,134,209,131,-8,-88,127,-96,-88,-50,-62,-54,-190,25659
51,2,-37,-7,-1,10,90,-48,-59,79,-7,-56,15,25,-4,43,11,3,-61,92,78,89,17,-25,76,-264,-28,-21,-9,-8,-35,25660
105,15,-42,14,13,28,171,37,-71,63,-220,-32,45,86,20,75,-14,-26,-95,112,161,119,-19,-67,111,-129,-82,-49,-46,-43,-153,25661
144,27,-41,27,36,51,194,79,30,-87,-73,51,201,176,82,66,-58,-83,-155,112,227,111,-64,-134,110,-23,-145,-93,-95,-104,-271,25662
161,44,-19,30,59,81,166,-2,-41,-67,142,53,1,50,-4,57,-64,-82,-146,87,207,101,-67,-142,90,-20,-148,-95,-103,-109,-245,25663
96,5,-27,-19,18,47,74,-51,-82,-63,16,2,0,-34,-116,41,-25,-41,-122,59,118,75,-36,-91,60,-141,-102,-65,-66,-73,-111,25664
225,48,-36,15,47,57,235,256,-69,-23,116,80,10,163,2,181,5,-22,-158,203,393,215,-5,-108,210,207,-122,-56,-58,-59,-228,25665
485,106,-97,52,108,92,558,295,-169,-32,435,219,-25,172,129,391,-49,-104,-337,411,948,413,-64,-311,411,973,-305,-170,-184,-174,-646,25666
540,119,-119,40,113,85,615,324,-22,28,380,317,-50,88,143,453,-55,-96,-398,442,1108,453,-82,-360,415,1223,-337,-200,-227,-210,-627,25667
423,97,-84,26,74,64,488,308,17,79,244,156,-16,170,113,390,-28,-54,-322,370,941,378,-51,-278,311,1041,-246,-160,-187,-176,-465,25668
130,20,-30,-32,9,20,141,85,18,93,-65,-25,-245,-43,-69,125,-58,-53,-213,115,389,116,-92,-148,33,344,-117,-119,-142,-114,-157,25669
-1,-17,16,-40,3,25,-49,37,-26,-10,-116,-103,121,-105,-49,-26,-64,-62,-122,-14,73,-27,-98,-82,-84,-99,-65,-85,-100,-68,-34,25670
26,-3,41,-14,28,50,-35,-34,-27,52,-64,-4,286,-172,13,-26,-49,-54,-115,-14,59,-19,-80,-75,-66,-138,-56,-77,-82,-61,-19,25671
58,9,-1,-12,19,28,18,80,-4,-68,4,-16,11,-103,10,30,-16,-30,-87,37,125,34,-41,-67,3,-63,-56,-50,-51,-40,-87,25672
66,10,-21,1,-7,9,59,119,28,-80,133,60,-81,28,52,66,6,-7,-76,67,182,75,-20,-56,39,1,-39,-31,-30,-10,0,25673
63,20,-9,0,-4,11,84,-18,-31,-62,-31,116,-27,72,-25,77,-12,-20,-83,71,189,84,-47,-75,36,33,-54,-39,-44,-21,-32,25674
182,49,-16,16,47,55,203,120,1,111,-3,72,429,48,-61,151,-15,-56,-140,155,397,164,-57,-149,120,300,-127,-77,-85,-69,-276,25675
524,111,-83,45,119,127,580,231,-213,163,437,212,522,281,50,409,-104,-167,-402,393,1091,409,-123,-432,365,1247,-383,-240,-269,-242,-818,25676
607,141,-80,63,137,139,665,399,-237,211,674,295,214,272,145,507,-93,-154,-439,458,1286,470,-126,-461,416,1570,-403,-253,-289,-269,-820,25677
551,151,-54,57,119,120,616,512,-161,135,396,251,122,266,147,488,-80,-116,-422,436,1241,436,-124,-429,362,1559,-359,-224,-269,-249,-681,25678
206,72,-22,0,22,24,256,59,-72,-60,175,73,210,-79,36,224,-29,-40,-260,190,643,175,-90,-221,82,788,-151,-128,-168,-133,-135,25679
-18,0,12,-35,-34,-23,2,-136,-81,-70,-14,-54,-117,-53,-2,62,34,32,-73,46,192,14,-26,-38,-73,159,18,-29,-32,-4,153,25680
-33,-10,5,-44,-28,-16,-38,-184,-98,-8,-150,-66,-59,-148,-19,38,16,21,-41,18,124,-1,-38,-33,-70,51,14,-14,-23,12,104,25681
6,-8,18,-25,-10,-1,-23,-111,-77,8,-240,-138,70,-60,-12,37,6,6,-30,10,121,9,-37,-28,-41,48,7,-5,-16,23,99,25682
6,7,17,-16,-14,-6,-30,-120,-40,64,-16,-183,0,-19,11,40,13,21,-22,9,100,11,-30,-16,-38,-1,26,7,4,25,75,25683
15,14,-3,-4,-17,-25,-3,28,-74,92,-1,50,-81,-41,-5,69,42,37,-17,47,129,34,-3,-21,-10,17,32,14,12,41,48,25684
233,54,-30,19,26,21,223,287,-93,75,171,228,37,254,25,224,4,-37,-142,199,554,199,-24,-175,162,560,-126,-60,-83,-60,-316,25685
604,139,-72,79,142,119,632,612,-23,99,595,363,-8,286,94,496,-69,-141,-391,459,1284,472,-102,-441,421,1549,-386,-212,-250,-239,-855,25686
706,178,-70,86,171,153,766,551,-65,-51,512,209,118,119,109,580,-143,-202,-514,510,1547,518,-164,-572,452,1978,-482,-296,-365,-326,-970,25687
471,125,-43,40,101,94,520,158,-11,-120,409,220,0,0,63,401,-149,-165,-427,330,1160,319,-188,-456,233,1537,-360,-254,-317,-264,-561,25688
91,35,-13,-15,-9,-19,117,-129,42,13,95,128,-282,-95,-28,150,-41,-28,-162,98,471,81,-99,-166,-25,650,-77,-86,-126,-70,56,25689
-22,15,13,-20,-34,-40,-4,-48,-146,5,-20,-69,-174,216,33,92,46,48,-6,46,213,47,-8,-6,-52,278,54,21,6,41,149,25690
-5,4,12,-33,-34,-29,0,-182,-87,-64,-164,-11,82,80,22,74,25,21,-37,47,207,43,-23,-39,-41,265,13,-7,-26,8,86,25691
-70,-16,18,-36,-39,-35,-88,-135,-9,-136,-100,-60,154,-85,-30,16,40,30,42,-6,43,-3,-10,9,-84,46,61,30,11,47,130,25692
-17,-2,26,-13,-10,13,-48,-39,118,-10,60,24,339,-231,-28,41,26,5,39,16,85,26,-17,-9,-48,101,34,19,5,35,29,25693
39,9,27,-10,3,32,7,-237,148,-19,-14,41,190,-139,18,77,16,2,6,64,172,61,-14,-43,-1,214,-2,-9,-7,18,-1,25694
75,19,4,-3,-11,2,49,6,50,-119,28,37,-66,-95,16,107,3,-12,-41,87,251,100,-20,-71,42,341,-29,-29,-40,-3,-63,25695
104,25,7,-4,4,10,75,4,39,-6,-57,38,54,-41,61,109,-38,-60,-104,82,313,93,-60,-135,38,428,-87,-86,-88,-55,-141,25696
140,26,-8,-2,9,14,125,29,-73,-35,55,54,134,20,41,125,-60,-85,-139,96,372,110,-78,-187,35,532,-133,-120,-132,-88,-219,25697
172,54,0,19,25,11,163,107,30,-20,263,11,-48,-35,115,164,-39,-61,-122,133,439,138,-63,-163,66,628,-118,-89,-110,-66,-229,25698
66,34,24,1,-2,-3,48,-167,180,-58,89,-19,96,-82,41,94,-10,-15,-21,55,254,65,-35,-66,-8,365,-22,-25,-41,-17,-53,25699
-5,7,33,-20,-3,-1,-58,-130,115,-49,-128,-106,-29,-78,-50,23,-16,-10,-6,-12,101,-3,-30,-31,-78,136,18,-14,-15,21,77,25700
-27,-12,17,-22,-17,-12,-90,-116,98,24,-218,4,-17,-40,-21,13,17,20,25,-23,65,-2,-14,0,-78,54,47,15,16,38,99,25701
14,13,19,-4,-5,4,-7,-131,33,-20,-63,108,185,149,50,78,33,34,39,34,187,54,1,12,-11,157,36,35,28,41,12,25702
79,35,-2,8,15,6,91,-58,60,45,53,72,183,68,59,135,8,-2,-8,87,340,101,-15,-60,39,347,-21,-7,-12,6,-108,25703
104,33,-12,9,25,13,114,-17,-7,118,106,63,-11,-31,99,138,13,-3,-39,98,402,117,-14,-84,39,412,-40,-21,-31,-5,-52,25704
160,48,-12,13,46,35,175,-19,12,8,154,12,-141,-168,90,170,-12,-29,-97,109,502,138,-19,-140,74,561,-101,-55,-71,-50,-211,25705
627,157,-64,76,170,162,674,354,-128,83,571,185,-210,216,187,530,-77,-138,-359,456,1369,474,-79,-423,434,1736,-373,-205,-235,-212,-901,25706
826,203,-79,94,211,209,862,681,-101,8,848,114,-142,341,116,687,-137,-210,-549,578,1782,591,-151,-596,518,2380,-530,-314,-384,-357,-1122,25707
684,168,-50,59,171,166,663,578,-118,121,559,85,75,127,88,568,-154,-196,-537,468,1548,458,-174,-557,349,2175,-490,-319,-388,-359,-886,25708
163,35,16,-29,16,16,82,47,13,30,139,-28,115,-73,-6,180,-73,-69,-215,101,596,89,-107,-217,-45,968,-148,-148,-186,-151,-121,25709
-97,-15,56,-40,-46,-49,-167,-101,82,20,150,47,-149,-370,-10,15,28,45,49,-40,58,-53,-5,41,-165,234,93,7,7,33,245,25710
-42,12,34,-8,-27,-41,-54,-221,56,-41,227,48,-40,-203,26,60,35,35,34,23,115,2,-4,16,-86,299,54,0,15,44,167,25711
-37,8,27,-7,-22,-45,-25,-150,41,-173,-2,-14,216,-106,10,33,11,8,30,7,84,-14,-25,-8,-83,268,26,-8,4,24,109,25712
-20,23,40,0,-8,-24,11,-189,-32,-90,70,-48,5,-109,-99,33,16,3,61,19,60,-13,-21,12,-64,244,28,3,19,26,30,25713
-40,3,28,-11,-11,-27,-25,-126,-44,-44,276,-131,-66,-128,-124,10,-14,-10,32,-10,12,-32,-36,-10,-83,183,18,-28,-7,9,73,25714
133,37,16,19,31,31,145,-105,-16,72,282,12,206,43,16,158,-3,-20,-29,132,323,122,-25,-90,83,588,-63,-52,-34,-13,-187,25715
449,113,-36,49,107,104,508,226,-207,60,271,183,239,121,93,417,-49,-104,-227,358,956,358,-88,-301,316,1458,-272,-157,-166,-147,-620,25716
604,164,-54,75,152,140,702,269,-185,-104,341,263,114,85,111,554,-70,-142,-321,459,1307,461,-110,-406,402,1952,-355,-216,-245,-226,-828,25717
611,149,-74,60,134,125,678,213,-84,-140,306,115,-21,109,140,561,-91,-133,-375,453,1383,441,-126,-441,362,2084,-383,-252,-292,-259,-793,25718
174,47,-11,-14,19,17,184,-10,-31,-210,98,-90,-148,139,11,240,-24,-5,-145,131,601,118,-66,-162,8,1069,-110,-105,-140,-96,-50,25719
-112,-12,30,-46,-50,-47,-142,-39,4,-159,-62,-120,9,-117,-105,7,31,52,69,-78,74,-75,-2,24,-169,307,70,18,3,40,269,25720
-106,-15,33,-38,-46,-52,-166,-166,69,-94,-44,-142,72,-199,-55,-27,3,27,68,-102,36,-97,-22,1,-175,201,52,-6,-8,39,227,25721
-72,-8,10,-35,-41,-54,-105,16,94,-95,-4,-88,-25,-57,-104,0,0,21,54,-75,117,-46,-25,-22,-131,250,27,1,-19,33,141,25722
-59,-15,14,-34,-41,-41,-72,11,34,-3,-103,-48,51,-64,-44,28,23,29,47,-57,178,-32,-12,-31,-107,285,27,11,-9,31,155,25723
-101,-28,44,-28,-33,-26,-115,-105,9,-1,-173,-109,-8,-96,44,-29,18,22,94,-117,70,-83,0,-9,-153,101,54,13,8,34,221,25724
85,36,35,24,42,37,72,43,-27,-36,63,-30,-151,-89,128,84,-25,-28,-21,3,335,28,-52,-125,-23,452,-51,-59,-51,-38,-121,25725
495,134,-36,79,152,141,540,267,15,-17,185,102,-72,180,116,400,-100,-129,-286,303,1119,323,-109,-411,299,1546,-343,-200,-232,-223,-737,25726
639,156,-48,85,172,156,698,313,-100,42,384,230,30,230,91,529,-133,-162,-390,413,1450,428,-132,-513,371,2052,-439,-265,-330,-307,-852,25727
459,115,-22,45,117,112,487,340,-153,22,316,145,195,8,40,404,-97,-92,-292,298,1123,289,-110,-384,209,1690,-307,-204,-260,-233,-466,25728
49,21,24,-14,0,1,62,44,-103,-138,-62,-116,182,-107,-75,106,-29,13,-43,28,342,-4,-54,-108,-79,689,-33,-57,-90,-61,164,25729
-112,-2,44,-22,-39,-42,-81,-87,33,72,58,-159,301,-152,-62,-2,2,55,86,-66,-12,-93,-24,7,-147,244,78,13,12,38,278,25730
-80,5,34,-10,-37,-48,-55,-60,14,3,40,-80,132,-152,-49,10,3,50,80,-40,-4,-68,-18,-12,-103,265,61,1,15,38,193,25731
-90,-3,44,-29,-38,-47,-96,-264,60,44,-104,-108,548,19,-71,-23,-18,24,44,-51,-45,-88,-28,-38,-129,231,42,-31,-6,3,152,25732
-121,-14,61,-36,-28,-34,-159,-178,95,-28,-109,-88,224,139,-57,-50,6,51,97,-67,-158,-102,-5,14,-138,97,93,5,27,36,168,25733
-93,-6,53,-16,-13,-11,-133,-70,86,-94,0,-28,116,-88,-35,-42,4,45,130,-64,-175,-93,-3,27,-120,69,89,41,44,53,175,25734
-153,-33,68,-20,-26,-7,-213,-100,148,-31,64,-104,217,-228,-22,-107,2,43,146,-124,-318,-149,-1,54,-164,-124,102,47,55,61,274,25735
-170,-35,73,-21,-32,-18,-242,-119,134,-172,-156,-101,-26,-129,-62,-121,28,66,160,-134,-381,-162,19,84,-176,-244,137,58,84,98,337,25736
-258,-51,79,-31,-53,-46,-314,-308,83,-93,-184,-109,32,-85,-86,-158,72,106,241,-163,-517,-205,52,165,-206,-479,220,128,153,162,477,25737
-272,-72,58,-42,-61,-50,-317,-245,7,103,-173,-124,63,-217,-71,-176,60,81,243,-194,-533,-216,51,151,-215,-537,205,118,143,151,433,25738
-110,-25,42,-3,-14,1,-148,-11,-19,50,-285,-70,40,-2,-17,-85,25,49,134,-107,-249,-110,12,36,-112,-195,94,47,80,87,207,25739
-5,-1,32,12,21,20,-39,46,-39,-62,19,-91,82,8,-46,-11,-7,6,51,-57,-25,-40,-20,-51,-48,62,4,7,5,13,16,25740
-87,-15,38,-4,2,-7,-111,-118,21,-96,157,-132,-91,18,-49,-58,9,25,97,-118,-119,-92,5,-2,-114,-100,65,39,37,43,115,25741
-153,-38,40,-19,-32,-31,-193,-116,10,11,48,-79,9,-245,-109,-111,30,56,118,-168,-229,-144,24,32,-171,-272,105,60,56,71,251,25742
-226,-55,29,-22,-61,-61,-249,-58,27,68,10,11,-29,-296,-78,-138,61,100,172,-199,-328,-165,55,108,-195,-464,171,99,106,123,348,25743
-163,-20,28,16,-27,-35,-165,-58,99,115,103,-42,-135,-149,28,-117,50,88,156,-150,-225,-115,49,87,-138,-359,137,93,99,106,244,25744
-1,11,0,28,24,8,6,42,-38,112,157,25,-160,-144,51,-9,3,27,69,-38,64,-20,-5,-37,-12,23,10,18,20,18,-55,25745
-80,-9,22,7,3,2,-84,-5,-27,0,-105,42,28,-225,4,-64,0,32,96,-106,-87,-94,5,4,-80,-146,42,29,13,22,111,25746
-108,-17,34,8,-18,-14,-117,-169,-72,31,-54,29,-65,-107,-27,-83,28,44,120,-101,-186,-114,35,53,-83,-256,73,52,43,46,123,25747
-53,-4,14,15,-2,-2,-39,-42,31,0,-2,14,-198,4,-68,-41,21,24,74,-61,-113,-70,2,25,-34,-136,44,28,25,24,34,25748
-81,-12,24,6,-11,-9,-49,-170,71,-81,10,-14,17,35,12,-60,36,47,102,-76,-186,-85,30,49,-40,-208,68,39,38,28,90,25749
-91,-20,-7,10,-27,-33,-42,-171,63,-31,-168,16,134,89,-11,-47,32,63,107,-49,-189,-75,38,55,-27,-196,71,45,53,43,149,25750
-109,-23,-11,-3,-27,-38,-68,-76,41,-51,-203,-37,-78,76,-136,-52,25,56,127,-41,-226,-74,48,61,-28,-208,71,59,61,52,117,25751
-84,-25,18,-5,-14,-13,-75,-53,51,47,-197,-68,-240,91,-44,-46,13,30,104,-29,-198,-59,32,54,-3,-160,56,49,48,41,94,25752
-51,-27,16,-29,-3,-5,-63,-203,-8,42,-137,-67,-223,-2,-1,-36,-21,-1,46,-10,-149,-48,0,2,8,-69,-4,-3,-1,-8,14,25753
-32,-17,27,-16,17,26,-69,20,71,86,-88,-45,100,6,25,-62,-50,-36,1,-36,-151,-68,-37,-38,-21,-54,-37,-46,-44,-37,-48,25754
-62,-19,15,-4,4,3,-83,37,132,40,-146,35,-309,-20,56,-85,-52,-35,22,-68,-208,-97,-37,-11,-59,-137,-15,-29,-26,-21,13,25755
-109,-20,28,13,-11,-7,-111,-20,181,18,-198,-18,-403,-182,64,-67,40,69,151,-55,-297,-89,54,136,-59,-271,119,71,89,88,227,25756
-142,-39,43,3,-8,-10,-197,-153,52,-25,-243,-54,-93,-34,8,-117,40,69,151,-109,-401,-127,58,156,-102,-439,127,86,99,93,268,25757
-129,-48,33,-19,-8,-15,-189,-106,118,-98,-38,-63,-48,-120,-43,-153,-12,11,82,-151,-402,-149,15,83,-127,-462,53,23,35,31,164,25758
-99,-26,24,-14,2,-10,-126,12,-17,70,50,-14,-198,-207,-28,-103,-9,14,94,-115,-300,-113,24,76,-92,-357,44,31,40,28,165,25759
-24,-2,-16,6,-2,-19,-6,142,-11,68,134,119,-8,10,-7,-31,-5,15,78,-42,-98,-30,19,46,-11,-110,16,23,25,10,-22,25760
39,22,-11,29,20,-2,73,257,-58,-12,215,68,49,159,-6,25,-7,14,36,5,71,29,14,24,14,82,-11,0,-4,4,-66,25761
10,14,-1,21,28,-6,34,61,-78,-8,190,61,-39,-25,0,4,-1,0,40,-30,49,12,22,17,-29,34,-10,-2,-6,-4,-20,25762
45,21,14,24,31,27,55,3,-52,57,55,102,-95,-37,32,33,2,6,13,-11,99,29,20,13,1,91,-20,-6,-12,-5,-54,25763
71,32,21,23,43,54,72,-111,-46,-34,21,-29,-20,17,-21,29,-33,-20,-47,-12,144,21,-33,-34,9,165,-70,-44,-59,-46,-125,25764
-95,-12,45,-1,-2,16,-112,-399,129,-53,-98,-113,165,-172,-59,-96,8,39,69,-118,-183,-103,15,90,-125,-252,56,28,20,23,223,25765
-77,-9,41,5,-3,11,-78,-128,98,-48,-1,-36,187,-142,19,-59,44,52,106,-74,-171,-65,54,103,-77,-254,68,50,59,47,150,25766
-96,-32,9,-29,-31,-22,-82,-50,-14,39,66,116,126,-107,-26,-69,25,46,68,-86,-196,-79,19,88,-80,-281,51,12,37,29,148,25767
-36,-14,-6,-6,-11,-17,-9,21,-39,-3,-55,73,134,131,18,-16,48,50,65,-18,-96,-8,50,85,-4,-165,36,27,42,26,89,25768
68,21,10,12,34,34,69,203,14,-149,-152,-5,42,115,133,28,-1,-5,17,36,49,31,14,10,44,50,-39,-14,-6,-27,-138,25769
62,11,-8,-8,29,17,51,36,204,-60,-366,-74,49,40,14,-3,-68,-57,-37,3,47,-17,-64,-44,8,89,-87,-70,-73,-84,-122,25770
22,-1,-14,-13,17,-3,25,-19,91,158,-144,-35,25,114,34,15,-20,-15,12,20,15,8,-22,16,22,71,-32,-17,-13,-25,-3,25771
11,16,-3,17,7,-10,27,57,88,182,53,182,-171,150,39,63,37,49,69,67,14,43,48,99,66,64,45,60,54,45,110,25772
-48,9,3,19,-17,-29,-35,163,72,89,68,172,96,9,28,7,40,73,107,9,-105,-11,63,135,25,-104,97,89,86,65,194,25773
-77,-1,6,7,-24,-39,-59,150,5,-28,-107,-20,-130,-25,42,-18,62,76,131,0,-174,-23,73,168,-3,-198,113,98,102,76,189,25774
-24,5,-2,0,2,-16,-19,129,-30,50,-313,5,-51,160,6,1,29,45,73,17,-100,-19,47,100,13,-110,39,46,62,25,57,25775
41,17,-2,17,21,-5,47,125,86,-111,75,-21,-41,143,-7,34,0,1,7,38,15,13,14,29,42,44,-35,-4,4,-26,-72,25776
162,47,-18,35,41,22,177,256,69,93,233,4,-423,104,158,136,1,-11,-51,143,294,130,14,-29,148,397,-91,-37,-32,-53,-198,25777
167,57,-17,36,45,24,184,212,33,53,102,50,-116,188,69,137,2,1,-38,136,323,132,18,-22,145,427,-72,-36,-28,-30,-139,25778
24,1,-6,1,0,-10,24,11,23,19,3,57,-50,46,-32,0,-43,-26,-55,-8,70,-9,-42,-3,-23,128,-54,-53,-53,-38,-27,25779
-47,-1,22,1,-3,-2,-55,-148,-25,-30,-127,60,92,-53,10,-42,-7,9,14,-56,-82,-53,-19,65,-82,-71,8,-1,5,14,63,25780
-27,8,29,2,3,27,-34,-40,-3,1,2,-42,87,-124,-13,-12,15,33,39,-40,-72,-31,15,87,-66,-62,26,28,27,28,113,25781
-21,-3,13,-15,1,9,-31,-62,-20,-18,-93,-123,-1,-102,-13,-20,-11,5,-13,-48,-60,-41,-13,49,-73,-39,-6,-3,-4,-1,54,25782
-47,-16,14,-25,-17,-15,-59,-14,5,-70,114,-55,34,39,-4,-63,-33,-9,-39,-88,-119,-78,-42,31,-118,-99,-12,-23,-23,-20,50,25783
-77,-15,5,-13,-31,-35,-79,47,49,-39,-23,-44,209,-32,10,-70,-9,11,17,-94,-181,-81,-9,83,-124,-188,29,16,14,25,-40,25784
16,11,1,11,7,-9,12,121,25,-39,21,-50,158,202,-70,20,29,32,36,4,-12,19,32,95,-21,-16,20,41,36,39,-84,25785
236,52,-36,37,58,39,249,153,-43,-72,274,13,103,369,-6,199,-14,-34,-124,173,430,178,-14,-62,153,586,-137,-58,-69,-69,-320,25786
263,63,-35,35,66,48,293,127,-24,-106,201,57,2,320,122,241,-9,-23,-111,220,528,206,-5,-72,195,741,-137,-51,-62,-73,-314,25787
203,70,-7,38,50,37,254,-12,-201,-193,25,61,-40,196,101,201,4,3,-96,180,445,163,-9,-30,145,641,-90,-38,-53,-52,-176,25788
14,33,4,14,-7,-10,61,-173,-134,-70,-130,63,128,-68,53,57,8,48,-58,36,102,-3,-5,55,-30,183,6,-3,-16,-11,128,25789
-111,-5,27,-13,-35,-27,-107,-228,-16,-44,-224,-160,28,-31,-71,-62,26,60,13,-68,-178,-108,8,135,-138,-190,81,42,40,37,242,25790
-108,-32,26,-26,-27,-10,-164,72,-37,70,-167,-134,-40,35,-1,-101,3,33,31,-100,-232,-128,-7,124,-136,-289,72,34,44,21,160,25791
-12,0,22,7,2,18,-63,194,2,31,66,-91,-382,-122,10,-19,14,30,6,-16,-79,-56,3,101,-41,-113,45,18,28,11,78,25792
10,-2,3,11,0,4,-10,95,19,-79,-80,-92,-153,-168,66,12,2,15,-41,18,35,-6,0,51,-12,14,5,-3,1,-18,51,25793
-11,-4,-7,4,-15,-17,-21,127,31,157,32,68,-48,-34,124,30,53,51,5,36,33,12,56,110,24,7,48,47,46,27,109,25794
57,18,-22,15,3,-9,63,244,-83,66,28,47,-109,-45,89,82,34,40,-32,80,165,62,37,65,82,186,12,25,21,5,-26,25795
255,56,-52,41,47,35,291,190,6,35,276,72,-109,349,117,219,-47,-52,-187,201,560,191,-29,-120,215,732,-168,-81,-101,-122,-408,25796
329,80,-55,42,66,49,374,184,94,51,296,147,-107,309,50,285,-61,-59,-266,254,726,253,-51,-177,257,1005,-216,-119,-158,-162,-449,25797
237,70,-33,19,45,28,280,122,-125,70,200,150,106,285,12,224,-45,-38,-221,187,574,176,-66,-122,167,842,-150,-90,-125,-135,-300,25798
54,24,12,-10,5,3,42,-40,-55,88,180,-14,109,-116,43,57,-41,-19,-122,18,199,15,-67,-12,-11,361,-38,-43,-73,-78,-89,25799
-117,-31,32,-40,-41,-38,-159,-207,76,-49,-61,-169,79,-158,42,-75,1,28,-23,-99,-166,-104,-11,120,-137,-111,79,17,10,21,218,25800
8,10,21,-9,0,5,8,35,58,-117,-213,77,-45,-27,61,51,33,42,-55,26,60,27,26,92,3,163,32,23,20,33,21,25801
-25,7,35,2,-2,11,-52,11,84,59,-93,33,-95,-37,16,17,38,56,-14,-4,-43,-23,27,133,-37,45,69,45,50,62,47,25802
-61,-4,34,-4,-6,9,-98,-26,50,-5,-133,-77,216,-127,48,-53,0,21,-24,-61,-143,-66,-13,113,-88,-77,48,18,19,42,30,25803
-62,-17,41,-17,-10,-4,-121,31,-121,21,-78,-33,229,-48,23,-68,-40,-20,-88,-81,-181,-101,-60,64,-135,-102,14,-16,-17,8,38,25804
284,59,-39,33,64,65,299,310,-218,72,81,280,198,231,42,230,-52,-88,-251,199,504,187,-54,-140,173,789,-189,-92,-104,-87,-548,25805
1323,317,-172,200,346,324,1433,1002,-361,116,822,615,-129,757,251,1061,-167,-271,-831,962,2503,961,-153,-777,939,3464,-794,-418,-473,-473,-1915,25806
1602,396,-216,205,405,369,1742,1239,-257,53,976,521,-221,664,329,1312,-241,-329,-1106,1165,3208,1143,-258,-1031,1051,4530,-1005,-571,-686,-673,-2125,25807
1423,358,-179,154,334,295,1536,889,-176,45,756,412,36,601,291,1207,-247,-293,-1065,1022,3038,989,-286,-970,838,4425,-919,-568,-692,-667,-1737,25808
493,124,-63,-25,66,34,459,215,-122,-117,224,-29,-55,103,59,506,-143,-85,-590,350,1422,286,-213,-421,78,2339,-362,-309,-403,-362,-340,25809
-263,-45,70,-112,-126,-145,-392,-221,5,-179,-257,-280,48,-128,-73,-77,15,104,-34,-158,-47,-222,-57,132,-420,315,156,3,-25,14,591,25810
-270,-45,86,-76,-106,-106,-404,-158,43,-194,-152,-148,80,-202,-79,-94,51,118,82,-157,-158,-207,-1,194,-340,76,203,70,67,91,526,25811
-248,-68,55,-78,-98,-96,-347,-88,-24,-187,-48,-127,-55,-421,-116,-103,24,86,61,-168,-188,-200,-26,137,-304,8,154,45,59,68,402,25812
-195,-61,29,-59,-79,-91,-225,-72,13,-18,-205,-192,-139,-220,-93,-84,12,59,27,-147,-136,-175,-36,82,-244,36,105,27,45,46,274,25813
-186,-60,29,-53,-71,-85,-194,-216,41,83,-202,-238,-91,-81,-89,-103,-1,41,-7,-156,-147,-178,-44,43,-230,9,79,6,20,18,203,25814
113,36,18,21,34,28,123,101,-62,19,243,17,-293,140,21,120,-23,-25,-118,64,365,50,-59,-123,26,653,-67,-60,-54,-56,-223,25815
957,221,-121,117,246,224,1033,545,-343,121,759,326,-232,423,177,750,-188,-256,-666,650,1979,654,-203,-736,652,2832,-651,-382,-430,-438,-1479,25816
1500,357,-186,178,364,335,1646,959,-188,137,1021,412,-10,646,302,1222,-285,-368,-1065,1066,3159,1060,-310,-1123,1022,4518,-1005,-605,-698,-689,-2156,25817
1721,439,-212,197,407,366,1912,1028,-199,80,1104,634,-30,921,291,1495,-260,-342,-1171,1290,3772,1261,-313,-1221,1176,5464,-1077,-645,-776,-750,-2205,25818
569,153,-52,-16,68,40,631,211,-145,-83,187,88,57,-104,75,649,-126,-76,-587,441,1750,395,-210,-537,225,2918,-382,-311,-430,-368,-385,25819
-413,-85,109,-142,-177,-171,-486,-267,187,-21,-653,-385,-158,-563,-88,-152,28,150,42,-275,-234,-335,-76,130,-482,263,255,43,31,92,824,25820
-317,-56,92,-97,-131,-117,-393,-241,144,-41,-442,-237,-74,-358,-41,-128,25,111,65,-222,-250,-268,-44,92,-344,202,204,59,77,119,589,25821
-245,-47,70,-76,-105,-96,-306,-213,7,-8,-272,-208,-59,-359,-1,-96,3,74,21,-178,-214,-223,-45,31,-277,243,153,34,49,92,387,25822
-155,-32,74,-48,-61,-56,-223,-82,42,-78,-292,-193,-1,-60,-18,-77,-50,-1,-45,-162,-153,-209,-89,-67,-246,337,47,-26,-20,15,188,25823
-152,-38,67,-46,-58,-60,-211,36,43,-94,-197,-171,114,-45,-105,-99,-69,-33,-55,-184,-193,-227,-102,-87,-272,285,30,-40,-35,-7,151,25824
123,20,4,-10,5,-5,115,122,37,-81,63,-49,58,91,20,136,-76,-75,-188,49,341,27,-104,-244,-32,968,-120,-104,-98,-65,-304,25825
1486,355,-205,192,362,325,1634,890,-270,73,1281,575,-190,821,355,1209,-265,-383,-1008,1068,2978,1047,-298,-1146,1003,4479,-986,-578,-621,-596,-2329,25826
2409,584,-311,285,594,549,2637,1538,-416,-5,1756,843,-290,988,469,1959,-451,-612,-1700,1709,4951,1689,-499,-1849,1552,7254,-1623,-979,-1109,-1081,-3408,25827
2137,526,-238,193,491,459,2326,1252,-323,3,1289,657,-422,643,358,1801,-450,-539,-1657,1484,4701,1441,-519,-1748,1195,7116,-1485,-958,-1135,-1072,-2685,25828
504,142,9,-60,42,29,511,146,-13,10,92,-83,166,-279,-58,565,-239,-142,-736,289,1740,220,-355,-713,-133,3291,-444,-438,-563,-471,-128,25829
-443,-68,153,-145,-179,-189,-519,-242,166,-50,-304,-325,185,-664,-126,-173,-6,137,19,-355,-176,-425,-144,30,-719,629,261,7,-12,66,979,25830
-423,-63,144,-96,-161,-158,-503,-315,254,-114,-280,-328,470,-443,-97,-172,56,170,146,-329,-303,-388,-69,105,-596,340,317,80,105,164,848,25831
-407,-69,134,-80,-137,-130,-506,-394,149,-166,-355,-374,341,-436,-115,-211,53,137,179,-324,-384,-377,-34,77,-536,163,274,82,113,153,666,25832
-330,-45,111,-61,-113,-109,-423,-173,139,-103,-235,-283,58,-407,-119,-168,40,91,156,-270,-293,-319,-25,28,-442,223,218,67,87,123,476,25833
-260,-32,71,-56,-107,-102,-322,-217,61,-6,-313,-228,66,-109,-45,-105,27,85,93,-206,-151,-244,-48,-19,-336,356,194,40,74,99,440,25834
-89,-9,47,-36,-59,-67,-125,-297,-30,-37,85,-120,89,-103,-50,35,34,60,32,-61,156,-87,-24,-100,-153,749,110,22,51,64,129,25835
269,81,-12,9,46,30,284,42,-180,-80,510,22,-34,-15,-21,336,-4,-29,-200,212,852,189,-63,-353,147,1665,-139,-101,-101,-85,-405,25836
820,209,-105,80,185,160,928,509,-258,-74,699,359,9,88,178,783,-104,-168,-557,623,1949,593,-172,-736,573,3178,-520,-315,-341,-334,-1217,25837
1090,280,-124,112,246,227,1213,765,-215,-130,718,440,-83,164,241,1001,-181,-239,-791,794,2532,747,-242,-949,705,4071,-716,-446,-513,-500,-1431,25838
155,54,26,-42,-17,-18,136,-12,139,-123,-207,-58,125,34,-58,273,-69,-25,-287,76,798,27,-147,-363,-84,1872,-135,-164,-212,-186,31,25839
-418,-73,133,-95,-140,-144,-509,-359,170,-19,-459,-316,61,-142,-144,-198,39,120,129,-330,-407,-385,-43,75,-462,218,269,71,93,109,712,25840
-307,-70,86,-86,-117,-123,-397,-225,129,-1,-220,-150,48,-144,-86,-139,23,63,69,-244,-285,-300,-76,-6,-315,338,171,27,71,85,433,25841
-223,-51,69,-59,-88,-99,-297,-217,156,-60,-208,-43,244,-232,-47,-87,14,54,32,-174,-178,-228,-66,-40,-221,470,135,13,65,73,322,25842
-197,-37,55,-50,-81,-101,-230,-216,121,-166,-312,-152,160,-163,-49,-38,47,80,82,-122,-139,-171,-16,-5,-170,499,168,56,110,119,295,25843
-183,-42,37,-51,-81,-106,-200,-171,139,-60,-214,-21,102,-17,-23,-9,61,92,142,-92,-111,-131,18,3,-139,541,164,76,118,123,271,25844
-217,-32,65,-44,-65,-84,-250,-123,44,4,-227,-129,-164,-196,-28,-92,18,53,187,-163,-234,-203,-28,-21,-215,379,148,43,81,91,273,25845
-103,-13,39,-33,-37,-55,-130,-194,-56,52,-394,-36,-13,-226,-19,-30,-17,2,157,-98,-53,-133,-61,-114,-154,602,43,-10,9,29,51,25846
-348,-73,64,-64,-108,-126,-406,-579,-50,0,-452,-162,206,-308,-7,-208,41,77,362,-265,-491,-301,6,55,-354,13,218,89,109,132,538,25847
-625,-140,100,-91,-184,-194,-720,-419,121,5,-279,-311,85,-590,-110,-403,105,178,658,-451,-1055,-486,63,288,-541,-797,447,224,265,291,882,25848
-304,-51,66,-19,-75,-102,-326,-204,144,225,-82,-137,228,-208,-200,-155,90,115,599,-203,-495,-210,61,121,-235,-141,267,156,208,205,358,25849
-110,-17,33,8,-32,-57,-99,-68,54,-2,141,91,236,-153,-34,-34,48,40,499,-89,-128,-88,28,-41,-115,322,98,63,93,94,120,25850
-114,-23,24,-11,-34,-59,-95,-96,73,-152,-61,10,-89,-340,-26,-50,15,20,538,-105,-112,-110,-1,-67,-139,347,70,37,59,63,114,25851
-159,-36,30,-31,-42,-52,-181,-129,18,-150,-166,-172,203,-116,-60,-105,2,22,610,-163,-202,-157,-13,-46,-200,204,97,42,57,68,169,25852
-172,-42,63,-35,-31,-34,-241,-283,42,-61,-265,-114,24,-23,-36,-126,8,33,677,-182,-274,-187,-6,-19,-218,107,110,53,66,86,244,25853
-164,-43,84,-33,-15,-13,-259,-181,18,-49,-162,-89,184,-89,-106,-138,-14,10,722,-208,-295,-198,-18,-52,-221,70,91,39,53,61,211,25854
-180,-47,94,-27,-18,-11,-277,-189,107,-75,-85,-227,579,-248,-87,-160,-11,10,766,-223,-352,-213,-24,-45,-241,-14,91,32,48,53,214,25855
-244,-61,75,-39,-39,-28,-336,-98,141,9,-270,-178,387,-195,-131,-198,28,42,858,-240,-465,-235,-1,31,-262,-182,156,83,99,100,339,25856
-571,-144,103,-96,-141,-120,-681,-359,80,-105,-361,-252,275,-342,-248,-441,91,133,1122,-474,-1087,-473,69,264,-475,-1044,382,213,246,234,836,25857
-884,-227,156,-129,-213,-181,-1028,-633,84,-94,-530,-388,113,-557,-182,-689,166,212,1404,-680,-1746,-684,136,504,-673,-1981,602,351,412,397,1255,25858
-315,-75,74,-5,-41,-26,-386,-108,-39,-62,-143,-80,10,-164,-45,-262,108,89,1169,-228,-752,-229,109,180,-152,-740,257,197,259,231,358,25859
130,18,-14,31,63,62,109,142,-188,-57,295,119,-47,12,9,63,-33,-70,833,56,123,57,-12,-207,150,473,-106,-46,-19,-52,-262,25860
-2,-28,8,-10,20,16,-66,-86,-178,-27,91,72,5,-53,18,-47,-50,-74,882,-60,-87,-70,-31,-158,8,237,-54,-46,-21,-55,-110,25861
-37,-21,24,-10,7,-6,-80,-9,-5,-37,51,69,29,69,45,-38,11,-19,981,-43,-132,-55,10,-81,11,206,26,9,44,5,55,25862
-188,-32,-1,-14,-53,-73,-192,-159,44,-1,-102,-78,-152,-7,-62,-97,89,65,1141,-100,-368,-118,81,76,-55,-111,174,114,145,109,370,25863
-199,-29,24,-1,-40,-52,-209,-92,39,-120,-38,-38,-257,-214,-92,-112,118,102,1147,-100,-410,-114,110,129,-37,-187,207,139,182,151,465,25864
-255,-48,47,-13,-45,-44,-287,-289,12,0,-108,-29,-88,-404,-84,-166,86,87,1130,-155,-515,-161,87,128,-99,-329,200,125,164,147,464,25865
-1192,-266,178,-144,-300,-286,-1319,-967,259,-13,-788,-428,231,-978,-307,-894,233,321,1734,-842,-2305,-840,228,766,-823,-2739,826,470,542,540,1854,25866
-1623,-370,232,-170,-392,-384,-1797,-1082,319,-33,-1161,-521,343,-666,-349,-1263,315,418,2047,-1156,-3272,-1133,313,1095,-1089,-4146,1133,659,795,785,2336,25867
-1456,-348,192,-135,-328,-314,-1597,-868,292,19,-891,-511,-52,-414,-297,-1184,293,350,1939,-1048,-3100,-1004,319,1001,-895,-4059,1021,632,775,743,1849,25868
-517,-137,68,10,-64,-52,-548,-74,39,6,-111,-110,-151,90,-71,-470,191,127,1410,-357,-1415,-287,241,440,-124,-1920,452,374,478,425,387,25869
134,18,-12,87,104,120,155,236,-44,44,219,204,-161,98,67,49,68,-21,921,97,-125,166,148,-17,307,-177,16,126,156,104,-388,25870
103,7,0,54,84,92,98,-44,-82,127,41,-4,-152,-53,22,-21,-12,-68,718,5,-135,69,57,-111,148,-127,-63,26,22,-13,-246,25871
26,3,6,42,55,53,6,-48,-49,182,-75,53,73,4,93,-83,-33,-86,608,-74,-229,-16,4,-117,27,-213,-67,-13,-11,-36,-137,25872
80,13,-33,33,45,48,66,12,-31,173,180,161,30,144,41,-24,-43,-99,507,-16,-69,26,-13,-157,70,-1,-102,-40,-42,-51,-239,25873
99,17,-36,33,45,33,103,98,-58,-119,9,103,165,74,-40,-6,-50,-101,461,4,26,45,-30,-168,61,133,-120,-47,-68,-70,-254,25874
-150,-27,10,-2,-23,-42,-152,-107,15,2,-139,-21,-172,33,-20,-179,-3,-18,572,-169,-413,-130,19,24,-133,-445,55,45,31,29,203,25875
-584,-126,72,-59,-134,-148,-644,-314,77,23,-251,-161,103,-258,-159,-501,111,133,830,-466,-1265,-438,124,365,-435,-1602,382,229,265,243,855,25876
-1099,-248,150,-116,-246,-247,-1228,-643,85,16,-568,-404,196,-448,-212,-925,192,246,1144,-848,-2333,-825,217,740,-810,-3094,717,434,498,469,1593,25877
-1315,-322,175,-126,-293,-273,-1485,-743,305,-110,-915,-538,161,-542,-237,-1142,219,279,1261,-1018,-2890,-989,251,889,-934,-3953,848,517,624,576,1800,25878
-403,-101,50,32,-39,-39,-465,-101,49,-86,-179,-122,-1,243,-75,-448,134,83,753,-313,-1284,-289,179,354,-151,-1900,307,256,357,281,278,25879
273,67,-68,114,124,116,311,408,-153,-27,269,323,104,472,70,94,13,-86,257,188,83,215,59,-136,344,-42,-157,-4,15,-61,-560,25880
170,34,-72,75,67,61,224,300,-36,106,193,198,85,205,62,50,15,-72,241,131,27,155,54,-97,249,-56,-119,-7,-3,-73,-323,25881
172,37,-75,51,64,33,251,190,77,47,284,163,16,392,44,110,38,-40,239,177,130,198,71,-60,279,127,-99,4,14,-41,-259,25882
119,27,-69,37,44,14,192,2,-48,88,339,178,-168,200,-2,91,37,-28,217,169,115,176,56,-27,243,130,-56,13,28,-17,-158,25883
109,24,-59,26,30,23,157,85,-2,119,192,34,-150,214,19,77,46,-3,211,157,93,171,58,0,235,136,-33,18,42,11,-154,25884
-452,-106,47,-55,-114,-94,-520,-234,195,-94,-252,-267,11,-100,-96,-386,96,114,446,-299,-999,-291,110,332,-262,-1278,310,175,203,188,844,25885
-2281,-558,307,-322,-590,-546,-2562,-1358,585,-140,-1714,-961,219,-1149,-453,-1850,338,510,1481,-1667,-4560,-1675,326,1530,-1644,-6092,1462,799,919,914,3421,25886
-2950,-710,402,-348,-716,-659,-3273,-1894,628,-29,-2194,-966,218,-1257,-603,-2426,506,679,2051,-2142,-6121,-2116,524,2099,-1978,-8433,1949,1157,1374,1335,4031,25887
-2541,-619,319,-240,-565,-521,-2798,-1586,545,-132,-1570,-752,323,-943,-482,-2161,510,580,1914,-1821,-5600,-1761,586,1888,-1516,-8004,1703,1103,1343,1274,3165,25888
-773,-218,46,54,-89,-70,-827,-154,137,90,-281,39,58,32,80,-833,263,138,872,-550,-2412,-448,381,750,-104,-3905,561,519,694,596,383,25889
472,59,-145,177,219,232,539,678,-164,229,354,350,-97,448,189,108,-36,-215,-100,279,66,384,74,-207,669,-513,-317,-42,11,-80,-1128,25890
429,59,-120,136,187,199,513,521,-211,46,304,317,-193,553,172,121,-54,-176,-218,239,191,335,42,-215,527,-271,-301,-69,-72,-139,-825,25891
356,63,-102,103,147,149,441,347,-121,67,327,246,-133,560,125,112,-38,-128,-231,210,200,296,34,-154,422,-222,-229,-50,-70,-118,-604,25892
285,64,-64,96,132,125,335,308,-126,53,431,240,-83,331,47,71,-31,-84,-219,151,106,238,16,-88,312,-290,-162,-33,-48,-90,-426,25893
250,57,-62,87,116,109,282,163,-128,15,394,338,-48,97,45,61,-16,-77,-219,133,75,194,31,-63,262,-298,-152,-20,-53,-85,-371,25894
-38,-19,-54,20,13,11,-13,-46,-115,42,-6,55,92,-35,-18,-132,9,-14,-128,-64,-383,-16,59,84,19,-875,-11,43,9,-29,110,25895
-1062,-260,111,-113,-255,-244,-1147,-694,204,28,-992,-322,224,-477,-131,-911,207,270,534,-776,-2340,-753,225,824,-737,-3517,701,447,469,417,1657,25896
-1641,-399,181,-173,-385,-364,-1800,-1111,310,34,-1262,-468,143,-483,-259,-1411,296,382,929,-1195,-3591,-1173,327,1228,-1114,-5305,1074,678,757,695,2315,25897
-1708,-429,187,-161,-383,-349,-1890,-1144,268,153,-1137,-559,-16,-395,-370,-1542,264,335,953,-1272,-3891,-1228,324,1264,-1110,-5847,1067,678,803,723,2139,25898
-447,-132,6,47,-26,-7,-481,-72,149,183,-51,-14,-194,76,-116,-577,139,60,277,-315,-1623,-256,237,515,-46,-2941,301,316,416,307,156,25899
509,104,-137,178,212,209,612,346,-9,162,605,531,-105,501,139,222,2,-131,-356,405,316,456,107,-120,639,-284,-283,-17,-16,-107,-920,25900
380,87,-122,132,154,140,508,337,-87,159,387,278,8,446,86,166,-2,-82,-361,327,238,355,86,-62,478,-296,-197,-25,-38,-110,-645,25901
310,80,-80,111,138,130,402,335,-127,49,182,264,-100,435,26,119,25,-42,-349,275,164,300,83,1,406,-343,-145,-18,-32,-77,-460,25902
300,58,-89,82,120,136,348,282,-104,90,141,243,-4,190,25,106,-13,-67,-389,258,186,276,52,-7,384,-262,-171,-42,-55,-96,-446,25903
264,42,-85,65,102,123,282,58,-88,-8,16,156,-122,102,50,89,-13,-62,-381,229,149,238,27,17,345,-281,-142,-36,-47,-72,-336,25904
-172,-59,-31,-3,-25,-6,-178,-123,-19,-32,-324,55,8,-54,0,-223,46,51,-171,-92,-618,-84,67,297,-5,-1276,143,93,109,81,394,25905
-1556,-378,194,-196,-381,-334,-1683,-1046,243,-82,-1129,-513,79,-515,-250,-1292,255,390,625,-1087,-3231,-1085,262,1218,-1019,-4791,1034,588,662,649,2353,25906
-2145,-522,273,-243,-519,-447,-2336,-1117,387,39,-1482,-839,338,-741,-348,-1804,373,520,1071,-1510,-4560,-1503,387,1674,-1346,-6738,1426,857,1001,975,2898,25907
-1784,-448,191,-149,-393,-336,-1946,-854,237,30,-1034,-591,416,-490,-256,-1600,323,397,906,-1269,-4106,-1226,370,1462,-980,-6292,1184,759,937,875,2163,25908
-532,-167,-14,42,-53,-22,-559,-56,27,23,-353,53,-322,68,-3,-658,139,74,174,-376,-1827,-300,232,646,17,-3361,372,358,471,395,220,25909
315,41,-139,126,150,168,382,138,-164,132,250,367,-344,637,120,35,11,-102,-447,233,-103,316,120,48,580,-1017,-190,30,58,-19,-783,25910
342,63,-143,98,133,143,440,256,-195,35,398,370,-152,682,87,112,6,-98,-578,269,116,344,97,-15,521,-660,-232,-25,-29,-102,-756,25911
391,78,-123,103,150,158,492,379,-234,78,130,355,-55,432,110,176,7,-68,-635,300,279,373,76,-38,500,-399,-233,-29,-62,-127,-659,25912
311,57,-116,90,119,127,404,329,-206,45,-27,263,-183,347,92,139,26,-32,-600,239,196,316,75,17,400,-475,-182,-2,-46,-114,-454,25913
209,41,-114,54,70,72,289,225,-128,-16,-100,184,-376,183,87,104,68,24,-520,217,76,262,113,128,338,-611,-90,65,10,-46,-327,25914
-38,-18,-65,22,2,7,-13,45,-64,-30,-329,70,-307,165,26,-92,64,60,-449,22,-363,50,101,253,102,-1173,48,103,64,7,68,25915
-763,-187,67,-75,-170,-156,-853,-389,88,-64,-704,-196,-81,-222,-76,-693,122,206,-58,-546,-1790,-517,157,690,-493,-3060,485,302,317,270,1091,25916
-1225,-310,134,-137,-286,-253,-1399,-635,264,-109,-1072,-448,-42,-407,-217,-1124,178,264,213,-925,-2832,-900,218,974,-847,-4496,741,449,504,445,1587,25917
-1234,-314,136,-104,-267,-233,-1356,-789,231,137,-860,-360,119,-399,-173,-1167,208,267,279,-933,-3002,-890,273,1019,-792,-4836,766,494,572,501,1406,25918
-341,-99,-3,52,-16,-6,-305,-108,23,305,35,76,149,-22,21,-484,94,45,-198,-269,-1390,-213,177,466,-43,-2780,204,217,282,180,61,25919
281,39,-116,101,117,117,405,356,-75,260,363,254,-39,326,77,25,-16,-106,-637,180,-123,228,75,30,384,-1052,-207,-16,-31,-121,-665,25920
214,51,-85,101,106,116,338,136,-168,151,282,171,-109,323,154,1,12,-31,-595,147,-171,191,92,100,291,-1056,-115,35,-13,-91,-391,25921
159,23,-80,84,80,100,245,227,-269,12,95,79,-163,183,51,-64,-36,-73,-616,80,-233,119,43,75,210,-1116,-134,-8,-47,-126,-377,25922
103,-1,-50,61,78,104,146,233,-110,121,104,56,-71,151,-8,-121,-70,-88,-628,21,-285,59,4,61,154,-1169,-143,-47,-78,-145,-280,25923
42,-8,-43,40,46,77,90,27,-33,109,91,31,0,150,3,-154,-62,-75,-607,-8,-349,20,3,86,109,-1248,-92,-37,-60,-116,-125,25924
-16,-20,-56,30,8,33,49,-49,-15,113,182,-6,51,151,60,-136,-8,-11,-555,-17,-412,13,49,180,120,-1337,-6,26,13,-45,-44,25925
-359,-89,-4,-14,-73,-39,-352,-93,2,-57,-8,-90,-156,-79,-39,-395,75,102,-372,-268,-1061,-230,126,438,-137,-2195,233,167,171,119,509,25926
-403,-115,8,-22,-65,-27,-430,-18,55,-131,-253,-133,-424,-337,-120,-470,58,69,-346,-326,-1227,-283,110,445,-163,-2452,239,179,193,136,392,25927
-154,-61,-15,20,3,50,-171,31,-18,-52,-215,34,-336,-61,-30,-325,-13,-39,-518,-176,-812,-126,33,248,12,-1914,52,73,80,17,-25,25928
-9,-22,-48,32,33,79,-12,-92,6,50,223,81,-371,117,37,-198,-18,-39,-605,-64,-509,-16,43,165,111,-1496,-26,37,28,-23,-198,25929
114,6,-77,53,61,87,155,147,-68,-28,336,99,-323,198,19,-50,-2,-38,-681,69,-204,112,61,101,230,-1085,-76,6,-3,-51,-285,25930
134,23,-77,60,54,76,198,236,-81,21,134,137,-23,165,60,-10,-1,-42,-728,110,-107,143,69,73,238,-945,-89,3,-23,-66,-283,25931
137,22,-87,58,44,50,246,116,-99,49,309,115,-108,275,28,19,24,-20,-720,142,-40,177,84,83,254,-826,-85,18,-13,-57,-286,25932
143,35,-81,57,45,47,244,191,-177,34,327,48,174,235,37,25,32,-18,-725,143,-25,173,74,75,232,-789,-79,12,-15,-58,-256,25933
173,46,-73,69,57,66,262,211,-146,151,330,132,117,155,88,45,15,-6,-770,160,26,176,61,52,222,-717,-96,-14,-34,-64,-318,25934
172,32,-75,59,51,70,264,164,31,135,155,299,-88,81,100,38,1,-17,-772,156,30,163,38,43,184,-681,-94,-15,-39,-73,-260,25935
106,35,-49,54,50,57,218,43,22,67,-22,176,-71,145,88,-21,-18,-26,-764,96,-80,108,22,46,105,-808,-78,-23,-50,-72,-159,25936
90,35,-42,50,44,47,214,51,12,64,96,80,-98,158,43,-39,-42,-48,-801,85,-95,92,0,15,73,-799,-116,-47,-80,-83,-224,25937
241,60,-83,59,65,67,360,313,-95,108,447,202,-65,119,117,106,-41,-58,-844,225,239,227,15,-62,225,-361,-176,-65,-105,-122,-410,25938
122,8,-90,21,16,18,209,191,-120,152,238,177,-108,54,157,44,-22,-22,-775,140,73,149,21,-7,126,-569,-93,-36,-73,-82,-262,25939
79,-4,-60,6,9,11,125,127,-33,192,111,73,-93,5,98,10,18,13,-712,107,-22,119,55,54,96,-708,-26,9,-27,-25,-183,25940
134,19,-38,29,41,45,163,29,-22,17,-11,116,58,38,-4,34,12,15,-736,132,57,152,41,32,124,-612,-46,5,-34,-41,-170,25941
90,7,-31,27,31,55,104,-127,-64,147,82,12,100,-133,-26,-20,-32,-17,-752,66,-14,84,-2,14,71,-740,-61,-21,-56,-75,-186,25942
124,13,-22,25,40,59,133,139,-49,31,127,87,-43,66,57,-12,-46,-37,-764,66,31,96,-4,-31,88,-678,-92,-49,-84,-105,-293,25943
171,32,-35,37,40,60,190,132,-70,11,195,152,-6,289,35,30,-67,-61,-778,107,143,126,-22,-77,120,-533,-137,-87,-113,-135,-375,25944
243,45,-61,32,51,62,283,287,-81,23,238,64,-114,39,44,90,-74,-87,-814,163,309,182,-44,-129,200,-294,-190,-118,-139,-164,-482,25945
675,155,-118,84,173,174,775,728,-98,-6,356,179,-80,387,138,435,-140,-196,-1082,478,1153,503,-99,-415,532,866,-460,-262,-315,-344,-1082,25946
769,177,-146,80,172,181,904,568,-158,194,586,242,41,330,140,552,-152,-205,-1157,577,1447,590,-109,-486,597,1331,-536,-301,-386,-399,-1156,25947
709,164,-119,64,155,161,826,420,-154,289,420,321,130,293,123,553,-117,-140,-1081,563,1395,569,-102,-396,538,1349,-445,-261,-343,-338,-935,25948
313,89,-46,8,71,73,382,49,19,98,311,63,42,69,67,269,-56,-34,-834,282,695,277,-53,-135,214,473,-187,-127,-197,-181,-320,25949
59,39,-20,-2,-2,-3,127,5,41,-41,166,6,-42,-118,45,66,4,23,-651,103,180,92,5,46,38,-215,-21,-41,-82,-55,27,25950
81,46,-37,20,7,-16,161,149,19,54,107,99,41,-44,10,86,23,21,-604,129,196,121,17,53,82,-181,-26,-48,-64,-40,-45,25951
67,31,-33,8,1,-11,124,18,7,8,10,170,-33,29,-45,67,14,13,-539,120,155,109,3,72,84,-227,-26,-36,-46,-20,-79,25952
17,-1,-23,-11,-10,-10,58,-129,-17,-104,50,94,-89,-83,26,20,16,8,-484,73,39,67,13,97,32,-365,-14,-14,-30,-25,16,25953
55,11,-14,0,18,27,88,-68,52,28,181,-17,-320,17,56,45,11,16,-487,88,52,96,6,79,47,-336,-16,-23,-20,-16,-21,25954
171,25,-41,14,43,61,221,122,10,87,373,18,151,194,17,94,-71,-71,-587,144,258,141,-81,-45,100,-55,-142,-110,-115,-96,-322,25955
366,79,-58,51,96,113,446,89,-20,138,243,118,-137,211,76,219,-127,-139,-710,269,636,259,-134,-206,210,476,-284,-198,-225,-189,-624,25956
655,152,-110,83,149,160,781,405,-120,40,407,275,-247,321,110,499,-120,-160,-835,520,1272,515,-120,-372,441,1332,-426,-273,-315,-269,-987,25957
727,184,-133,71,150,158,868,447,-242,-30,434,205,-126,161,180,614,-117,-162,-832,611,1529,601,-106,-408,500,1725,-456,-278,-347,-294,-1026,25958
264,69,-58,-8,23,38,310,10,-43,-8,-24,109,8,9,118,264,-61,-32,-530,251,693,241,-57,-112,107,658,-141,-122,-192,-126,-163,25959
-57,-12,15,-32,-44,-26,-72,-378,49,-32,-48,-100,-88,-123,67,0,13,60,-258,3,33,1,12,134,-131,-274,92,17,-2,50,217,25960
13,9,1,-11,-18,0,-6,-101,40,25,-28,-64,-172,-79,11,25,-16,10,-288,47,130,44,-27,65,-67,-187,23,-19,-35,1,40,25961
9,0,-14,-13,-17,-2,17,-43,31,106,53,-36,-86,-63,71,19,-36,-14,-296,36,132,31,-45,20,-71,-225,-8,-43,-57,-42,-16,25962
149,52,-2,19,36,40,158,-46,86,-9,140,16,-24,46,139,137,10,13,-289,150,354,158,3,-16,61,45,-41,-25,-49,-34,-126,25963
166,52,-27,15,36,31,186,193,40,28,62,120,155,-82,109,163,19,19,-292,176,426,185,16,-32,101,122,-57,-17,-63,-48,-102,25964
271,74,-47,31,61,50,319,263,-95,67,165,237,116,105,92,232,-20,-25,-345,252,644,253,-27,-116,201,420,-136,-67,-118,-108,-342,25965
1132,277,-182,159,277,247,1296,709,-311,66,842,635,-199,647,273,920,-158,-242,-835,893,2311,897,-144,-708,886,2685,-705,-374,-464,-459,-1681,25966
1520,371,-215,180,370,333,1725,774,-322,-1,1252,734,-529,684,345,1264,-240,-339,-1154,1161,3179,1163,-229,-1009,1115,3988,-980,-576,-703,-678,-2026,25967
1310,319,-181,127,296,260,1489,652,-178,49,899,539,-423,417,255,1126,-246,-291,-1115,1004,2918,994,-256,-907,881,3782,-870,-561,-693,-644,-1637,25968
479,115,-54,-12,57,46,523,150,-62,-140,218,152,63,2,-26,476,-136,-88,-634,369,1363,336,-182,-356,204,1818,-326,-292,-394,-322,-320,25969
-107,-21,42,-77,-81,-63,-162,-221,-78,-153,-226,-69,156,-222,-86,1,-31,40,-214,-51,162,-88,-83,67,-193,209,48,-58,-101,-35,373,25970
-90,-14,57,-54,-47,-24,-149,-167,-55,116,-77,-94,-49,-279,-19,-27,-46,7,-186,-57,82,-86,-100,54,-156,83,27,-68,-83,-19,204,25971
-22,4,28,-36,-27,-13,-48,14,28,128,-59,-64,-52,-242,5,9,-68,-32,-207,-16,155,-49,-106,11,-90,169,-24,-89,-97,-25,31,25972
-22,-9,8,-50,-43,-41,-15,-145,118,62,-158,-134,38,4,-23,21,-53,-37,-188,-3,166,-46,-79,6,-67,166,-30,-82,-85,-21,-26,25973
-33,-21,10,-50,-47,-41,-32,27,67,2,-47,-169,-50,12,-35,-9,-55,-47,-148,-32,115,-45,-75,9,-90,103,-18,-77,-75,-10,16,25974
107,19,-8,-22,3,2,135,129,88,-23,36,64,68,158,3,144,-6,-16,-139,116,368,110,-22,-9,67,426,-48,-50,-50,18,-113,25975
568,136,-85,50,115,115,657,477,-21,42,580,220,-71,319,115,521,-43,-86,-401,465,1256,473,-46,-288,419,1601,-318,-186,-214,-145,-731,25976
781,188,-93,79,175,164,888,550,-94,11,511,315,27,172,144,698,-94,-130,-549,613,1731,620,-99,-451,542,2283,-445,-270,-332,-256,-973,25977
758,175,-89,58,155,142,830,569,-80,-73,408,297,-47,48,136,675,-141,-166,-598,575,1759,564,-169,-508,453,2399,-482,-319,-395,-308,-916,25978
279,82,-1,-22,36,35,283,123,15,-142,253,129,-18,16,134,307,-78,-41,-297,229,887,200,-117,-205,47,1276,-170,-155,-218,-130,-102,25979
-136,-21,54,-68,-67,-61,-175,-1,21,-195,-9,-206,96,-271,4,-16,-17,52,-2,-56,88,-83,-44,76,-250,163,99,0,-18,43,380,25980
-105,-33,22,-75,-62,-70,-132,-45,109,-206,16,-230,-26,-260,-76,22,3,38,19,-21,123,-42,-30,50,-180,165,68,3,-20,44,225,25981
-57,-13,9,-54,-46,-61,-58,-82,139,-100,64,-129,-148,-58,20,77,24,60,46,42,214,23,6,45,-99,236,66,33,0,45,220,25982
-57,-6,23,-26,-36,-45,-45,25,-7,3,57,-27,-5,175,55,69,40,71,60,43,183,27,35,51,-86,162,74,52,25,45,184,25983
-70,-9,38,-30,-25,-37,-61,-66,50,32,138,-67,4,97,39,37,23,44,44,7,134,0,18,23,-97,90,39,27,0,9,119,25984
172,44,13,9,47,44,191,-46,15,64,302,-4,-41,204,-38,203,-16,-27,-80,176,557,171,-23,-144,103,649,-129,-55,-88,-92,-305,25985
695,151,-61,61,181,193,734,300,-46,53,634,122,-69,191,-7,571,-144,-194,-420,509,1511,516,-141,-526,469,1962,-490,-278,-335,-334,-1028,25986
888,194,-97,74,230,232,934,327,-158,-111,632,180,-311,417,73,716,-191,-246,-604,626,1916,627,-204,-678,566,2603,-628,-392,-466,-450,-1197,25987
788,172,-106,36,171,149,836,241,-194,-148,363,241,-332,290,79,692,-153,-199,-543,582,1836,564,-169,-604,494,2570,-554,-353,-444,-403,-994,25988
312,77,-20,-21,34,15,323,123,-42,-99,48,45,177,-48,67,336,-83,-69,-279,241,976,213,-114,-281,121,1474,-235,-205,-264,-205,-161,25989
-82,3,60,-49,-54,-81,-109,114,165,93,-128,-157,230,-251,-11,10,-44,10,-15,-59,177,-83,-76,-17,-156,415,28,-55,-81,-13,278,25990
-93,-14,56,-43,-57,-67,-119,-23,263,82,2,21,67,-262,-9,1,-15,24,63,-62,88,-79,-55,37,-109,286,71,-4,-20,57,273,25991
-61,-3,27,-31,-51,-51,-64,-41,146,-78,142,30,93,-93,35,34,2,20,82,-22,112,-46,-25,30,-50,292,77,0,1,85,228,25992
-23,1,24,-30,-37,-32,-18,-115,43,-100,93,-14,-7,-47,-6,65,-21,4,40,10,177,-23,-40,-15,-21,376,45,-23,-18,65,140,25993
-19,-8,36,-32,-29,-8,-31,-111,46,-48,46,33,78,-115,5,44,-44,-35,28,-20,151,-40,-69,-50,-46,356,6,-46,-39,33,127,25994
126,35,25,-2,22,41,120,45,-5,-25,126,18,-98,-200,31,126,-69,-85,-51,70,392,49,-80,-170,51,662,-107,-104,-115,-32,-167,25995
687,152,-59,63,158,178,734,478,-159,68,560,290,-12,234,35,576,-127,-207,-365,494,1477,474,-134,-526,480,2107,-445,-276,-316,-242,-959,25996
881,209,-102,75,197,202,966,392,-163,89,713,344,-137,171,160,781,-153,-210,-487,652,1961,641,-158,-646,606,2812,-555,-349,-395,-321,-1096,25997
809,220,-89,71,176,174,895,469,-169,-68,366,310,-135,398,165,762,-126,-161,-467,615,1921,598,-161,-603,509,2831,-491,-330,-389,-308,-925,25998
297,103,-2,-12,34,27,317,123,-78,-224,-11,-23,-92,128,-60,384,-41,-24,-160,264,1020,231,-79,-271,91,1654,-151,-141,-195,-118,-152,25999
-139,-6,61,-58,-69,-69,-165,-260,31,-124,-349,-200,43,-109,-100,31,24,69,125,-34,183,-75,-14,-4,-210,497,109,3,-14,60,397,26000
-133,-33,49,-71,-73,-68,-186,-82,81,-27,-176,-58,107,-58,-123,-13,-17,15,118,-63,109,-101,-44,-50,-217,354,53,-35,-17,33,236,26001
-64,-1,65,-41,-32,-30,-119,64,73,-89,-150,-51,160,-53,-33,7,-26,-11,93,-37,160,-62,-50,-96,-168,412,7,-45,-43,2,167,26002
-41,8,46,-27,-27,-26,-82,8,16,-104,-49,-65,25,-342,-76,35,-7,6,118,-14,168,-17,-29,-82,-118,400,20,-20,-12,9,125,26003
17,14,38,-2,3,-3,7,-78,32,-28,-76,-109,6,-203,14,96,25,26,139,50,258,53,11,-81,-24,510,26,10,10,20,45,26004
133,37,-9,9,30,12,146,94,3,-93,97,-24,-45,162,-3,176,-23,-35,43,133,494,133,-23,-203,77,831,-87,-57,-70,-57,-177,26005
459,117,-41,52,105,78,510,76,-99,39,570,105,83,245,54,453,-44,-87,-134,387,1121,382,-54,-396,356,1676,-267,-154,-173,-156,-592,26006
575,153,-53,61,129,83,642,303,-140,72,552,179,20,310,132,559,-71,-95,-241,465,1393,460,-90,-473,428,2094,-339,-211,-228,-214,-654,26007
436,122,-30,32,90,53,485,196,-94,54,486,108,21,144,142,454,-70,-78,-182,346,1172,332,-79,-410,296,1845,-285,-193,-218,-191,-448,26008
166,59,22,-10,20,-1,190,69,-193,81,27,94,544,-119,53,210,-70,-52,-91,117,638,87,-105,-283,59,1170,-145,-157,-161,-115,-65,26009
-43,3,56,-45,-34,-46,-71,-160,-107,13,-148,-37,266,-141,-66,40,-35,7,49,-44,209,-68,-87,-122,-85,597,9,-58,-47,5,185,26010
-46,-16,33,-62,-53,-40,-80,-187,-49,-95,2,-132,170,18,-60,56,-25,25,101,-36,183,-53,-70,-80,-48,558,30,-24,-20,41,151,26011
-80,-40,36,-59,-44,-38,-123,-145,70,-61,-36,-219,176,-64,-40,19,-12,32,151,-67,82,-88,-38,-39,-77,408,60,-5,5,61,180,26012
-60,-24,44,-38,-31,-20,-92,-54,121,11,-126,-120,-2,-194,-32,35,1,39,166,-40,104,-53,-8,-31,-51,413,65,11,22,83,92,26013
-69,-2,46,-23,-29,-21,-83,-126,114,-213,-239,-158,-31,-22,-17,34,5,38,139,-36,93,-53,-16,-31,-53,381,65,9,28,86,174,26014
-66,7,45,-25,-23,-28,-82,-53,11,-184,-179,-114,-350,-10,-10,44,22,36,141,-40,91,-63,6,-31,-43,367,64,14,26,86,144,26015
-131,-38,20,-59,-58,-58,-166,79,-66,-167,-136,-99,-405,-108,-59,-12,14,28,176,-94,-25,-115,1,-11,-98,209,82,13,32,84,188,26016
-41,-14,35,-21,-17,-10,-73,16,-80,8,-46,-79,0,-28,-25,50,24,27,167,-24,102,-50,13,-44,-17,354,52,9,34,66,92,26017
-29,-6,44,-13,-6,7,-67,-141,17,122,-129,-174,15,77,-39,24,3,16,118,-42,75,-67,-13,-63,-50,321,22,-15,5,35,62,26018
-44,-7,42,-18,-14,0,-87,-102,13,-8,-196,-239,132,27,-92,-7,-7,3,129,-66,27,-86,-28,-42,-72,249,27,-7,9,33,154,26019
-58,-6,25,-19,-11,3,-72,33,9,-111,-306,-143,110,-73,-143,4,-9,5,137,-54,35,-65,-26,-43,-57,254,23,-4,12,27,77,26020
-98,-6,31,-16,-21,-9,-98,97,-62,-62,-94,-100,135,-77,-65,-8,5,31,181,-56,-26,-62,11,-7,-60,155,53,23,46,56,168,26021
-26,8,26,-10,-10,-5,-13,-38,-63,-98,-70,-6,67,25,-50,48,9,17,156,10,83,4,36,-45,13,322,17,10,22,38,53,26022
3,-7,3,-23,-12,-12,24,-148,-140,-113,-110,-13,138,-111,-96,65,-22,-24,61,24,170,12,-17,-114,27,455,-50,-51,-36,-26,-72,26023
21,4,2,-27,-4,2,39,-144,-118,-110,-129,-70,-132,-248,-49,68,-35,-22,48,24,184,20,-48,-129,32,484,-59,-57,-42,-38,-123,26024
-46,-17,21,-47,-20,1,-61,-107,60,-47,-246,-93,-22,-203,-49,-10,-56,-21,53,-65,17,-61,-56,-114,-62,284,-49,-54,-52,-47,25,26025
-205,-54,54,-39,-50,-39,-248,-179,31,145,-144,-174,72,-127,8,-138,-17,21,167,-174,-304,-172,-29,20,-183,-165,68,12,42,40,272,26026
-140,-30,52,-28,-35,-29,-202,-143,2,-41,-74,-122,457,-48,12,-81,5,30,163,-118,-196,-116,3,2,-109,-57,62,27,50,60,197,26027
-163,-52,50,-48,-46,-25,-256,-140,-7,-87,11,-199,324,-69,-38,-93,9,30,176,-141,-228,-135,17,10,-119,-131,70,42,51,59,239,26028
-71,-37,40,-36,-26,5,-182,-29,75,-53,-237,-66,-137,87,-29,-13,12,16,159,-58,-75,-51,27,-14,-27,59,39,34,55,49,125,26029
12,-20,29,-25,17,29,-75,-50,-2,-98,-224,-50,-46,204,-69,41,-16,-4,112,-4,82,5,-4,-73,20,254,-3,-6,6,20,-18,26030
30,-1,24,-10,14,25,-2,-96,-13,-79,-226,-44,303,37,1,69,-4,15,116,11,133,22,5,-64,36,298,12,21,21,31,-25,26031
-10,3,10,2,-13,-16,40,-16,98,-55,-52,-55,218,84,41,65,32,52,130,9,120,17,33,-41,28,283,35,53,42,58,106,26032
-24,11,20,16,-11,-17,21,-84,79,0,-116,17,170,-14,79,65,52,81,162,9,79,14,56,11,26,217,86,73,76,103,170,26033
-41,-8,12,0,-16,-16,-13,-128,74,92,-359,43,-16,-195,45,62,53,70,183,16,71,2,76,21,33,175,76,80,75,92,101,26034
-69,-2,42,0,-18,-19,-68,-154,7,55,-301,-39,-164,-195,0,23,65,85,203,-25,-5,-30,80,47,-3,54,105,87,96,103,196,26035
-240,-45,66,-22,-54,-66,-278,-272,9,-107,-112,-87,117,-226,-63,-157,25,57,241,-201,-372,-203,42,94,-174,-412,143,87,104,113,370,26036
-300,-66,65,-21,-70,-68,-356,-264,86,-9,-30,-199,168,-25,-56,-244,4,33,255,-271,-543,-281,9,114,-227,-648,150,78,109,106,408,26037
-311,-74,67,-17,-68,-75,-349,-257,156,-4,0,-130,247,90,-107,-259,21,47,265,-269,-594,-276,24,144,-223,-745,170,96,140,120,402,26038
-154,-43,32,3,-22,-29,-158,20,133,-26,-181,-21,137,-55,-69,-154,-14,-14,131,-162,-313,-159,-6,15,-97,-376,45,17,53,32,111,26039
49,-3,-13,5,25,23,61,245,4,-89,-81,112,66,92,7,1,-68,-82,-35,-20,73,-23,-57,-139,56,178,-122,-84,-70,-82,-153,26040
-2,-4,9,5,3,9,13,-64,24,26,17,85,28,-31,7,-9,-26,-26,27,-45,-17,-39,-9,-66,21,91,-56,-37,-16,-36,-51,26041
-31,6,15,12,-10,-5,-14,-77,88,31,-80,23,46,26,-22,-14,11,13,86,-38,-79,-33,34,13,27,34,13,11,51,29,16,26042
-90,-23,-8,-14,-35,-38,-80,-141,10,32,-102,10,1,100,-33,-60,5,9,84,-78,-171,-79,16,28,-10,-63,30,14,41,44,110,26043
-96,-24,21,-15,-32,-30,-119,65,-6,-9,76,-27,-34,-93,-133,-84,-10,-1,79,-107,-235,-102,8,26,-49,-139,31,0,38,33,70,26044
-15,3,34,5,5,6,-38,-53,-34,52,52,40,-78,-199,-51,-10,-2,-11,56,-45,-106,-37,18,0,11,18,-6,-17,22,19,11,26045
-188,-30,24,-14,-48,-53,-191,17,41,40,-288,3,48,-185,-14,-124,35,46,149,-151,-393,-142,49,135,-118,-373,114,55,86,89,327,26046
-276,-52,28,-12,-79,-80,-262,4,96,151,-240,-53,480,-23,-43,-179,80,97,265,-183,-550,-171,87,229,-150,-640,203,134,174,167,417,26047
-173,-25,43,12,-26,-21,-139,63,16,131,-100,-135,415,134,-26,-100,81,93,230,-114,-386,-99,91,179,-67,-469,165,129,162,146,344,26048
-79,7,27,28,-7,-1,1,-14,-58,-43,284,-49,-422,91,-25,-32,36,33,139,-41,-150,-33,58,60,-3,-190,52,61,79,61,46,26049
-39,5,-7,1,-19,-15,48,-32,18,-7,214,32,-262,63,67,-17,-7,-20,73,-24,-43,-26,19,-18,-1,-52,-16,0,7,-13,-23,26050
-20,4,-19,5,-6,-22,12,-46,12,-76,-184,-23,-274,3,-2,-3,-15,-12,81,-18,-11,-22,21,-9,-3,-38,-19,0,13,-18,21,26051
-10,-8,-2,-2,-2,-7,-41,-91,43,68,-92,69,-254,-189,14,-9,-19,-8,64,-25,-1,-27,18,-4,-25,-23,-15,-6,13,-23,38,26052
-18,3,8,13,5,14,-44,34,-74,-12,89,59,107,-106,-36,-15,-6,4,77,-26,-6,-31,7,13,-19,-62,9,7,24,-9,6,26053
12,19,13,26,19,11,-6,-90,-115,-116,248,-22,930,100,-27,4,15,18,82,0,54,-9,32,7,10,13,4,12,27,-15,-55,26054
-33,-1,10,8,0,-3,-36,1,-210,-123,-6,-73,300,8,-65,-38,0,17,64,-36,-9,-41,15,19,-26,-71,10,-2,17,-22,-19,26055
68,18,-21,18,28,18,97,-32,-182,-84,-174,-44,-74,140,-5,53,-38,-35,-9,51,222,42,-15,-64,68,231,-85,-54,-36,-75,-212,26056
33,3,-16,1,11,6,24,-105,-48,-62,-95,-73,-62,120,-2,29,-32,-29,18,22,141,5,-12,-35,24,150,-59,-42,-30,-67,-85,26057
-18,-19,2,-21,3,-3,-37,-180,92,-95,-96,-41,-32,-77,-93,-16,-26,-16,43,-37,17,-39,-14,2,-13,4,-23,-26,-5,-45,50,26058
-64,-34,11,-25,-12,-5,-77,-229,35,37,-173,-88,-231,-135,-57,-62,-36,-32,27,-87,-79,-81,-39,4,-40,-91,-29,-52,-15,-42,38,26059
38,6,21,17,23,28,22,-42,10,102,-10,-3,-121,-19,45,-7,-43,-53,-36,-29,41,-28,-58,-39,31,111,-77,-78,-42,-56,-102,26060
34,12,27,27,20,28,22,-95,40,56,10,-68,36,131,66,-6,-25,-41,-34,-32,7,-32,-38,-8,35,122,-56,-66,-25,-35,-35,26061
-33,-17,-5,-12,-15,-5,-43,33,100,122,76,-60,-57,28,-27,-25,4,-6,23,-50,-123,-49,-8,69,3,-2,-8,-24,25,25,18,26062
-39,-13,0,-22,-13,-14,-48,-45,59,37,-21,-110,-100,-46,11,-25,7,-8,36,-50,-143,-41,-6,91,1,15,7,-19,30,44,97,26063
-52,-12,1,-6,-15,-21,-52,-47,14,-27,-196,-1,87,-71,38,-36,8,-4,38,-55,-183,-57,-2,99,-11,-18,19,-21,36,54,105,26064
23,9,10,23,3,-3,32,112,90,-59,-178,43,12,45,60,44,40,32,30,22,-50,21,34,96,59,140,21,-7,54,78,35,26065
5,3,-20,3,-12,-26,34,101,81,-143,-83,69,-143,102,1,58,43,34,32,33,-13,24,27,87,49,163,12,-4,38,59,25,26066
-1,7,-5,15,-7,-23,40,202,135,-87,14,21,-206,38,6,46,36,24,67,27,-16,12,29,85,29,122,18,12,26,42,16,26067
91,37,-2,36,20,15,128,248,34,-86,61,-3,71,27,31,75,8,-3,8,67,132,51,1,25,57,286,-35,-21,-9,-4,-82,26068
79,31,-13,26,14,7,121,50,33,-2,208,-100,-97,-89,-11,94,26,22,35,76,184,66,21,29,50,300,-23,4,8,-2,-29,26069
0,4,-26,0,-21,-24,50,-313,87,34,138,-26,-6,38,43,59,51,48,66,43,92,19,40,63,0,154,22,14,32,1,68,26070
-16,8,-2,1,9,-5,-20,-115,18,-29,157,-68,-176,75,-33,7,26,30,43,-4,39,-35,4,38,-55,40,10,-15,11,-27,48,26071
-13,11,19,-3,14,4,-56,-119,2,-83,-16,-55,-279,-153,-23,-19,-13,1,36,-30,27,-45,-22,24,-73,-4,-23,-17,-15,-51,17,26072
-42,-7,21,-18,-12,-7,-76,-90,25,-46,-1,-42,-23,133,-48,-49,-25,-11,44,-66,-3,-75,-25,24,-85,-73,-31,-25,-21,-64,34,26073
-52,-5,12,-14,-13,-18,-61,119,-62,-11,161,9,-150,243,-85,-50,-15,-12,59,-63,17,-67,-8,25,-66,-67,-7,-26,-23,-56,-4,26074
-31,-28,-27,-24,-25,-21,-28,142,-70,-125,127,-63,404,122,-93,5,22,13,79,-3,89,-9,20,56,-2,16,4,-1,16,-30,-9,26075
176,45,-38,30,47,37,202,137,35,29,95,51,403,104,81,173,13,0,-24,159,463,151,2,-34,178,521,-98,-44,-26,-82,-296,26076
445,113,-56,63,124,101,473,422,-95,98,317,154,35,306,108,341,-67,-103,-247,312,945,308,-89,-250,329,1216,-291,-184,-189,-226,-654,26077
477,101,-68,46,114,100,495,312,-106,108,430,257,-46,44,0,356,-120,-153,-333,305,1036,297,-135,-334,301,1407,-363,-258,-275,-285,-703,26078
173,37,-20,4,28,14,171,-56,106,148,360,72,132,-91,72,160,-55,-49,-148,93,491,82,-72,-121,66,749,-156,-143,-150,-147,-215,26079
-117,-22,16,-32,-53,-85,-126,-217,82,107,143,-6,76,-175,42,-61,-7,11,48,-105,-113,-115,-36,103,-118,5,43,-29,5,5,170,26080
-63,-12,-1,-21,-29,-57,-69,-112,9,-49,-36,-12,-73,-190,49,-25,3,-7,29,-60,-90,-76,-39,89,-42,94,21,-37,7,15,118,26081
-78,-25,-1,-26,-39,-52,-91,-61,-48,-9,-30,-3,-63,-257,29,-36,8,7,46,-66,-145,-80,-39,111,-47,44,42,-18,23,42,93,26082
15,3,4,-4,-8,-21,2,76,71,71,-51,59,33,-22,33,19,-13,-16,3,-11,-33,-26,-48,76,7,225,-4,-42,-15,20,-18,26083
67,35,-8,24,7,-14,74,217,42,54,-8,132,63,285,-6,84,-1,-2,-10,39,66,27,-18,67,51,363,-13,-33,-10,24,-44,26084
92,37,-20,37,14,-23,112,60,-41,76,96,109,77,254,95,118,22,7,2,79,121,62,11,69,73,444,-15,-21,1,33,-49,26085
615,150,-87,109,160,129,686,334,-60,-64,326,293,-6,231,141,529,-43,-116,-257,465,1143,461,-34,-256,478,1785,-346,-183,-188,-176,-891,26086
887,207,-122,119,207,187,986,457,-136,35,446,427,130,332,125,742,-139,-219,-538,634,1765,616,-152,-523,603,2651,-574,-354,-392,-370,-1247,26087
727,182,-98,78,161,121,822,356,-54,-4,425,321,-188,200,134,642,-150,-180,-526,521,1593,482,-193,-480,423,2443,-498,-349,-385,-356,-963,26088
195,47,-20,-7,18,-14,236,-155,-23,14,-1,2,84,-128,34,225,-81,-39,-211,123,659,80,-138,-156,-11,1189,-165,-178,-206,-171,-86,26089
-156,-37,35,-50,-70,-79,-165,-137,87,78,-197,-201,22,-312,-43,-53,1,54,58,-126,-42,-164,-45,112,-250,200,73,-23,-16,3,337,26090
-147,-35,44,-50,-56,-57,-161,-41,118,40,-77,-74,-192,-218,-26,-59,17,41,80,-101,-36,-138,-4,108,-199,132,57,-6,13,16,235,26091
-98,-21,59,-30,-25,-9,-140,69,5,31,-44,72,-143,-68,-124,-17,30,52,72,-56,34,-90,3,92,-132,167,58,1,24,21,160,26092
-70,-13,24,-30,-17,-20,-126,191,-39,152,-80,-34,-149,-19,-31,-19,-3,17,37,-60,66,-87,-40,52,-116,194,11,-31,-8,-13,153,26093
-79,-27,8,-51,-35,-47,-133,0,-69,298,40,-126,-304,-43,-64,-43,-22,0,31,-86,38,-104,-49,40,-121,149,2,-45,-20,-30,151,26094
-5,-13,10,-32,-14,-23,-56,-172,77,282,153,-43,139,-126,34,4,-34,-18,13,-38,150,-42,-51,7,-45,295,-34,-54,-34,-34,-52,26095
361,90,-31,38,91,75,365,122,99,158,495,135,41,134,101,307,-48,-72,-162,254,851,254,-62,-196,261,1222,-214,-134,-135,-143,-524,26096
536,138,-87,44,116,81,591,253,24,-65,291,145,190,85,81,478,-86,-111,-310,394,1270,391,-119,-336,395,1834,-343,-215,-236,-237,-773,26097
514,141,-70,45,104,83,567,301,-115,-94,104,142,-75,26,136,482,-88,-102,-327,380,1269,369,-125,-324,362,1906,-330,-224,-250,-235,-681,26098
171,38,-19,-27,5,-11,173,46,-107,-43,-53,-44,-55,-74,42,195,-80,-47,-210,105,622,77,-122,-161,54,1112,-175,-172,-184,-157,-144,26099
-136,-26,60,-53,-58,-66,-188,-173,44,34,-37,-118,75,-75,-64,-58,8,57,49,-101,-51,-141,-28,97,-156,249,63,-18,-6,17,305,26100
-89,-26,32,-46,-37,-36,-130,-83,-44,2,0,-118,117,-161,-28,-28,-9,13,33,-65,-22,-96,-38,59,-93,310,34,-28,-10,9,138,26101
-111,-33,27,-42,-35,-33,-155,-44,-103,-151,-89,-156,279,-172,-19,-43,-7,10,39,-98,-104,-116,-52,63,-118,213,31,-31,-10,3,148,26102
-107,-8,56,-16,-20,-22,-138,-34,12,-56,-181,-117,23,-18,-18,-34,32,52,105,-83,-147,-95,2,117,-91,141,79,15,53,48,184,26103
-133,-20,44,-21,-41,-44,-149,-154,53,-73,-145,-95,-15,107,-17,-36,44,54,135,-73,-193,-93,26,141,-94,76,100,45,73,77,274,26104
-92,-16,0,-25,-40,-55,-81,-209,37,-149,-36,-33,-11,124,33,6,34,43,101,-31,-97,-43,7,107,-39,184,65,34,59,67,112,26105
247,64,-22,22,62,48,264,141,-31,-19,52,120,-41,231,40,223,-34,-53,-131,174,504,158,-64,-154,175,982,-163,-117,-104,-91,-383,26106
303,71,-22,36,73,70,310,199,-27,61,201,74,-397,93,61,251,-76,-93,-200,187,635,158,-101,-218,169,1155,-226,-167,-173,-160,-402,26107
211,63,-9,16,40,35,229,135,37,24,190,53,-330,-87,68,189,-53,-67,-130,132,517,104,-79,-159,102,1012,-157,-132,-137,-126,-235,26108
-35,-3,14,-40,-31,-44,-40,-159,83,-6,-151,-83,137,-200,-18,2,-24,-3,-12,-64,78,-82,-57,-19,-105,418,-15,-58,-70,-31,89,26109
-141,-17,41,-36,-57,-63,-155,-111,-2,3,-38,-120,200,-136,-3,-70,10,39,98,-134,-131,-142,-23,90,-155,86,80,17,27,45,170,26110
-153,-20,43,-29,-51,-65,-161,-115,-56,-14,71,-134,81,-74,24,-80,22,31,110,-128,-163,-142,-16,98,-130,24,91,24,49,60,180,26111
-93,-15,34,-38,-20,-32,-133,-190,35,-40,-52,-160,114,91,14,-63,1,2,54,-107,-88,-116,-35,37,-88,104,41,-19,-2,16,7,26112
-49,-13,49,-27,4,-2,-121,44,96,-127,-102,-95,-2,42,18,-46,-14,-15,13,-92,-35,-97,-35,-4,-83,154,7,-41,-38,-3,-9,26113
-79,-22,40,-26,-13,-7,-150,55,121,-88,-187,-95,-268,-53,-35,-77,1,2,42,-112,-108,-119,-42,32,-108,56,43,-20,-7,26,99,26114
-79,-12,42,-8,-9,4,-146,99,172,-58,-68,-64,-214,66,-58,-82,-3,-6,54,-115,-123,-118,-33,32,-102,38,43,-18,-1,40,97,26115
-59,-2,28,-3,-15,-5,-85,115,127,-73,23,-67,54,-119,24,-22,39,39,99,-56,-42,-45,16,56,-42,124,68,27,39,64,97,26116
-121,-17,36,-19,-34,-36,-109,197,-64,-66,108,42,-30,-69,24,-34,78,85,164,-67,-131,-47,66,124,-52,-10,135,88,92,112,192,26117
-141,-13,41,-16,-36,-38,-140,88,-32,73,17,-60,-202,-5,7,-56,68,82,192,-79,-193,-73,66,134,-64,-93,140,94,100,111,272,26118
-67,0,22,5,-15,-20,-80,129,-74,33,203,23,-192,-19,-49,-12,73,66,159,-25,-106,-26,55,101,-23,13,97,74,83,96,68,26119
-99,-9,14,-2,-27,-26,-125,-95,22,-113,56,-82,-58,-74,-41,-24,89,88,178,-47,-176,-43,81,133,-64,-73,132,91,107,109,163,26120
-50,12,17,-4,-6,-16,-73,35,10,-53,-14,-47,-100,25,-30,13,78,78,146,6,-105,-10,85,103,-21,17,108,74,85,78,124,26121
-43,0,14,0,-6,-22,-62,57,-34,-1,-73,3,39,24,4,-13,32,28,51,-15,-77,-39,28,18,-51,75,39,-7,9,-8,116,26122
-72,-14,18,-4,-23,-28,-92,144,34,56,-41,18,194,-130,25,-35,30,33,71,-42,-146,-66,35,29,-86,-17,40,0,32,-11,118,26123
-91,-22,11,-11,-28,-38,-115,-39,7,-9,-7,-10,0,-61,58,-51,27,38,115,-35,-170,-71,24,56,-86,-62,63,31,47,5,170,26124
-84,-21,23,-8,-8,-8,-119,120,30,-71,56,-44,64,-55,-15,-72,5,14,100,-51,-178,-76,0,42,-87,-70,60,26,34,4,126,26125
-320,-81,71,-58,-64,-56,-405,-244,42,20,-88,-223,53,-212,-48,-284,8,47,188,-273,-651,-288,0,142,-308,-700,169,59,81,59,451,26126
-484,-120,70,-97,-109,-111,-588,-575,16,-113,-287,-264,-311,-317,-92,-416,41,76,303,-391,-993,-398,39,251,-405,-1184,262,125,162,142,585,26127
-494,-123,65,-73,-118,-110,-586,-549,91,-92,-507,-107,-236,23,-150,-411,64,99,349,-386,-1031,-386,70,296,-361,-1280,299,168,195,200,499,26128
-224,-62,19,-23,-43,-41,-294,89,128,0,-244,-72,215,124,-103,-212,57,50,219,-202,-587,-180,60,175,-125,-723,167,112,135,139,205,26129
65,12,-9,35,50,27,27,133,25,-63,-33,-44,105,62,-32,17,19,-11,59,9,-23,43,38,9,98,14,-10,31,28,33,-176,26130
25,5,-10,12,16,4,22,-71,8,10,3,-39,431,24,14,5,12,-14,32,-12,-23,23,22,1,64,39,0,19,15,26,-110,26131
-32,-10,-11,4,-13,-20,-18,-72,-48,-47,-75,-58,467,89,-60,-32,14,-3,34,-51,-100,-22,15,2,17,-40,23,8,14,33,-60,26132
-23,-6,-2,5,-4,-21,-18,15,99,-41,-68,-42,-53,-24,26,-33,24,19,35,-51,-110,-16,19,19,13,-36,25,13,16,51,-23,26133
-15,-4,4,18,4,-15,-10,83,141,40,-104,56,-520,-135,95,-19,20,31,30,-40,-94,-9,13,30,18,-29,37,28,26,56,33,26134
-92,-12,8,-3,-26,-39,-92,-101,106,-20,9,47,-486,-150,70,-71,-3,16,66,-106,-220,-81,1,45,-61,-198,70,36,32,56,138,26135
-562,-132,89,-74,-139,-140,-643,-368,125,-60,-488,-185,-85,-423,-112,-487,46,99,310,-491,-1184,-473,35,325,-464,-1470,349,153,176,210,804,26136
-806,-207,121,-101,-200,-195,-907,-467,217,-57,-834,-257,66,-440,-166,-680,122,171,513,-640,-1702,-628,110,522,-590,-2242,508,285,329,350,1051,26137
-744,-179,96,-79,-182,-179,-815,-494,162,-96,-700,-337,167,-315,-107,-593,176,203,568,-533,-1596,-514,188,545,-447,-2185,516,341,400,399,933,26138
-315,-67,28,0,-56,-63,-321,-250,-76,-172,-200,-69,69,21,-3,-251,129,107,350,-187,-809,-169,157,281,-79,-1184,271,226,268,248,289,26139
24,15,-23,35,31,30,79,14,-65,-75,87,107,-80,325,24,15,52,20,90,65,-105,73,84,21,144,-259,34,73,81,52,-179,26140
59,29,-22,40,43,38,100,184,5,30,86,210,-75,467,14,38,42,15,51,81,-11,91,65,-18,121,-136,-1,36,41,1,-181,26141
119,49,-5,57,68,54,144,184,-34,-8,152,168,-142,286,36,87,58,31,62,128,108,129,91,-32,156,14,2,45,41,-17,-116,26142
85,38,-17,42,45,36,100,151,-46,-54,251,109,-31,95,34,64,49,26,72,101,71,100,75,-33,116,-22,9,48,45,-24,-103,26143
145,43,-19,29,55,53,146,17,53,-1,176,31,88,76,-10,86,7,-26,-21,121,194,111,25,-124,128,171,-73,-12,-27,-86,-235,26144
-126,-35,10,-49,-28,-22,-171,-138,-71,-3,-222,-167,17,-86,-151,-141,3,-5,69,-107,-286,-121,-11,-5,-121,-429,49,21,4,-51,173,26145
-691,-168,105,-106,-171,-161,-815,-523,12,-108,-447,-320,110,-619,-196,-592,112,154,442,-507,-1402,-511,97,411,-531,-1939,445,249,271,226,1014,26146
-869,-215,120,-117,-211,-192,-1050,-589,111,-70,-666,-284,397,-484,-187,-743,155,197,607,-641,-1828,-623,168,567,-607,-2568,574,347,402,360,1172,26147
-770,-184,103,-76,-165,-142,-948,-430,120,50,-583,-241,341,-186,-135,-668,155,168,589,-568,-1724,-535,178,545,-478,-2499,536,344,402,364,924,26148
-249,-59,41,20,-14,8,-371,94,147,68,-160,-71,147,303,49,-283,90,44,297,-195,-824,-152,108,232,-52,-1329,228,196,240,197,187,26149
205,46,-25,71,98,114,171,398,21,-10,165,170,-39,356,120,100,55,-29,44,142,69,192,81,-38,293,-131,-36,71,64,38,-299,26150
165,50,-30,69,73,86,199,232,91,74,208,132,29,145,10,84,48,-13,38,116,73,161,75,-26,236,-69,-15,65,41,34,-181,26151
99,30,-44,43,36,38,157,247,-41,138,225,66,65,120,52,1,-18,-80,-25,27,-12,67,3,-64,131,-144,-47,-3,-24,-22,-189,26152
52,10,-36,34,21,5,99,190,-29,117,196,36,210,-83,80,-31,-31,-75,-41,-1,-76,22,-26,-72,85,-193,-37,-22,-33,-24,-200,26153
66,10,-43,41,27,8,99,222,121,24,153,30,223,-89,95,-10,-39,-65,-61,14,-47,31,-48,-83,87,-131,-57,-23,-33,-25,-191,26154
31,25,-8,39,30,8,25,165,-39,87,-59,-18,-92,-101,113,-44,12,-25,-21,-22,-154,1,-6,-14,30,-275,14,15,3,8,17,26155
-496,-110,68,-43,-116,-119,-569,-461,4,58,-491,-296,-213,-249,-149,-448,95,106,314,-398,-1136,-379,98,336,-383,-1603,354,211,201,227,833,26156
-823,-200,107,-83,-192,-176,-921,-611,228,8,-715,-313,-278,-525,-237,-704,151,187,537,-615,-1807,-600,175,571,-598,-2562,560,340,379,381,1195,26157
-744,-174,74,-47,-157,-154,-793,-453,130,-11,-454,-216,-100,-189,-88,-658,165,166,534,-542,-1727,-516,191,540,-485,-2526,519,339,394,386,946,26158
-221,-44,1,33,-19,-23,-201,151,46,75,-39,-10,-78,161,-48,-258,99,35,278,-148,-762,-106,132,222,-50,-1314,210,185,230,203,135,26159
185,40,-67,61,77,80,232,212,-161,182,203,121,-217,172,37,75,12,-68,-10,138,84,178,56,-96,225,-182,-71,23,11,-28,-319,26160
161,34,-51,54,64,55,196,80,-21,110,-83,56,-156,83,33,57,-7,-65,-30,105,108,135,27,-117,156,-141,-80,9,-30,-67,-319,26161
145,37,-25,51,64,65,168,-108,25,111,81,81,-129,182,27,20,-37,-84,-89,66,94,90,-14,-157,100,-147,-113,-39,-72,-106,-212,26162
91,18,-11,36,57,73,87,-48,85,81,143,-29,-46,179,-13,-8,-11,-49,-53,31,19,42,13,-119,65,-257,-81,-17,-49,-77,-130,26163
42,-8,-13,7,35,55,26,-12,-7,58,245,28,-31,-112,0,-58,-20,-63,-46,-20,-55,-5,-13,-100,42,-339,-77,-27,-53,-84,-122,26164
-37,-21,-1,-4,2,29,-56,71,-18,95,147,-9,-14,-269,-10,-97,11,-17,29,-59,-178,-44,16,-29,25,-511,7,28,3,-34,24,26165
-446,-108,31,-56,-118,-91,-461,-111,106,31,-199,-187,12,-173,-89,-399,65,78,250,-329,-914,-322,69,230,-257,-1504,264,162,153,141,605,26166
-597,-119,64,-52,-118,-101,-606,-284,145,-16,-280,-277,-134,-252,-169,-511,124,139,409,-418,-1269,-401,129,387,-317,-2002,407,266,283,259,803,26167
-480,-117,44,-29,-88,-69,-480,-308,27,-38,-271,-157,16,-221,-174,-436,109,103,359,-339,-1139,-312,121,333,-208,-1845,344,244,265,233,594,26168
-133,-32,-11,30,-6,13,-98,-53,-2,-67,104,91,-305,44,-49,-177,56,3,153,-82,-514,-58,93,117,66,-1024,108,121,133,97,42,26169
99,29,-38,58,56,61,141,1,-49,-79,12,232,-122,127,45,-6,-16,-77,-39,70,-61,99,23,-70,199,-364,-52,3,0,-28,-246,26170
123,37,-23,54,68,69,132,32,-90,-237,-17,108,-205,147,81,17,-15,-71,-67,63,-16,101,1,-81,164,-268,-62,-14,-25,-42,-210,26171
139,37,-20,49,60,61,141,163,-121,-119,74,-26,-158,157,51,39,4,-55,-45,87,8,110,22,-66,149,-203,-57,8,-10,-17,-126,26172
151,35,-22,40,52,68,181,10,-85,35,190,46,-90,-73,-60,65,15,-51,-60,105,64,135,41,-66,139,-106,-66,5,-8,-32,-147,26173
129,32,-4,51,49,63,156,-42,-48,-127,149,-13,62,-123,-34,48,10,-51,-55,85,40,127,41,-57,101,-112,-54,-6,-19,-41,-140,26174
88,9,-29,27,24,38,124,-169,37,-20,106,8,23,73,-52,53,24,-28,-26,87,13,123,34,-30,77,-143,-19,27,13,-18,-42,26175
26,-3,-33,7,3,14,74,-31,23,198,-42,63,62,-29,7,29,45,13,6,59,-79,80,47,21,30,-254,26,46,45,22,45,26176
-74,-8,16,9,1,27,-78,-157,-44,38,42,-25,-138,135,21,-86,46,24,65,-37,-316,-25,62,82,-80,-564,94,62,76,56,228,26177
-94,-23,18,6,-2,29,-114,-91,21,9,105,1,98,49,71,-117,50,24,88,-62,-371,-37,61,86,-99,-668,108,70,85,59,214,26178
18,12,-20,19,16,43,11,-86,104,-31,-73,64,164,57,9,-10,41,5,50,31,-138,48,64,27,1,-400,48,63,69,33,-76,26179
135,18,-39,18,38,52,147,206,97,-19,-264,103,-75,0,-4,62,-27,-67,-79,82,138,102,-8,-112,62,-60,-88,-36,-41,-57,-260,26180
102,5,-20,13,31,33,111,96,65,76,-118,44,-171,8,-18,30,-49,-73,-95,32,135,66,-40,-116,18,-84,-94,-61,-75,-73,-158,26181
59,3,-20,11,12,22,67,-10,83,113,23,31,-183,-32,-44,4,-44,-53,-60,15,89,41,-31,-67,3,-160,-37,-33,-46,-44,-122,26182
-17,-21,-31,-12,-16,-13,-9,-135,29,-55,27,57,107,-59,-28,-58,-47,-53,-29,-42,-14,-29,-40,-39,-51,-320,-9,-13,-36,-25,-23,26183
-44,-21,-7,-6,-15,-12,-45,-18,12,52,-27,28,153,-108,33,-73,-16,-20,6,-63,-71,-44,-2,6,-50,-437,36,12,2,8,35,26184
83,28,-7,42,23,33,108,161,75,67,95,73,72,63,61,36,-2,-19,-20,50,151,64,22,-40,75,-154,-10,0,1,-16,-109,26185
51,24,-24,34,5,11,89,-13,96,154,26,57,22,272,83,20,-15,-22,-26,25,122,44,15,-34,58,-167,-17,-6,-13,-22,-32,26186
37,24,-33,28,5,4,110,23,24,72,-43,116,92,275,40,22,-1,-5,-18,30,82,50,12,-13,57,-180,8,8,3,-1,-38,26187
70,20,-49,26,13,4,171,277,-60,56,179,135,430,-20,18,33,-33,-44,-88,57,139,70,-27,-69,78,-62,-55,-49,-42,-52,-108,26188
56,10,-40,21,14,12,142,128,-110,103,-102,97,94,149,43,47,-10,-34,-54,83,118,80,-3,-50,82,-52,-36,-31,-7,-36,-107,26189
26,-1,-18,-2,3,26,58,46,-172,52,-254,45,-139,89,-62,-1,-21,-38,-31,55,16,44,-7,-41,33,-132,-32,-22,-10,-38,-33,26190
58,0,1,-5,24,54,25,251,0,91,-160,99,-82,1,-61,-17,-61,-75,-79,38,1,37,-41,-83,2,-104,-87,-66,-61,-73,-140,26191
26,-6,12,-11,24,49,-31,-32,-20,29,-40,-12,230,-329,29,-42,-51,-57,-62,5,-92,6,-34,-54,-45,-211,-59,-50,-37,-60,-41,26192
31,-12,0,-15,11,49,-12,-213,-110,157,33,-56,215,-170,-40,-18,-29,-39,-24,27,-93,44,2,-27,-24,-195,-45,-19,-5,-49,-58,26193
79,19,-4,4,29,47,87,-202,-112,55,82,136,474,151,-68,54,-4,-24,-35,92,21,113,32,-31,35,-32,-34,-7,3,-29,-53,26194
86,19,-28,14,14,14,115,-190,-163,-18,33,151,646,117,-7,63,11,-4,-47,113,54,124,13,-29,53,23,-28,0,6,-21,-32,26195
208,40,-49,31,50,40,238,-151,-144,-54,310,167,137,242,65,172,-12,-44,-116,203,306,214,-15,-107,145,355,-115,-36,-41,-75,-241,26196
364,86,-64,63,98,85,395,199,-49,36,444,151,244,321,131,282,-46,-91,-193,287,593,308,-39,-211,240,765,-200,-95,-114,-135,-444,26197
345,70,-55,43,85,78,357,311,-100,-26,441,147,252,209,61,245,-77,-104,-244,239,583,241,-79,-250,172,778,-221,-142,-166,-169,-416,26198
153,28,3,21,55,57,131,92,-65,-41,46,-9,283,-7,29,94,-53,-55,-138,79,255,82,-48,-122,1,319,-99,-83,-102,-96,-66,26199
50,9,16,5,19,23,20,39,19,-72,117,-11,246,-15,25,9,-20,-21,-57,1,81,9,-38,-33,-59,30,-22,-28,-37,-25,49,26200
5,-4,4,5,-13,-6,8,85,15,-94,133,32,121,0,37,-3,-19,-7,-45,-26,71,-13,-40,-20,-71,-48,-3,-13,-22,-1,65,26201
-38,-4,13,3,-15,-4,-41,24,-34,-69,-40,-76,3,-51,-15,-33,3,2,27,-50,9,-45,-23,28,-81,-190,34,29,11,42,26,26202
67,25,-4,14,19,27,84,27,-77,-249,33,49,-40,138,26,54,-1,-16,-8,46,242,38,-26,-18,21,70,-12,14,-18,20,-123,26203
97,29,-27,13,25,22,131,134,-42,-117,35,-39,20,186,8,93,-4,-25,-67,62,343,64,-29,-59,43,174,-43,-23,-46,-3,-163,26204
48,10,-35,6,10,-10,89,17,-36,49,-32,-11,-25,187,31,59,-7,-22,-68,28,271,21,-22,-64,-3,100,-46,-34,-48,-17,-74,26205
174,52,-39,34,42,31,229,238,-53,-91,-89,91,-49,116,10,160,-2,-29,-73,145,471,134,-6,-83,123,384,-70,-32,-38,-19,-218,26206
308,83,-38,54,65,68,383,339,-16,-12,265,39,-105,88,116,279,-10,-37,-159,259,716,245,-29,-145,231,764,-138,-59,-79,-61,-337,26207
265,60,-25,21,54,38,317,105,66,11,337,-11,-178,-176,75,229,-22,-43,-167,218,627,208,-40,-157,169,720,-149,-76,-92,-93,-212,26208
118,40,-13,15,21,-4,174,-219,-158,-48,-133,54,-227,-175,-2,137,-3,-11,-78,138,362,121,-16,-76,53,422,-64,-44,-42,-49,-117,26209
9,6,-13,0,-13,-41,49,65,-53,-62,-110,-20,203,-74,-71,40,-6,-1,-34,44,107,37,-28,-22,-39,136,-8,-29,-20,-22,-1,26210
-1,-3,-15,-7,-27,-44,12,90,-160,55,-84,-1,529,-4,-28,13,-19,-18,-52,35,48,19,-35,-35,-48,87,-36,-40,-32,-35,19,26211
29,19,0,14,-3,-14,28,-204,-47,37,-75,125,1,5,70,68,25,31,-3,79,59,73,20,15,3,112,9,14,27,0,64,26212
20,24,-8,14,-6,-11,30,-196,34,15,-67,166,18,-12,89,66,38,36,39,77,25,79,23,39,9,87,37,43,61,17,100,26213
6,16,-1,-6,-1,-19,22,-2,-25,51,-72,148,218,98,53,65,45,35,47,77,6,70,37,39,19,66,31,45,49,21,70,26214
37,7,3,-4,4,11,60,73,69,135,-131,73,440,77,56,77,29,16,12,92,52,86,28,7,34,138,-9,12,19,5,-52,26215
149,36,-13,3,34,53,176,222,-6,-8,223,82,-223,75,62,141,-37,-62,-120,140,262,127,-43,-130,78,441,-141,-80,-73,-100,-252,26216
225,52,-7,23,59,72,235,233,-80,37,385,84,-79,155,-7,179,-55,-80,-176,158,392,159,-82,-186,104,622,-174,-120,-121,-132,-357,26217
224,57,3,24,60,74,216,188,38,157,244,111,-17,244,-28,167,-56,-78,-164,135,394,144,-77,-173,85,611,-156,-108,-129,-133,-294,26218
63,18,8,2,19,25,58,189,122,73,120,38,-90,112,22,53,-24,-28,-78,23,147,30,-48,-75,-25,270,-62,-48,-71,-59,8,26219
-28,-1,15,0,-15,-14,-29,46,55,57,-226,-38,6,6,-32,-7,1,13,12,-38,-1,-37,-20,14,-78,14,15,11,1,24,85,26220
3,-10,7,-17,-13,-2,-24,-42,-75,-17,-182,-98,80,-191,13,-2,-19,-9,-11,-38,64,-49,-49,-10,-68,44,-15,-9,-21,12,33,26221
-6,-11,20,-18,-2,14,-33,41,50,26,-48,-101,49,-128,29,-18,-35,-22,-19,-62,74,-65,-67,-15,-82,5,-19,-12,-33,5,-39,26222
17,-9,-4,-19,-1,6,0,-206,-32,75,19,-49,-106,-150,-83,-11,-61,-58,-76,-63,147,-59,-89,-70,-77,69,-74,-54,-80,-37,-90,26223
10,-6,-3,2,-7,6,-6,-58,-130,35,77,-49,-23,-135,-55,5,-21,-9,-6,-49,141,-35,-32,-13,-62,25,-13,-9,-33,18,-1,26224
91,23,15,26,32,37,73,-2,31,52,230,32,36,-26,31,68,-21,-7,-30,26,261,30,-13,-29,-11,164,-28,-8,-31,22,-106,26225
287,65,-13,37,76,81,288,154,-47,177,235,128,-49,218,74,205,-85,-98,-201,145,618,149,-91,-199,107,677,-201,-115,-141,-114,-445,26226
367,82,-38,38,77,80,409,298,-136,-12,216,180,-108,104,100,279,-102,-120,-274,219,807,217,-129,-278,168,997,-267,-169,-198,-174,-500,26227
327,70,-41,24,59,58,364,349,-96,-42,53,145,-374,105,83,279,-65,-63,-206,233,743,217,-89,-214,145,975,-203,-118,-145,-129,-353,26228
115,14,-10,-22,9,11,113,152,-141,6,20,-34,-164,-53,21,110,-42,-23,-127,75,328,57,-71,-105,-29,499,-93,-77,-92,-85,-40,26229
-57,-20,19,-28,-22,-21,-81,19,-64,26,80,-127,-152,-127,16,-54,-41,-24,-63,-59,-35,-79,-66,-30,-161,49,-17,-53,-61,-45,94,26230
-65,-33,-5,-21,-36,-43,-89,34,-106,31,-60,-140,-297,-67,48,-61,-27,-7,-6,-46,-102,-61,-41,8,-136,-25,12,-15,-11,-14,102,26231
-9,-7,-7,0,-11,-26,1,174,37,61,67,41,-134,6,27,27,6,22,-2,45,-8,20,-19,24,-36,121,14,5,17,5,31,26232
9,6,-5,2,-9,-12,18,156,-48,-211,93,81,-135,209,-30,60,47,51,31,84,17,53,40,43,-3,155,37,42,48,26,87,26233
-1,-12,-7,-15,-19,-9,-11,-133,-91,7,-97,-39,-92,55,-31,34,26,16,59,51,-23,34,24,28,-15,111,23,33,40,10,42,26234
79,16,9,10,30,31,88,86,32,-75,101,14,-178,114,21,90,-18,-6,-29,93,120,79,-19,-45,43,313,-58,-29,-21,-39,-141,26235
405,106,-45,54,126,98,454,358,-30,-147,338,166,148,493,65,355,-65,-74,-261,338,760,326,-65,-258,306,1189,-269,-147,-156,-165,-612,26236
458,105,-84,41,97,67,518,200,-187,-146,252,172,116,180,84,416,-76,-85,-301,379,959,373,-79,-302,342,1472,-300,-161,-196,-199,-611,26237
407,83,-66,21,80,47,452,153,-210,-188,184,40,10,-18,47,390,-80,-81,-288,334,929,325,-94,-280,283,1442,-277,-161,-196,-196,-502,26238
160,30,-6,-14,18,-4,177,-32,-143,-83,3,37,0,-176,41,197,-56,-21,-166,128,488,118,-76,-131,59,877,-120,-89,-133,-116,-50,26239
-82,-29,25,-45,-39,-50,-103,-221,-92,-79,-47,9,185,-266,40,-23,-47,12,-23,-82,7,-86,-70,5,-136,213,16,-17,-59,-24,147,26240
-68,-19,26,-32,-26,-30,-101,-126,18,14,157,-13,154,-122,76,-32,-48,7,-7,-82,13,-92,-54,2,-116,145,6,-21,-33,-6,70,26241
-63,-22,25,-36,-24,-28,-88,-55,84,31,-51,-17,44,37,30,-8,0,41,30,-65,46,-71,-6,36,-98,114,45,30,6,45,106,26242
-172,-43,30,-49,-58,-71,-191,-4,85,47,-121,-71,-112,80,-6,-84,25,79,68,-135,-145,-142,-12,107,-180,-181,122,61,45,98,258,26243
-154,-22,32,-28,-40,-54,-160,-79,66,30,-188,47,-199,110,-89,-75,34,86,120,-115,-124,-121,20,121,-159,-195,129,98,71,118,227,26244
-2,5,22,0,6,-7,-4,113,47,28,-62,139,59,221,-41,32,29,55,74,-2,122,-1,29,57,-36,109,52,73,40,84,0,26245
267,60,-8,26,81,70,259,148,-125,-115,39,95,-66,106,-31,220,-30,-37,-138,177,599,168,-52,-146,131,783,-152,-62,-93,-72,-369,26246
277,53,-14,19,73,63,248,233,-175,-21,-19,29,-29,16,-8,212,-78,-78,-209,167,632,160,-87,-202,103,872,-203,-121,-152,-130,-396,26247
204,41,-19,4,43,32,182,129,-143,-8,-197,22,-307,254,-6,178,-49,-48,-157,129,520,130,-47,-155,49,768,-152,-86,-126,-108,-232,26248
59,10,8,-16,17,6,9,140,-17,-102,3,-10,-90,-56,-7,50,-48,-26,-93,19,214,13,-48,-75,-79,408,-77,-58,-84,-69,-82,26249
-47,-18,36,-26,-6,-8,-115,-42,97,-85,77,-115,412,-283,-94,-32,-10,20,-12,-42,-42,-62,-28,22,-141,88,12,-12,-22,-1,58,26250
-63,-18,41,-7,-18,-20,-90,-260,214,62,58,-143,12,-269,-99,-19,-9,40,25,-25,-74,-43,-16,42,-108,48,43,13,18,25,131,26251
-84,-25,18,-9,-30,-39,-76,-124,168,-44,-100,-65,-128,-177,-60,-29,-2,29,46,-24,-104,-37,-16,53,-85,20,52,21,24,21,108,26252
-61,-8,3,-3,-31,-58,-41,37,123,-140,-67,-13,-170,118,32,-8,10,30,27,-1,-69,-25,-16,57,-48,61,47,24,26,25,92,26253
-73,-13,-10,-19,-48,-55,-72,-31,69,-29,-22,2,-304,27,22,-16,12,34,29,-10,-106,-47,-16,50,-56,21,36,29,24,20,30,26254
-88,-25,1,-32,-37,-37,-106,85,112,23,59,8,-397,31,6,-47,8,22,49,-51,-172,-83,-8,62,-75,-61,39,25,23,9,53,26255
-29,-16,12,-24,-10,-21,-52,52,39,-70,-41,22,16,125,-40,-14,-8,1,36,-23,-75,-27,2,26,-20,59,9,14,7,-7,-6,26256
11,-6,5,-24,-6,-9,2,-33,12,28,-47,-70,96,-50,50,28,-22,3,-22,6,33,0,-19,-30,12,181,-38,-13,-29,-45,-99,26257
51,5,18,-12,23,32,33,102,33,10,-52,-100,-12,107,18,63,-26,7,-45,32,96,11,-32,-30,28,266,-51,-13,-35,-47,-115,26258
-30,-27,6,-37,-26,-25,-66,57,40,63,-39,-51,-125,12,-43,-25,-35,9,-39,-46,-51,-56,-46,-11,-64,78,-18,-13,-34,-34,34,26259
-141,-36,20,-36,-46,-49,-157,9,-49,-15,81,-62,141,-68,-83,-89,3,56,57,-118,-234,-122,-3,75,-126,-194,69,63,39,28,186,26260
-98,-11,26,-13,-14,-24,-112,-126,-39,-114,-89,-86,145,-86,-62,-60,26,55,73,-86,-186,-96,20,74,-91,-162,65,76,46,46,154,26261
-68,-24,5,-25,-12,-34,-97,-77,1,-155,-239,-64,269,-92,10,-52,-7,8,13,-90,-119,-100,-24,18,-103,-98,7,26,-5,9,45,26262
14,-2,23,0,12,13,-20,37,64,119,-195,-56,-36,-82,-3,-11,-29,-11,-25,-55,7,-42,-32,-19,-54,57,-22,-3,-26,-11,-9,26263
90,26,29,23,41,44,66,-11,-62,47,68,54,-96,26,90,47,-21,2,-46,18,163,19,-37,-44,3,243,-45,-9,-32,-8,-74,26264
-44,-10,20,-19,-6,-6,-73,-116,-164,-87,-39,37,-70,-41,64,-54,-5,21,15,-75,-46,-72,-27,34,-102,-16,21,29,-7,28,103,26265
-80,-46,10,-44,-19,-20,-111,-2,-159,21,-2,-40,16,-53,-14,-86,-19,3,27,-94,-112,-89,-30,32,-126,-123,20,18,-11,15,23,26266
13,-12,14,-6,16,17,-32,-42,103,35,60,32,255,-123,22,-15,-30,-14,-28,-11,49,-15,-22,-33,-49,80,-43,-23,-42,-30,-60,26267
40,1,11,-12,24,21,-49,-140,41,24,52,-61,100,-99,63,25,-3,4,-12,25,91,15,-2,-18,-6,145,-31,-3,-26,-14,-98,26268
47,4,4,-15,13,10,-58,-82,76,213,111,-76,47,-101,29,35,6,24,6,44,106,38,1,13,18,178,-3,16,0,17,0,26269
50,13,-8,-5,10,-9,-32,-102,66,142,350,50,-237,8,29,70,33,48,21,76,140,63,31,26,52,222,24,31,26,28,9,26270
43,22,-9,7,9,-28,19,-266,23,12,172,49,-324,107,37,98,78,81,36,92,155,85,67,47,75,222,58,64,50,44,54,26271
-21,5,-7,4,-9,-53,3,36,102,41,-50,-48,-337,337,-87,42,68,77,76,52,39,44,63,76,32,91,72,74,60,61,148,26272
-30,18,14,19,5,-28,22,166,29,4,-95,-60,-141,102,-140,7,25,40,50,17,-8,5,5,52,11,41,58,27,29,46,122,26273
-40,-2,-3,0,-15,-36,-8,190,-42,-55,-32,-115,-145,-132,-81,-29,-16,-2,-15,-22,-51,-36,-36,2,-20,10,7,-17,-17,-6,76,26274
-6,-2,5,2,-3,-21,-5,176,-85,-1,-96,-145,-10,-19,-75,-13,-17,-9,-29,-8,-15,-16,-18,-19,-3,60,-22,-14,-27,-21,-49,26275
-59,-11,9,-5,-20,-26,-56,126,0,40,-277,-162,448,-136,32,-57,-3,18,39,-46,-109,-50,0,40,-32,-83,37,24,11,17,68,26276
3,19,10,6,4,2,25,30,22,4,-267,-7,-122,-56,19,-6,-9,8,2,6,19,-5,1,2,19,77,-2,9,-1,-2,-24,26277
51,32,3,22,16,10,102,-9,-45,-6,-280,157,-108,-118,19,67,9,21,-12,69,146,52,7,-16,75,238,-18,18,-8,-11,-88,26278
0,12,7,-1,-11,-19,48,-112,-90,-41,-182,98,-54,-51,-65,46,11,35,9,44,67,26,2,13,38,147,18,28,2,5,20,26279
-67,-12,20,-10,-13,-22,-59,-92,-62,26,-110,-37,-63,92,-72,-35,1,15,3,-52,-97,-59,-13,17,-50,-51,17,9,-7,-7,34,26280
-36,-15,19,-11,6,5,-56,-81,-31,-3,-46,-9,14,-6,-86,-51,-9,-1,-10,-65,-97,-65,-12,4,-56,-43,-1,3,-20,-19,55,26281
-17,-13,-2,-10,-9,-13,-28,-71,-130,39,24,-46,60,68,-45,-16,0,20,25,-28,-57,-30,21,25,-26,9,19,37,5,9,8,26282
-8,3,-6,4,-4,-25,8,-43,-83,264,-93,-1,1,-105,81,25,31,48,65,3,-26,0,59,53,3,53,48,66,34,34,-4,26283
-51,-21,16,-9,-18,-37,-40,71,13,264,-35,-54,36,-79,80,-25,-1,26,7,-48,-111,-55,-2,29,-63,-46,30,19,-6,0,50,26284
-49,-20,10,-18,-29,-30,-52,-49,14,79,-8,-56,52,-181,-4,-47,-28,-7,-34,-62,-103,-72,-37,-8,-68,-59,-4,-18,-32,-27,-15,26285
189,34,-28,16,38,31,214,113,55,71,148,106,128,187,82,164,-17,-26,-121,145,361,128,-14,-118,147,550,-126,-55,-84,-66,-348,26286
261,46,-45,7,61,55,298,191,-42,-13,151,124,300,363,91,249,-17,-31,-157,217,565,206,-5,-163,210,835,-160,-73,-122,-98,-384,26287
276,72,-20,36,71,83,323,191,-78,43,197,35,389,239,95,243,-48,-54,-187,210,597,204,-40,-195,201,895,-186,-103,-159,-126,-372,26288
86,25,10,1,18,39,110,26,173,-54,146,-95,503,-90,22,60,-67,-41,-127,45,244,26,-75,-117,19,440,-104,-85,-129,-95,-121,26289
-96,-19,21,-43,-39,-26,-71,-192,142,37,-236,0,-133,-127,-28,-61,-22,19,13,-74,-83,-96,-37,26,-101,-23,26,-11,-18,-3,175,26290
-62,-17,2,-22,-26,-28,-31,-45,116,-97,-215,60,-401,51,-9,-17,15,42,56,-32,-34,-48,3,53,-33,22,53,25,19,39,122,26291
-11,-6,-13,1,-13,-17,0,121,-69,-159,-2,-23,-217,13,-32,4,3,7,43,7,71,-3,5,4,19,144,5,10,-14,15,18,26292
23,2,21,9,14,15,-3,-3,-77,62,12,-103,-66,-15,-31,2,-31,-21,-6,-2,105,-9,-30,-39,23,186,-28,-45,-61,-27,-26,26293
2,10,44,13,24,28,-35,38,-38,7,9,-38,-49,-13,-39,-20,-25,-6,-4,-30,38,-22,-32,-20,5,98,-8,-43,-46,-14,18,26294
28,22,22,21,23,25,6,16,-104,-69,-53,-16,-428,-129,-38,13,-21,-1,-19,-1,94,8,-16,-36,40,175,-16,-27,-36,-9,1,26295
366,83,-40,66,92,79,379,218,-127,-46,89,102,-174,-117,96,279,-62,-88,-199,251,740,263,-60,-245,319,1018,-231,-129,-158,-136,-537,26296
568,138,-61,85,138,122,615,449,-13,73,255,275,243,-68,87,449,-99,-142,-362,403,1195,405,-110,-407,442,1667,-387,-229,-286,-258,-747,26297
470,116,-75,41,86,66,522,382,-32,-12,481,190,-74,-33,29,392,-99,-116,-339,337,1082,329,-111,-369,342,1580,-341,-204,-277,-247,-570,26298
