63,14,6,16,20,26,49,72,26,140,-4,-92,32,-97,18,31,-4,-17,-6,97,124,65,-22,10,47,41,-7,-33,-27,-12,-9,69760
-38,-2,-10,-12,-18,-19,-49,-21,89,-31,-168,-63,7,-159,33,-6,44,48,82,49,-56,9,23,90,8,-189,76,39,46,52,111,69761
-45,3,-23,-21,-24,-22,-35,-51,72,-95,-84,-53,4,-110,13,15,69,59,130,71,-55,18,64,119,45,-181,100,90,88,87,95,69762
-152,-14,28,-14,-27,-27,-170,-72,33,-245,1,-44,148,-231,-100,-117,52,57,159,-84,-375,-132,49,159,-86,-563,148,100,105,88,272,69763
-248,-55,40,-28,-59,-50,-291,-121,10,-184,39,-57,91,-127,-104,-231,35,49,147,-206,-639,-242,27,162,-199,-923,160,83,102,65,326,69764
-121,-23,15,-4,-34,-17,-127,70,2,-110,-70,-21,-116,111,-120,-118,44,30,89,-77,-362,-100,33,107,-66,-624,92,47,70,48,136,69765
-120,-10,18,1,-17,-4,-104,-83,-5,-54,-130,-32,-109,8,-90,-113,54,25,114,-67,-348,-97,48,122,-61,-613,102,69,81,64,189,69766
-160,-18,15,-2,-23,-24,-153,-63,-71,-22,-224,-76,13,-104,-54,-155,54,38,173,-82,-424,-125,63,171,-76,-746,148,96,119,108,224,69767
-135,-26,-5,-13,-34,-38,-144,-174,-75,-80,-34,-130,132,-143,15,-139,38,29,145,-44,-362,-97,37,139,-40,-672,121,58,97,103,182,69768
115,43,-29,32,33,25,159,22,21,-167,338,32,118,166,78,107,40,9,35,189,206,175,55,23,217,36,2,12,32,46,-133,69769
216,58,-30,38,59,32,279,203,30,-102,378,112,33,161,85,211,42,3,-19,282,478,285,47,-35,295,403,-44,-6,-3,9,-243,69770
160,30,-8,14,53,44,154,169,-42,67,42,53,114,103,18,111,-15,-36,-66,175,359,195,-1,-72,178,265,-71,-55,-58,-28,-209,69771
145,21,10,6,57,76,75,149,110,22,13,4,35,-77,-12,54,-40,-52,-83,114,273,145,-15,-74,118,151,-78,-71,-71,-45,-181,69772
256,35,-22,14,78,98,218,253,31,-11,157,-15,50,-156,-19,132,-67,-104,-153,216,526,251,-52,-168,213,491,-168,-126,-132,-103,-339,69773
160,29,-11,14,44,59,153,134,4,-85,145,26,-37,-264,-4,81,-56,-89,-124,141,381,172,-53,-127,116,338,-114,-109,-115,-82,-207,69774
-245,-42,37,-38,-84,-62,-240,-103,114,126,-132,-119,114,-334,-19,-210,20,27,105,-142,-376,-135,-4,133,-189,-664,144,40,54,82,406,69775
-578,-133,74,-76,-164,-149,-582,-462,152,59,-400,-224,75,-388,-56,-458,99,120,364,-339,-1070,-379,58,393,-385,-1627,374,207,253,269,810,69776
-542,-132,57,-64,-140,-134,-553,-419,142,134,-395,-123,187,-278,-66,-445,113,123,403,-302,-1116,-368,94,416,-313,-1721,388,225,296,308,655,69777
-342,-68,41,-23,-60,-56,-338,-224,102,143,-267,-16,134,-91,-42,-289,105,102,325,-159,-775,-225,109,310,-133,-1291,280,186,243,255,383,69778
-57,2,-11,13,8,9,-60,105,161,266,356,59,63,77,62,-78,58,37,149,-24,-304,-42,83,112,47,-609,94,88,108,109,-19,69779
56,27,-33,40,34,30,45,29,-31,180,236,104,-36,147,65,1,26,-2,64,33,-82,21,37,25,96,-284,9,33,33,26,-141,69780
129,39,-31,40,57,53,117,77,-98,109,122,15,-30,155,-52,53,-4,-45,-29,86,100,69,-8,-42,126,-33,-53,-24,-29,-17,-209,69781
72,10,-14,12,38,38,63,42,-110,34,9,36,116,72,-98,12,6,-31,-51,26,3,23,-4,-38,60,-127,-33,-37,-43,-7,-98,69782
-72,-21,17,-2,-4,-2,-93,6,27,7,-5,86,47,-235,39,-84,47,35,47,-94,-300,-101,36,75,-50,-500,93,40,36,59,159,69783
-173,-39,26,-7,-33,-33,-197,-164,82,-88,-16,17,-37,-145,1,-149,92,82,156,-149,-521,-175,89,165,-102,-827,179,126,115,113,279,69784
-428,-105,36,-58,-111,-101,-446,-335,103,-280,-271,-187,102,-162,-32,-337,110,125,303,-296,-955,-336,121,319,-267,-1432,300,204,218,191,636,69785
-749,-175,91,-78,-175,-150,-810,-487,111,-225,-554,-421,-67,-276,-120,-604,188,220,583,-478,-1641,-555,196,599,-450,-2415,560,374,427,400,1094,69786
-774,-180,94,-70,-166,-142,-867,-567,98,-171,-692,-350,-146,-156,-165,-671,173,201,591,-511,-1812,-601,174,608,-472,-2718,571,369,453,411,1031,69787
-611,-148,81,-32,-116,-81,-678,-564,116,-209,-482,-213,45,-127,-20,-564,138,146,501,-395,-1574,-483,154,496,-333,-2470,445,304,398,347,720,69788
29,-4,-21,57,49,56,59,-73,-75,115,217,151,73,172,77,-79,39,-29,97,33,-305,31,82,48,155,-814,9,58,97,79,-273,69789
342,78,-80,82,99,93,421,174,-58,161,367,343,-52,49,83,195,-15,-96,-132,302,458,319,29,-168,369,191,-185,-82,-75,-65,-596,69790
403,84,-103,73,105,99,476,384,-72,161,311,246,-208,166,62,268,-51,-111,-194,366,700,393,-5,-222,404,542,-231,-130,-122,-110,-600,69791
394,79,-84,69,112,99,455,397,-84,116,254,228,-136,289,74,272,-68,-118,-218,381,765,397,-47,-240,381,654,-241,-142,-148,-123,-539,69792
235,33,-42,29,70,67,236,151,-65,94,132,102,-46,172,87,120,-84,-102,-174,199,428,203,-57,-183,193,270,-175,-118,-138,-121,-304,69793
131,33,-2,39,54,60,141,155,51,39,-12,81,13,195,42,52,-36,-47,-85,119,210,122,-21,-89,110,5,-82,-61,-72,-65,-140,69794
-360,-82,44,-25,-79,-69,-364,-197,91,197,-403,-144,-7,-102,-106,-311,46,93,208,-193,-696,-239,46,236,-248,-1219,232,119,144,143,648,69795
-998,-228,118,-105,-235,-211,-1052,-726,191,-3,-712,-456,-37,-306,-264,-814,206,282,665,-606,-2040,-723,183,728,-665,-3058,684,412,499,471,1523,69796
-969,-218,124,-67,-210,-180,-1019,-548,348,-63,-528,-283,-235,-210,-254,-793,256,297,789,-552,-2137,-674,257,807,-542,-3286,733,493,607,570,1393,69797
-524,-116,40,15,-94,-76,-532,-175,162,-25,-181,-102,-142,-127,-81,-476,175,159,537,-254,-1338,-337,194,510,-174,-2274,433,323,425,415,559,69798
174,30,-88,84,56,59,262,102,15,36,181,241,101,91,62,79,42,-35,28,214,93,207,85,-18,331,-340,-51,9,61,72,-450,69799
345,68,-120,67,88,77,455,98,-6,63,356,324,13,392,103,264,4,-75,-119,333,585,363,37,-151,427,336,-165,-63,-57,-42,-581,69800
422,90,-102,67,110,94,510,198,-52,-64,307,171,4,436,74,311,-30,-110,-169,375,805,405,0,-206,443,657,-223,-99,-122,-77,-656,69801
424,86,-97,49,116,98,479,182,-140,0,60,166,-65,261,141,296,-70,-137,-250,332,867,376,-53,-267,388,786,-267,-164,-194,-129,-643,69802
318,72,-59,41,87,83,334,404,4,116,103,76,22,251,80,209,-58,-93,-195,224,648,288,-34,-201,273,541,-193,-119,-154,-102,-424,69803
173,31,-27,13,47,43,185,283,179,6,24,35,63,-97,-22,115,-30,-50,-123,110,376,168,-14,-120,153,204,-113,-69,-98,-78,-189,69804
-130,-34,16,-28,-41,-28,-146,-2,69,85,-61,-30,135,-202,-57,-106,29,34,72,-67,-180,-49,32,97,-63,-553,88,40,53,71,281,69805
-571,-137,68,-73,-151,-132,-639,-314,36,-9,-539,-276,-29,-369,-57,-447,117,150,388,-327,-1078,-367,109,437,-350,-1780,408,230,292,323,918,69806
-675,-150,93,-50,-145,-135,-747,-289,201,99,-597,-282,-11,-294,-85,-559,155,187,528,-387,-1406,-454,154,555,-390,-2289,522,329,402,413,985,69807
-286,-63,20,-2,-50,-39,-294,117,96,268,-53,-20,-70,64,-63,-245,115,91,346,-40,-650,-110,129,325,-15,-1337,277,208,281,310,265,69808
323,60,-68,68,89,95,380,353,-9,188,371,286,-84,347,87,232,-15,-75,-95,356,546,336,19,-135,412,323,-158,-69,-39,6,-583,69809
314,60,-68,55,79,79,354,419,-157,101,190,150,-96,194,84,222,-32,-77,-164,290,535,286,-6,-163,320,399,-176,-96,-99,-62,-449,69810
319,66,-80,43,74,78,370,147,-149,2,366,157,-134,211,41,246,-29,-60,-164,306,585,288,2,-160,305,497,-176,-83,-106,-74,-408,69811
222,55,-47,36,58,73,263,51,-115,-35,103,144,-132,99,63,189,2,-21,-85,238,409,219,18,-86,234,300,-97,-37,-58,-31,-236,69812
193,38,-22,35,54,79,212,-6,-97,-39,31,5,-62,-68,57,118,-55,-76,-136,173,314,138,-37,-135,164,216,-143,-96,-117,-83,-246,69813
87,13,-6,12,24,41,74,-44,-174,124,68,12,-23,-66,49,4,-78,-78,-116,64,79,10,-57,-102,38,-66,-106,-89,-91,-81,-85,69814
-193,-46,17,-28,-59,-36,-219,-209,-16,163,21,-31,92,-130,-5,-180,13,38,94,-112,-443,-171,11,126,-151,-781,119,57,62,68,399,69815
-678,-153,66,-80,-185,-163,-728,-513,136,60,-417,-273,-63,-241,-174,-509,162,224,480,-388,-1378,-468,153,525,-429,-2121,505,307,365,356,1106,69816
-661,-144,66,-40,-151,-129,-715,-398,154,93,-487,-282,131,-209,-86,-493,193,232,559,-344,-1423,-427,211,569,-339,-2265,534,362,442,426,962,69817
-331,-77,39,9,-47,-14,-381,-180,-34,121,-106,22,81,156,-6,-265,137,139,384,-137,-858,-172,168,369,-75,-1560,334,255,321,298,408,69818
84,19,-33,42,50,70,79,186,-108,37,155,190,-78,239,47,37,25,-9,34,102,-3,132,67,19,203,-433,2,36,73,54,-249,69819
167,34,-49,29,56,70,184,238,-89,37,20,214,-14,306,9,95,-30,-53,-120,120,249,180,19,-119,209,-103,-113,-48,-40,-60,-330,69820
128,14,-17,16,40,64,100,214,-69,174,46,200,44,288,9,33,-47,-55,-123,33,167,115,-18,-120,113,-196,-100,-66,-72,-84,-242,69821
114,18,-7,23,49,66,115,204,-196,25,149,150,64,217,77,18,-70,-63,-103,11,156,99,-36,-119,91,-204,-94,-64,-86,-98,-178,69822
164,33,-38,30,53,68,221,244,-187,-239,105,32,68,184,58,75,-58,-70,-138,82,331,177,-34,-147,141,-23,-138,-90,-106,-100,-227,69823
285,79,-47,57,91,99,377,272,-86,-72,-29,73,54,222,114,181,-55,-86,-196,198,612,297,-41,-198,234,355,-201,-132,-142,-109,-358,69824
247,63,-46,42,73,79,330,85,-146,-15,67,77,-159,201,29,176,-40,-65,-157,187,574,273,-16,-158,215,356,-160,-100,-116,-82,-318,69825
291,71,-54,34,68,71,375,161,-56,-15,249,116,-97,180,37,199,-96,-115,-255,199,667,277,-74,-242,208,530,-223,-167,-187,-154,-458,69826
260,46,-52,29,53,71,308,197,-26,-62,270,27,19,36,41,170,-107,-113,-266,163,623,236,-93,-257,168,516,-246,-181,-198,-170,-398,69827
149,24,-39,19,19,25,195,215,34,47,75,23,72,13,22,117,-33,-36,-119,108,390,150,-13,-117,99,247,-111,-69,-97,-79,-129,69828
-24,10,-2,7,-8,-9,21,252,24,-1,-183,6,172,-141,-18,0,14,29,30,4,6,2,33,37,-13,-219,45,29,14,16,169,69829
-162,-29,23,-8,-37,-20,-142,-32,41,-94,-194,-87,176,-164,0,-135,4,37,70,-114,-359,-147,24,95,-132,-653,98,58,46,50,316,69830
-85,-12,13,10,-12,-3,-68,-78,91,-87,6,33,69,2,35,-79,16,32,49,-59,-316,-125,37,81,-63,-563,68,48,52,36,180,69831
-38,2,-22,16,-16,-21,0,17,48,-43,20,-22,153,17,102,-18,39,37,56,14,-220,-92,48,78,9,-428,61,63,67,49,92,69832
57,17,-34,15,7,13,122,-52,-25,-20,105,-2,7,66,72,65,7,-2,-20,103,-4,-11,8,-7,82,-125,-19,1,-2,0,-104,69833
181,41,-24,23,56,56,234,-103,-51,99,235,127,-80,111,61,137,-34,-41,-113,176,240,70,-29,-102,159,212,-112,-68,-71,-54,-292,69834
39,-1,-6,-6,17,21,67,88,-27,-124,111,-33,-30,-164,-8,40,-16,-3,-32,70,0,-14,-9,-14,45,-85,-17,-24,-19,-10,-13,69835
-91,-10,19,-6,-12,-7,-83,28,0,0,-19,-60,61,-10,-20,-45,47,68,86,-1,-233,-79,52,111,-28,-443,113,67,81,88,217,69836
-182,-44,18,-31,-47,-32,-204,-71,-4,42,-38,-120,-50,-29,-66,-131,62,84,147,-81,-410,-125,65,175,-93,-723,158,107,129,122,355,69837
-118,-27,23,-5,-22,-8,-120,154,-21,-14,-254,-51,-308,35,-20,-95,63,66,121,-53,-309,-42,73,139,-36,-647,113,94,124,104,190,69838
43,7,-39,11,5,-2,108,224,-117,0,-231,128,-246,215,61,31,8,-2,-8,46,70,99,29,-4,91,-208,-32,10,10,10,-135,69839
111,31,-62,27,17,3,227,177,-29,49,19,135,-27,102,97,109,5,0,-65,113,289,195,29,-53,156,34,-63,-18,-18,-28,-172,69840
108,19,-40,31,37,14,213,-63,-24,72,-8,11,-2,163,93,62,-56,-54,-140,77,314,180,-38,-107,97,46,-109,-86,-80,-85,-197,69841
118,26,-43,36,31,10,177,90,65,-16,86,23,55,156,53,41,-89,-82,-173,61,333,178,-82,-134,71,67,-147,-128,-113,-100,-238,69842
100,36,-40,24,19,-4,163,-99,50,3,118,31,21,96,44,102,16,13,-47,120,377,243,28,-29,129,105,-51,-9,-10,0,-112,69843
23,13,-32,5,-1,-12,76,-83,0,55,44,-12,18,42,17,57,32,19,25,67,214,171,45,31,76,-89,9,34,36,33,-36,69844
46,14,-13,12,20,10,83,46,-56,80,197,22,72,97,81,50,-5,1,-24,56,207,147,-2,-12,61,-91,-22,-5,-5,-7,-49,69845
211,49,-36,26,55,45,242,119,72,30,78,230,108,215,78,190,-2,4,-90,172,507,270,12,-91,194,317,-100,-43,-46,-60,-265,69846
445,100,-71,60,103,92,501,269,204,25,163,277,227,87,57,393,-21,-44,-223,366,1003,466,-5,-234,376,1017,-231,-121,-142,-143,-512,69847
327,57,-46,22,70,70,332,355,-54,97,-63,142,-68,-79,-43,257,-80,-91,-275,200,749,282,-82,-252,197,792,-230,-165,-203,-187,-365,69848
-36,-28,10,-31,-20,-12,-68,-5,-77,129,-215,-103,4,-245,-59,-60,-52,-39,-105,-75,-23,-72,-66,-54,-109,-135,-43,-70,-75,-76,50,69849
-56,-13,21,2,-13,-17,-56,-7,69,234,-66,-45,31,-126,61,-54,-17,4,-31,-57,-150,-115,-29,4,-84,-247,13,-18,-14,-15,100,69850
-47,-7,11,4,-16,-28,-24,19,20,77,56,20,38,-137,121,-38,-13,6,-12,-48,-192,-153,-27,1,-65,-258,4,-6,-12,-19,78,69851
-63,-23,-4,-16,-32,-43,-20,-21,-61,76,116,67,172,-17,84,-44,-23,-12,-19,-59,-234,-184,-24,-14,-66,-266,-9,-14,-18,-30,61,69852
-83,-15,2,-2,-44,-49,-49,208,-30,-45,-164,86,-54,134,50,-47,12,36,41,-61,-332,-206,19,58,-71,-370,52,36,36,20,65,69853
2,-8,-5,0,-19,-22,15,176,-71,8,-87,4,77,141,55,-4,-14,1,-21,-21,-203,-151,-15,-10,-17,-202,-11,0,-4,-20,-35,69854
261,47,-15,42,77,81,254,-1,-155,-4,121,62,140,250,15,177,-50,-65,-158,163,294,71,-43,-167,174,412,-171,-93,-100,-107,-423,69855
829,186,-93,112,222,217,878,576,-220,-58,475,365,96,275,166,641,-150,-213,-529,580,1543,566,-131,-558,598,2044,-545,-336,-374,-352,-1240,69856
904,213,-129,98,212,193,1003,685,-290,-88,594,400,5,346,203,731,-172,-234,-638,650,1926,697,-167,-652,628,2569,-622,-394,-466,-424,-1258,69857
769,202,-107,89,158,137,902,477,-218,-75,463,318,139,299,64,696,-109,-153,-533,619,1863,698,-132,-522,546,2449,-484,-321,-394,-329,-944,69858
393,106,-25,27,78,53,472,185,-51,-76,162,-21,27,35,26,400,-45,-56,-275,390,1219,443,-96,-248,268,1544,-220,-185,-215,-133,-329,69859
173,41,11,-17,28,10,215,34,19,-77,57,-186,56,-227,-18,206,-38,-33,-165,220,770,260,-93,-132,88,945,-111,-133,-137,-53,-64,69860
-46,-9,29,-51,-43,-39,-29,-215,116,-62,-78,-100,39,-392,-29,51,16,37,-29,29,291,80,-32,-4,-74,314,22,-38,-30,8,184,69861
-67,-2,27,-37,-50,-40,-63,-218,103,-13,-77,-128,-72,-258,-13,15,31,40,12,19,207,70,-23,21,-76,162,33,-3,5,7,178,69862
-60,-7,21,-20,-35,-34,-91,-43,-49,7,-75,-123,-106,-167,16,-36,-43,-29,-66,-19,165,29,-97,-51,-119,95,-42,-73,-58,-59,46,69863
73,25,24,3,14,14,38,71,-71,175,67,6,10,-47,85,70,-43,-28,-92,87,395,146,-82,-94,4,385,-80,-84,-74,-65,-109,69864
365,97,2,48,103,91,376,187,-5,250,356,47,-62,170,64,322,-46,-68,-210,302,933,377,-80,-247,241,1114,-215,-156,-157,-142,-493,69865
513,118,-49,51,113,103,532,326,-75,47,660,161,-13,99,104,438,-94,-120,-360,361,1243,450,-129,-397,312,1602,-345,-238,-271,-267,-685,69866
500,131,-51,43,105,82,543,248,-4,-51,315,229,-219,182,162,454,-90,-103,-379,343,1249,426,-121,-394,290,1703,-345,-232,-284,-257,-622,69867
339,108,-34,21,66,33,401,198,27,-126,219,118,-213,347,45,339,-76,-75,-344,211,954,268,-124,-325,146,1383,-264,-210,-254,-236,-349,69868
-76,-3,18,-46,-41,-49,-54,-133,102,-193,-115,-102,-130,-26,-67,30,-2,25,-83,-60,143,-68,-88,-47,-153,337,1,-55,-70,-64,223,69869
-237,-43,49,-61,-73,-64,-261,-277,-23,-178,-298,-222,-64,78,-90,-107,53,88,87,-182,-295,-237,-18,112,-236,-210,140,58,60,59,436,69870
-303,-59,73,-53,-78,-62,-340,-301,-46,-161,-433,-212,74,57,-36,-188,57,98,157,-269,-556,-339,7,156,-276,-525,192,87,104,94,446,69871
-289,-56,71,-56,-68,-58,-322,-246,11,-106,-380,-201,136,-52,2,-190,59,88,148,-295,-614,-355,28,141,-272,-621,182,99,103,77,365,69872
-34,0,22,-10,-13,-11,-27,36,-53,-75,-94,61,63,-89,-52,25,40,37,37,-41,-58,-95,7,13,-20,40,40,24,42,37,-10,69873
83,31,2,1,10,13,94,6,-64,-147,-35,90,37,-138,-26,117,9,-5,-32,69,214,4,-24,-56,92,400,-36,-33,-16,13,-146,69874
600,153,-68,77,142,113,658,449,-96,-90,334,179,28,196,182,516,-62,-130,-344,409,1191,409,-72,-397,473,1753,-358,-205,-237,-205,-955,69875
1218,278,-177,129,270,213,1357,973,-149,-103,882,377,43,419,334,1025,-218,-318,-834,790,2551,896,-215,-913,850,3615,-828,-498,-612,-562,-1803,69876
1216,293,-158,117,260,195,1338,774,-184,82,740,401,110,410,292,1046,-225,-281,-909,775,2707,910,-238,-957,752,3875,-843,-546,-678,-623,-1648,69877
707,160,-84,5,121,74,753,465,-134,84,468,60,112,1,109,635,-196,-198,-731,374,1790,473,-244,-712,280,2745,-598,-447,-564,-528,-818,69878
-310,-68,93,-119,-113,-129,-384,-380,84,2,-300,-316,58,-391,-100,-176,-43,49,-60,-331,-271,-324,-113,-5,-491,-16,80,-32,-80,-95,670,69879
-490,-89,141,-75,-136,-132,-580,-477,84,-73,-419,-318,-22,-438,-55,-351,41,113,194,-426,-821,-449,-30,203,-548,-821,258,111,117,79,797,69880
-403,-65,107,-49,-106,-109,-445,-189,12,27,-283,-161,-14,-327,-88,-257,56,115,194,-298,-678,-326,-2,175,-401,-729,218,102,135,84,616,69881
-344,-56,93,-33,-88,-82,-376,-100,172,85,-298,-173,20,-259,-28,-187,88,143,226,-205,-601,-243,51,192,-310,-677,213,148,181,115,536,69882
-340,-70,95,-45,-81,-73,-377,-225,175,204,-333,-130,-40,-267,-66,-195,97,132,257,-207,-641,-260,67,210,-287,-742,227,169,190,125,484,69883
-294,-78,85,-56,-70,-56,-361,-339,124,-90,-157,-62,-89,-35,-47,-210,52,93,205,-207,-627,-251,27,148,-277,-732,180,118,149,79,380,69884
-94,-37,34,-27,-22,-5,-161,-57,129,-241,104,19,-24,-3,-19,-97,-27,0,-14,-124,-299,-143,-61,-49,-168,-290,3,-11,8,-54,10,69885
141,33,-1,16,45,50,106,149,51,60,220,5,-87,30,35,101,-38,-48,-145,24,161,26,-53,-205,3,331,-143,-85,-93,-162,-276,69886
458,107,-48,51,118,96,479,343,-190,163,368,197,226,101,143,363,-105,-138,-377,192,796,249,-113,-448,225,1232,-378,-225,-259,-332,-759,69887
331,76,-22,12,80,58,343,110,-124,-98,121,108,201,-41,119,246,-129,-109,-385,13,579,115,-149,-429,35,1001,-316,-220,-279,-363,-453,69888
-420,-97,83,-93,-114,-114,-504,-540,78,-218,-498,-202,-33,-253,-101,-354,-16,64,95,-491,-849,-465,-56,87,-531,-981,178,63,48,-45,648,69889
-504,-131,97,-87,-121,-118,-587,-598,137,-161,-384,-202,74,-196,-134,-452,9,60,186,-543,-1092,-531,-30,158,-534,-1365,224,85,125,41,620,69890
-480,-124,96,-67,-111,-107,-570,-411,135,12,-439,-216,-59,-280,-166,-458,21,54,208,-552,-1124,-503,-9,173,-491,-1443,216,99,150,65,579,69891
-476,-122,83,-53,-108,-113,-552,-250,157,201,-191,-268,-195,-280,-154,-462,15,54,225,-546,-1126,-476,-7,178,-465,-1509,215,119,155,68,564,69892
-487,-110,89,-49,-95,-106,-564,-158,220,229,-311,-196,14,-287,-116,-455,57,95,251,-542,-1157,-460,32,219,-430,-1612,260,159,200,106,595,69893
-364,-78,68,-17,-56,-66,-414,-111,316,-13,-370,-137,88,47,-139,-325,101,112,286,-404,-935,-310,104,220,-279,-1384,248,195,226,137,455,69894
167,49,-4,58,77,58,187,200,29,24,231,189,-141,517,36,92,9,-37,-31,0,117,103,34,-129,137,-18,-96,1,-3,-80,-404,69895
812,171,-114,104,223,199,901,669,-247,-53,719,445,-128,591,206,594,-148,-252,-553,435,1488,582,-122,-655,572,1867,-601,-325,-393,-441,-1403,69896
1229,258,-171,108,292,266,1360,1045,-285,-50,999,534,-48,521,288,973,-225,-325,-883,734,2459,905,-206,-976,812,3274,-882,-515,-644,-671,-1823,69897
713,154,-89,22,147,130,777,586,-14,-160,489,204,-99,89,148,609,-184,-191,-651,397,1600,495,-198,-673,346,2230,-568,-370,-496,-512,-854,69898
-230,-55,60,-94,-84,-81,-274,-388,136,-214,-285,-272,80,-425,-118,-138,-34,40,-44,-229,-296,-258,-75,-21,-374,-235,56,-11,-68,-94,534,69899
-439,-106,99,-75,-118,-116,-532,-456,214,-63,-516,-314,1,-492,-118,-346,40,94,199,-363,-922,-455,0,196,-480,-1074,241,107,120,81,698,69900
-325,-60,74,-28,-77,-85,-375,-138,112,-51,-204,-180,-17,-521,-78,-252,64,87,196,-221,-771,-347,39,175,-320,-901,202,116,149,97,509,69901
-284,-51,61,-23,-62,-66,-321,-13,117,-30,-172,-161,-90,-310,-46,-187,109,118,225,-153,-703,-285,96,200,-231,-843,221,151,192,141,468,69902
-275,-67,43,-43,-70,-64,-303,-163,23,130,-388,-191,-101,50,-40,-177,100,110,216,-138,-714,-285,82,186,-205,-857,210,142,180,132,388,69903
-254,-75,23,-38,-69,-70,-288,-169,-61,55,-239,-69,79,69,-62,-175,69,82,181,-136,-693,-281,68,138,-191,-837,178,117,149,96,356,69904
-176,-44,36,-16,-35,-25,-218,15,16,122,-25,39,83,-29,-60,-139,57,51,138,-102,-548,-226,47,80,-138,-687,121,93,111,66,253,69905
47,4,10,6,28,30,20,-100,-96,57,12,90,26,52,3,27,12,-14,-5,37,-107,-47,-1,-65,35,-118,-39,-12,-1,-31,-147,69906
400,72,-43,35,105,101,408,25,-256,25,337,97,-128,136,79,291,-69,-115,-270,234,609,211,-65,-334,251,858,-281,-180,-200,-218,-608,69907
254,37,-18,2,59,61,250,146,-163,85,-57,-99,-94,-16,50,181,-77,-103,-243,114,448,121,-76,-287,103,634,-235,-158,-189,-211,-360,69908
-38,-11,27,-8,-15,-19,-77,-20,-80,132,-247,-51,85,25,30,-43,-20,-14,-26,-65,-55,-52,-41,-59,-89,-103,-27,-34,-33,-51,124,69909
-85,-18,20,-19,-26,-48,-128,-93,-37,19,-80,59,192,-8,5,-80,3,5,58,-103,-111,-38,-20,8,-89,-249,31,5,30,2,122,69910
-75,-13,24,-11,-17,-36,-110,-119,103,23,117,-8,83,-29,-28,-43,36,24,70,-69,-6,50,7,26,-35,-210,47,34,62,43,91,69911
125,33,15,19,46,36,103,-9,38,50,232,133,-130,62,-11,131,33,-4,-17,112,455,266,14,-61,149,345,-59,-29,4,13,-131,69912
-41,-10,19,-21,-10,-3,-105,-246,43,42,-34,108,-27,-24,-30,-8,29,12,43,-60,149,122,16,2,-5,-39,26,12,33,32,125,69913
-112,-36,13,-37,-29,-24,-212,-106,13,1,-87,-6,143,63,-44,-64,55,44,80,-123,-13,58,34,54,-71,-263,86,45,60,52,202,69914
-150,-48,14,-41,-43,-46,-278,-123,24,110,-137,-35,119,205,-80,-114,49,47,105,-132,-128,-8,27,89,-98,-430,101,51,72,82,208,69915
-183,-47,33,-31,-32,-40,-287,-298,38,86,8,-109,-104,136,-23,-165,28,44,111,-160,-295,-101,16,108,-139,-592,123,63,94,81,271,69916
-262,-70,46,-27,-56,-52,-312,-522,83,-77,-188,-96,-76,-41,-62,-251,-2,16,96,-247,-548,-233,-39,94,-229,-852,124,43,80,63,277,69917
-338,-86,39,-37,-86,-64,-365,-461,96,-109,-164,-127,151,-118,-90,-319,-5,14,143,-315,-796,-357,-22,122,-298,-1120,143,68,88,63,360,69918
-155,-25,27,14,-28,-2,-163,-61,-39,4,-36,-11,140,3,-32,-158,33,21,114,-149,-522,-223,38,64,-129,-738,86,57,90,38,200,69919
-105,-20,21,3,-17,-5,-126,-87,-31,60,-31,-5,15,61,51,-90,54,45,115,-77,-418,-170,67,68,-60,-595,95,78,100,58,145,69920
-76,-10,21,3,-10,6,-91,92,30,87,60,57,24,113,0,-32,95,84,153,-11,-367,-132,101,102,-1,-500,124,128,133,95,173,69921
-62,-9,9,11,-8,-12,-38,51,-8,3,71,133,285,217,9,4,104,90,158,32,-307,-105,117,113,40,-414,126,135,138,112,139,69922
141,42,-32,40,52,26,193,42,-99,-57,195,194,120,309,93,139,21,-9,-11,187,118,51,45,-55,183,155,-35,-14,16,16,-203,69923
279,70,-66,40,61,43,333,151,-79,-13,246,155,-10,260,70,232,-41,-82,-155,289,498,164,-30,-192,266,664,-172,-117,-108,-54,-389,69924
62,18,-17,1,16,7,67,-149,-61,-31,-153,31,-48,-68,57,67,-9,-16,-27,118,109,-13,2,-47,88,182,-27,-30,-14,23,16,69925
-326,-85,62,-46,-74,-73,-387,-257,36,-145,-514,-228,-60,-263,-98,-269,38,67,211,-168,-708,-319,33,208,-231,-906,232,99,149,182,596,69926
-777,-213,110,-105,-188,-173,-887,-616,138,-31,-699,-465,-66,-291,-217,-650,90,142,499,-480,-1606,-650,72,500,-536,-2192,490,255,345,375,1107,69927
-530,-138,47,-40,-128,-122,-561,-474,238,125,-103,-222,-39,-160,-82,-416,142,147,488,-227,-1126,-348,145,449,-212,-1688,407,277,371,388,657,69928
90,37,-42,37,32,13,159,39,104,95,271,156,-64,247,38,109,81,32,124,207,135,181,127,43,287,-60,30,77,115,137,-224,69929
202,60,-39,31,58,51,258,131,46,28,154,151,-86,433,43,194,46,-2,9,240,449,304,84,-66,307,311,-56,8,21,42,-274,69930
110,13,-53,-3,24,19,99,256,-1,13,-149,20,69,45,15,77,-7,-41,-48,120,330,224,10,-93,155,153,-65,-34,-29,-16,-176,69931
120,18,-13,29,48,56,45,189,-31,-32,-169,15,144,-72,-55,36,-43,-55,-83,79,283,185,-34,-104,90,81,-94,-70,-56,-36,-215,69932
161,32,2,39,65,66,144,79,37,44,135,-14,75,84,9,102,-2,-27,-58,146,410,265,2,-84,146,225,-72,-44,-34,-9,-156,69933
71,24,-29,20,15,11,133,144,47,181,222,49,-218,70,49,90,44,28,10,143,348,250,52,-3,139,138,14,21,21,51,-21,69934
-149,-15,0,-7,-39,-39,-95,98,82,49,-12,45,-146,-200,43,-78,47,59,117,-22,-74,46,56,108,-36,-383,118,79,86,111,295,69935
-886,-186,140,-101,-212,-182,-970,-560,228,29,-655,-279,19,-506,-207,-716,140,220,565,-609,-1706,-637,129,590,-649,-2516,583,346,396,392,1431,69936
-1370,-309,226,-141,-305,-253,-1558,-847,254,32,-1002,-570,55,-741,-292,-1136,247,341,952,-939,-2905,-1069,232,978,-951,-4157,931,568,697,659,2017,69937
-959,-242,128,-72,-197,-167,-1100,-660,157,21,-680,-325,-24,-321,-128,-841,208,231,780,-630,-2262,-766,223,740,-547,-3368,688,471,599,547,1171,69938
-30,-32,-35,55,24,20,-22,273,-28,25,4,138,-26,170,21,-111,41,-20,158,7,-451,-58,87,72,156,-949,49,104,155,127,-258,69939
399,79,-95,94,120,116,464,559,-76,76,441,322,18,261,91,282,-8,-78,-122,370,572,329,51,-188,481,423,-196,-48,-51,-36,-676,69940
410,77,-76,79,123,114,444,292,-87,-35,386,137,-18,398,121,298,-27,-79,-147,363,669,320,28,-187,439,634,-190,-69,-92,-27,-573,69941
350,57,-55,49,101,100,358,502,-117,10,328,155,10,265,36,230,-68,-107,-185,254,560,215,-19,-210,319,560,-195,-110,-130,-74,-520,69942
286,47,-54,24,70,68,309,380,16,-40,202,207,96,107,0,204,-45,-68,-160,216,505,185,-3,-177,279,515,-150,-80,-107,-55,-373,69943
193,40,-57,19,42,48,232,187,-41,94,236,75,-74,74,-20,160,-12,-20,-86,169,356,132,25,-86,221,340,-71,-33,-49,7,-208,69944
10,9,-29,3,-4,-14,22,55,16,39,8,-21,40,-36,-19,16,6,13,22,55,29,-3,37,35,85,-100,41,29,18,71,40,69945
-364,-74,36,-58,-100,-97,-386,-126,143,13,-339,-136,163,-77,-78,-271,60,100,231,-197,-676,-267,66,255,-193,-1052,259,151,163,210,586,69946
-853,-192,104,-108,-217,-196,-909,-456,166,-153,-489,-254,135,-313,-200,-644,166,224,594,-486,-1657,-604,164,617,-505,-2438,605,362,440,461,1249,69947
-586,-128,76,-29,-125,-100,-624,-393,104,39,-285,-50,219,-180,-149,-449,183,179,551,-241,-1234,-353,208,530,-209,-1988,481,333,427,464,731,69948
238,48,-55,65,80,88,262,327,-145,31,363,73,-53,111,75,163,25,-42,4,302,346,271,80,-49,382,113,-74,3,39,93,-483,69949
405,87,-91,53,118,137,431,502,-166,54,400,152,-243,-104,63,280,-68,-120,-208,379,756,391,-21,-243,409,698,-247,-132,-136,-81,-654,69950
344,83,-63,41,96,106,379,292,-84,-32,261,136,-137,135,72,248,-60,-89,-190,343,710,356,-24,-198,332,656,-192,-115,-129,-76,-433,69951
171,46,-49,15,33,49,223,89,-53,-82,35,91,-147,218,5,146,-30,-31,-96,250,425,236,3,-87,209,307,-67,-48,-58,-5,-187,69952
62,31,-43,24,10,-9,141,153,-79,-57,7,54,-134,273,2,77,9,12,-16,173,199,152,44,-4,123,32,6,10,3,40,-13,69953
-11,9,-47,8,-20,-43,82,31,-86,30,83,-40,-206,268,-1,21,8,11,-11,98,53,87,37,-7,58,-142,10,17,5,28,54,69954
-295,-52,4,-34,-85,-81,-237,-220,146,-14,-61,-174,-17,-5,-55,-197,64,91,180,-115,-500,-138,73,206,-153,-899,203,139,143,157,527,69955
-686,-141,82,-82,-166,-142,-722,-413,135,-8,-605,-334,5,-295,-177,-516,150,203,507,-328,-1309,-429,150,547,-389,-2052,508,312,382,401,1090,69956
-815,-186,91,-83,-185,-152,-889,-489,104,-65,-644,-309,-16,-344,-219,-644,165,203,647,-363,-1590,-515,158,666,-407,-2518,603,367,481,523,1152,69957
-301,-49,33,13,-36,-25,-301,-224,94,44,-210,5,104,110,-53,-226,147,124,469,57,-614,-68,165,427,83,-1275,363,272,373,439,323,69958
636,156,-105,135,194,186,740,468,-68,11,781,381,-7,584,156,515,-13,-113,-144,677,1297,655,19,-227,782,1320,-261,-109,-80,34,-1041,69959
725,162,-140,88,191,172,819,556,-144,-44,753,338,27,391,100,558,-142,-202,-387,609,1587,640,-104,-437,704,1834,-432,-269,-304,-162,-1092,69960
461,98,-99,33,106,98,508,371,-151,-96,318,133,2,293,128,324,-138,-162,-303,318,1084,375,-113,-323,396,1265,-308,-211,-270,-133,-668,69961
385,75,-76,20,83,79,413,-134,-122,-44,310,73,-138,176,21,262,-119,-139,-274,245,931,307,-110,-280,311,1095,-248,-199,-243,-116,-543,69962
325,81,-42,30,67,74,346,-91,-122,-55,325,110,6,40,36,247,-85,-94,-252,209,830,277,-94,-228,260,977,-205,-170,-196,-82,-345,69963
238,61,-18,34,51,54,248,113,-68,52,40,52,-15,-6,58,204,-40,-42,-178,151,648,206,-59,-137,198,754,-134,-99,-129,-23,-207,69964
151,37,-10,7,26,23,156,214,47,72,-146,2,56,103,75,132,-32,-34,-106,112,494,147,-44,-75,150,544,-78,-65,-90,11,-131,69965
-58,-8,13,-19,-29,-31,-59,-32,55,87,-28,24,102,66,-24,-36,-8,21,55,5,112,14,-15,82,11,20,68,24,11,126,187,69966
-459,-81,75,-49,-115,-108,-515,-250,187,-2,-147,-229,86,-30,-110,-347,94,150,368,-214,-714,-272,74,410,-255,-1124,385,227,248,356,828,69967
-419,-82,65,-28,-99,-82,-476,-76,125,-43,-38,-210,-44,19,-86,-308,133,144,425,-112,-717,-221,108,441,-147,-1175,391,245,313,413,608,69968
450,92,-72,80,118,115,497,582,11,145,437,191,-69,341,118,381,7,-70,-115,507,953,451,7,-141,515,1077,-171,-78,-63,66,-716,69969
614,131,-106,78,133,132,692,534,-38,68,452,178,-23,321,124,559,-51,-116,-291,647,1414,583,-48,-307,595,1770,-311,-171,-212,-80,-851,69970
571,133,-86,58,109,113,657,547,-125,-55,414,187,7,388,130,558,-63,-101,-291,647,1399,545,-56,-294,538,1839,-293,-178,-232,-91,-714,69971
434,97,-79,15,69,72,508,370,-127,-86,321,156,54,173,105,461,-47,-67,-265,535,1159,425,-69,-248,401,1590,-220,-166,-205,-77,-536,69972
633,151,-91,49,139,128,714,353,-114,-45,504,181,-46,328,174,602,-93,-127,-385,703,1569,568,-111,-372,541,2165,-362,-243,-296,-153,-857,69973
580,137,-76,27,114,113,653,306,-129,20,428,76,-70,84,131,532,-150,-168,-419,613,1503,481,-164,-399,451,2157,-382,-294,-337,-189,-746,69974
-173,-34,35,-69,-81,-55,-176,-314,77,-11,-312,-272,122,-576,-58,-79,-51,6,-1,19,-11,-139,-107,66,-176,207,92,-39,-40,84,438,69975
-485,-104,66,-83,-156,-126,-513,-372,214,-8,-603,-261,177,-392,-93,-345,26,77,263,-215,-713,-359,-26,302,-357,-784,302,108,149,262,727,69976
-489,-103,73,-55,-130,-111,-540,-321,165,100,-439,-236,74,-122,-135,-362,51,97,332,-218,-797,-344,21,360,-313,-983,336,147,208,331,705,69977
-228,-41,46,-6,-49,-37,-271,-60,119,57,-216,-81,92,-93,-105,-165,65,70,238,-59,-360,-130,44,256,-67,-462,227,112,176,284,316,69978
239,56,-37,40,65,63,245,211,-14,17,97,142,26,231,34,230,31,2,-4,241,576,267,29,-40,308,761,-62,-11,5,101,-378,69979
250,58,-42,-2,47,53,264,81,-31,-45,121,107,-9,181,-4,230,-49,-50,-157,171,663,254,-64,-156,235,912,-148,-95,-121,-23,-396,69980
261,63,-60,-2,42,39,298,127,-110,-123,41,81,16,115,23,236,-90,-91,-228,159,768,267,-116,-204,219,1028,-194,-150,-177,-72,-443,69981
265,57,-57,0,38,33,298,185,-183,-128,174,41,131,118,-28,227,-100,-105,-263,131,799,258,-139,-241,191,1093,-216,-182,-208,-106,-402,69982
123,20,-12,-32,6,13,115,-1,-56,-161,-26,-7,22,-112,-1,86,-111,-99,-203,-19,503,110,-137,-180,39,716,-160,-151,-180,-91,-206,69983
49,6,11,-37,1,14,6,21,39,-120,-384,-43,-143,-239,-6,21,-79,-64,-119,-83,307,38,-94,-104,-22,458,-93,-100,-121,-60,-100,69984
-44,-19,12,-39,-24,-16,-84,-180,-19,-182,-465,-33,63,-203,-54,-35,-22,-4,-14,-110,109,-4,-46,8,-74,187,0,-25,-43,17,72,69985
-107,-20,14,-24,-47,-44,-133,-177,-4,-95,-34,-88,26,-136,-109,-63,16,38,66,-109,-29,-37,4,90,-87,-19,78,48,38,93,174,69986
-262,-43,28,-36,-90,-81,-274,-108,1,-1,-236,-131,69,-82,-126,-166,47,73,167,-188,-355,-161,28,195,-175,-439,175,115,110,155,362,69987
-274,-44,48,-21,-64,-58,-291,-385,22,-84,-215,21,229,-91,-42,-188,44,70,177,-189,-466,-200,19,207,-180,-574,191,107,121,164,356,69988
-25,-7,15,3,-2,0,-27,-146,-66,-164,95,54,87,-44,8,-10,-8,-5,0,-26,-68,-48,-13,20,-8,2,14,-2,4,47,-50,69989
29,11,1,12,-4,5,46,124,-117,-91,-51,-35,7,-216,19,31,-13,-6,-65,29,38,-26,-16,-40,14,159,-26,-24,-36,-3,-54,69990
20,5,-9,1,1,10,52,33,-148,68,12,39,-67,-55,-12,26,-33,-26,-83,32,13,-71,-27,-52,-8,168,-41,-48,-58,-23,-59,69991
-28,9,-13,0,-16,-24,12,-67,-93,-34,37,-43,-72,126,-17,-5,-7,0,-17,0,-123,-115,1,-5,-33,35,3,-1,-23,0,52,69992
-31,1,-11,-12,-18,-24,-33,87,-42,-32,64,-135,-17,-93,-33,-25,3,1,5,-14,-202,-148,3,7,-63,-59,16,9,-9,-4,25,69993
-43,-15,9,-21,-12,-3,-64,121,-29,-10,-52,-111,-4,-129,-43,-31,1,10,15,-19,-220,-153,-11,24,-63,-116,13,13,4,2,58,69994
-76,-21,2,-37,-25,-18,-75,-29,-142,-125,-95,-104,-164,-73,-21,-34,31,32,42,-24,-211,-129,17,50,-63,-151,45,35,27,27,119,69995
-85,-21,17,-18,-19,-15,-92,-118,-112,-26,-189,-96,-13,-115,-46,-37,66,70,79,-33,-236,-93,56,85,-51,-216,80,71,71,66,158,69996
4,6,12,2,4,-1,-6,109,29,15,-15,-28,-12,-57,20,27,41,38,57,8,-47,-1,64,43,28,-3,25,55,40,30,23,69997
24,5,5,-5,11,7,5,121,63,53,17,24,-28,-59,26,16,-5,-9,-1,-18,25,25,24,-15,15,61,-17,4,-10,-1,-39,69998
76,6,-7,-12,22,17,61,101,57,39,178,-1,-45,6,9,63,-32,-41,-72,23,196,83,-28,-67,56,241,-77,-49,-66,-34,-180,69999
151,17,-16,-1,39,38,145,223,5,-17,155,70,-8,191,-49,127,-40,-54,-110,107,415,167,-31,-118,119,519,-136,-79,-100,-59,-294,70000
337,64,-57,13,79,66,358,240,-130,-30,111,162,-26,138,20,284,-70,-93,-222,269,865,344,-58,-238,286,1094,-243,-156,-175,-119,-566,70001
428,93,-81,9,89,91,454,158,-106,28,106,146,-180,12,57,370,-91,-119,-281,369,1157,443,-95,-299,366,1482,-305,-204,-230,-144,-664,70002
278,63,-20,0,61,76,283,105,13,67,110,2,-46,-32,-64,262,-64,-72,-185,214,836,290,-82,-189,204,1125,-185,-134,-173,-89,-391,70003
101,32,4,-9,15,14,117,124,-1,46,196,-64,66,-45,-81,149,-13,-11,-77,66,454,143,-35,-67,57,664,-56,-48,-86,-30,-114,70004
150,35,-26,-4,6,5,182,204,-1,-34,181,-68,-127,-33,-55,193,0,-10,-83,131,544,200,-25,-94,117,776,-73,-53,-86,-25,-204,70005
341,82,-54,13,65,64,340,270,-125,-131,332,-15,-90,76,24,325,-57,-76,-226,269,938,331,-75,-239,247,1301,-223,-149,-176,-112,-509,70006
516,122,-51,22,120,128,454,346,-180,-6,299,122,-51,150,99,449,-100,-105,-357,369,1255,429,-120,-346,336,1784,-325,-226,-272,-200,-692,70007
388,86,-34,-12,82,76,297,349,-121,-56,250,1,-140,13,-5,345,-120,-101,-318,261,1022,293,-146,-304,201,1552,-268,-205,-264,-193,-516,70008
165,35,-4,-18,21,5,105,159,-28,-24,151,59,35,-108,-30,194,-64,-34,-133,130,597,129,-95,-124,61,1018,-103,-96,-129,-64,-165,70009
157,44,-7,6,21,-1,198,69,32,14,45,125,29,-63,26,232,3,7,-68,196,627,168,-28,-70,130,1046,-73,-48,-74,0,-142,70010
337,92,-32,46,70,40,413,9,1,163,358,152,187,67,10,382,-8,-29,-162,362,987,301,-30,-176,290,1527,-195,-109,-141,-33,-437,70011
441,114,-52,43,89,57,516,159,25,16,459,160,77,20,59,447,-53,-75,-257,418,1221,369,-84,-266,339,1890,-267,-184,-207,-93,-531,70012
309,77,-39,0,39,25,358,104,-50,37,115,95,-139,-22,59,347,-70,-72,-207,293,995,259,-109,-217,222,1630,-202,-157,-186,-77,-352,70013
280,70,-22,3,44,23,298,34,-53,-59,6,151,79,-116,44,321,-77,-63,-180,263,922,228,-104,-193,183,1564,-181,-147,-171,-52,-369,70014
315,87,-32,12,53,28,326,144,-51,-148,30,187,54,98,5,349,-78,-72,-213,295,1010,272,-107,-215,209,1680,-200,-174,-198,-57,-373,70015
137,38,-15,-13,2,-18,140,4,12,-43,93,-61,-16,33,-40,232,-34,-20,-81,235,744,190,-90,-70,123,1305,-73,-91,-98,50,-139,70016
165,48,-4,-1,10,-7,195,-127,84,-47,197,-84,-23,37,26,269,-12,4,-48,254,775,230,-53,-57,167,1366,-48,-54,-70,72,-165,70017
143,40,-11,-13,0,-22,178,2,-63,58,65,-109,-110,96,14,257,6,24,-21,239,702,226,-31,-37,144,1281,-27,-44,-49,82,-119,70018
263,64,-59,-9,18,-4,318,-57,-112,50,136,-15,-132,170,23,342,-34,-34,-152,301,934,291,-68,-145,211,1633,-135,-121,-131,3,-351,70019
167,51,-17,-9,8,-9,191,-26,-64,25,-141,-17,22,126,-21,236,-27,-21,-146,159,665,158,-68,-116,71,1328,-102,-100,-112,-20,-155,70020
51,29,26,-16,-1,-11,36,65,42,29,-59,39,24,-173,-53,143,-14,13,-103,35,378,39,-65,-73,-36,957,-42,-60,-74,-20,-20,70021
-57,1,32,-22,-38,-48,-63,-169,76,1,-185,0,-205,-86,-12,84,31,69,11,-11,146,-27,-9,25,-83,635,47,19,2,49,119,70022
36,20,-8,-9,-24,-50,71,-53,38,39,131,58,-384,126,64,160,15,41,-21,94,334,62,-7,-22,6,861,-2,-7,-17,28,-54,70023
125,37,-8,-4,6,-14,154,43,32,-108,134,67,6,99,48,188,-45,-22,-120,156,521,109,-78,-112,55,1089,-89,-86,-101,-34,-207,70024
-44,-17,15,-52,-35,-39,-42,-184,42,49,-124,-66,-64,-42,-58,57,-49,-16,-49,17,209,-40,-90,-27,-92,693,-16,-65,-66,16,74,70025
-123,-16,43,-41,-33,-29,-98,-130,-21,-18,-316,23,-57,-79,-18,31,33,57,84,-5,22,-70,-8,110,-96,432,112,39,61,122,227,70026
10,20,11,0,8,-12,36,-57,67,-27,-394,59,-88,-79,18,86,-24,-12,-35,49,215,-1,-52,-34,-20,703,-33,-49,-45,27,-61,70027
32,22,-7,-2,-3,-31,51,35,26,24,-307,-20,-68,-262,6,75,-40,-33,-85,21,242,-4,-64,-84,-40,748,-69,-82,-87,-14,-72,70028
61,34,19,24,13,-17,103,-57,32,-75,65,23,115,-185,15,133,-5,8,-52,51,319,69,-29,-53,15,821,-36,-37,-44,12,-62,70029
21,15,35,4,3,-40,32,-72,31,-145,-96,28,93,-47,-49,86,-18,5,-37,-27,253,26,-39,-35,-30,710,-12,-23,-41,14,-18,70030
4,-10,21,-33,-21,-46,-16,1,-59,-9,-84,36,88,-311,-25,63,-16,3,-25,-66,230,22,-55,-38,-50,639,-10,-17,-40,10,-41,70031
141,22,-2,-9,17,2,117,-69,33,49,73,42,112,-123,39,162,-21,-22,-100,34,520,139,-55,-115,57,973,-107,-59,-83,-31,-208,70032
116,9,0,-22,13,-1,71,-113,-4,-31,117,-49,72,-70,34,129,-49,-30,-126,-17,475,106,-83,-132,-4,914,-119,-83,-108,-56,-145,70033
226,40,1,-2,50,52,181,41,-105,-125,149,97,70,0,79,206,-58,-57,-182,57,686,196,-97,-191,79,1166,-163,-112,-144,-94,-301,70034
-6,-19,37,-35,-12,-6,-89,22,-66,-66,-152,-56,137,-61,-36,33,-29,-11,-34,-44,312,31,-83,-40,-84,665,-17,-47,-60,7,129,70035
-503,-124,110,-86,-124,-126,-619,-354,82,-117,-302,-269,124,-312,-199,-339,76,137,325,-369,-752,-373,19,335,-423,-699,353,191,214,265,835,70036
-477,-112,73,-67,-122,-125,-557,-429,-14,-152,-272,-157,100,-264,-102,-324,106,141,357,-342,-850,-364,55,352,-353,-823,359,226,257,285,703,70037
-211,-68,24,-31,-61,-72,-246,-258,-65,-124,210,-35,-172,-23,-11,-139,32,44,147,-170,-411,-210,13,128,-171,-215,127,83,102,125,194,70038
-94,-36,25,-21,-22,-34,-135,-37,-89,-18,16,-8,-83,-47,-34,-96,-39,-24,-21,-145,-284,-197,-44,-17,-162,19,12,-5,-10,-7,28,70039
-136,-30,65,3,-6,-9,-197,-47,-67,-118,-55,-108,6,-316,-38,-110,32,43,68,-166,-429,-237,24,73,-189,-181,107,74,70,39,249,70040
-129,-35,68,10,-11,-4,-199,-94,87,8,-8,-13,-12,-171,-52,-74,81,94,134,-115,-451,-214,84,128,-142,-213,142,126,135,93,283,70041
-136,-26,60,8,-14,-11,-190,7,123,29,-17,-19,-23,33,28,-87,45,72,89,-129,-491,-246,45,108,-168,-237,120,106,105,66,251,70042
-55,4,31,29,2,-17,-81,3,108,52,48,-24,29,245,-2,-24,28,39,34,-38,-312,-178,15,48,-76,-2,59,60,52,29,52,70043
42,16,-17,22,14,-14,59,22,-96,5,201,-25,44,126,-46,71,8,1,-55,62,-35,-71,-10,-48,23,355,-24,-11,-9,-23,-106,70044
319,87,-63,64,83,52,394,68,-189,46,515,120,-64,403,39,313,-17,-53,-200,276,579,191,-34,-218,235,1169,-187,-107,-110,-120,-497,70045
420,106,-53,58,107,94,494,168,-53,11,252,62,-81,244,168,381,-63,-97,-307,287,805,244,-83,-316,258,1508,-281,-183,-210,-209,-605,70046
629,147,-56,67,167,167,720,441,-39,35,438,237,19,83,154,521,-103,-147,-450,364,1214,382,-108,-481,361,2092,-443,-269,-326,-331,-903,70047
720,166,-71,65,177,175,795,404,-135,-57,291,233,23,139,117,567,-165,-187,-565,375,1476,440,-159,-583,364,2438,-541,-333,-430,-418,-924,70048
10,8,23,-45,-16,-18,-30,-267,-16,-181,-302,-213,-31,-53,-99,2,-90,-32,-178,-142,171,-92,-116,-150,-208,659,-101,-112,-170,-173,167,70049
-217,-51,48,-63,-69,-78,-307,-311,74,-23,-178,-218,-49,-130,-57,-184,-36,27,2,-313,-317,-232,-77,32,-335,-62,67,-15,-18,-20,379,70050
-269,-52,73,-42,-67,-77,-365,-301,212,27,-344,-143,-14,-217,-75,-244,9,71,83,-374,-469,-237,-35,106,-347,-366,145,52,58,41,425,70051
-243,-35,76,-26,-52,-64,-302,-203,177,67,-302,-120,104,-180,-38,-201,18,61,99,-341,-384,-172,-15,114,-287,-363,141,68,73,53,347,70052
-285,-53,73,-40,-67,-72,-349,-278,45,-125,-213,-83,79,-246,-82,-243,10,50,106,-400,-477,-209,-17,112,-312,-511,131,65,73,43,388,70053
-268,-47,86,-27,-57,-47,-353,-366,169,-48,-196,-73,127,-128,-98,-251,19,67,125,-400,-531,-211,15,121,-310,-597,147,86,96,41,366,70054
350,84,-13,68,108,85,352,155,14,128,359,126,7,231,66,261,-50,-63,-202,77,650,276,-25,-240,199,967,-222,-105,-131,-168,-628,70055
967,228,-117,130,241,204,1064,547,-225,118,793,427,-79,418,218,788,-150,-199,-617,534,1967,740,-121,-669,631,2807,-629,-347,-451,-456,-1406,70056
1134,261,-166,109,254,212,1251,722,-257,10,650,516,-223,386,207,931,-220,-261,-835,617,2395,814,-212,-865,675,3549,-788,-483,-618,-632,-1569,70057
782,193,-80,48,165,125,847,490,-242,-30,474,247,-92,215,135,668,-190,-177,-702,361,1768,488,-209,-680,324,2847,-592,-392,-534,-559,-872,70058
-231,-32,102,-70,-78,-91,-300,-238,87,-80,-332,-321,52,-455,-62,-131,-33,62,-58,-300,-235,-306,-89,18,-439,196,75,-28,-83,-108,657,70059
-418,-73,125,-67,-111,-106,-511,-462,203,-62,-331,-286,-16,-353,-32,-307,36,102,162,-386,-776,-463,-23,198,-497,-528,223,73,85,59,747,70060
-425,-88,98,-63,-116,-110,-501,-557,240,-5,-142,-323,-15,-221,-49,-330,42,88,169,-380,-905,-492,-1,200,-476,-701,219,87,107,62,698,70061
-402,-73,90,-44,-94,-94,-475,-292,162,129,-176,-187,52,-296,-15,-322,60,99,211,-359,-955,-485,41,242,-437,-817,241,127,158,87,637,70062
-300,-50,61,-2,-67,-70,-344,6,114,-1,-112,-151,230,-198,-32,-220,85,111,246,-239,-777,-363,79,240,-282,-624,227,166,190,112,489,70063
-235,-42,52,11,-46,-58,-267,-124,68,-129,-5,-58,162,-104,9,-165,66,96,205,-184,-651,-292,58,193,-218,-473,183,143,167,95,379,70064
-120,-12,60,31,-11,-19,-144,68,-49,-115,138,-44,151,-19,15,-95,32,51,92,-142,-453,-219,16,82,-154,-219,81,75,91,13,138,70065
278,73,-9,62,92,67,316,180,12,9,207,159,13,245,110,206,-48,-65,-185,106,347,91,-45,-207,142,832,-200,-98,-123,-189,-523,70066
802,172,-114,83,190,157,949,537,-150,-174,611,466,-206,390,241,647,-153,-201,-578,449,1516,520,-136,-618,514,2396,-569,-333,-404,-457,-1240,70067
588,130,-72,35,124,97,711,471,-186,-243,521,210,-224,425,124,516,-122,-123,-505,269,1241,374,-117,-507,280,2071,-439,-266,-361,-423,-714,70068
-209,-36,81,-62,-56,-40,-252,-111,38,-89,-238,-207,34,-118,-133,-139,4,64,-5,-306,-329,-250,-35,53,-362,-63,77,21,-13,-99,502,70069
-344,-97,104,-78,-77,-47,-478,-397,176,87,-334,-288,212,-217,-137,-314,-12,42,97,-433,-717,-388,-57,154,-449,-631,148,46,55,-18,520,70070
-339,-92,104,-52,-72,-51,-467,-343,165,19,-184,-238,79,-129,-59,-284,29,84,179,-397,-726,-318,-8,216,-374,-698,198,107,132,45,524,70071
-385,-110,96,-64,-82,-73,-475,-88,159,7,-264,-74,-22,-386,-43,-296,53,96,226,-397,-773,-313,31,236,-351,-828,233,148,171,80,545,70072
-392,-86,86,-40,-87,-79,-441,-275,116,-16,-241,-125,159,-280,-52,-321,45,83,214,-388,-787,-317,41,228,-328,-895,216,137,172,92,529,70073
-373,-61,77,-7,-72,-82,-401,-356,122,25,-140,-148,-18,-109,-40,-322,51,83,223,-372,-816,-315,53,240,-312,-940,222,142,174,101,475,70074
-80,-2,33,29,0,-18,-104,-164,115,210,115,-22,-84,-3,34,-117,1,8,54,-214,-360,-133,11,48,-120,-293,29,40,49,-34,-28,70075
125,29,9,25,42,29,93,79,55,76,366,108,-69,45,55,39,-50,-53,-135,-107,33,-25,-43,-130,-15,247,-127,-59,-86,-177,-243,70076
42,9,15,-3,28,26,3,201,-20,-86,95,-58,-46,74,-32,-10,-45,-38,-107,-112,-47,-67,-38,-89,-79,125,-91,-51,-69,-157,-90,70077
-202,-48,43,-39,-48,-39,-266,-56,103,-23,-314,-196,201,-77,-68,-200,6,30,64,-263,-524,-260,2,94,-253,-495,80,47,47,-44,291,70078
-502,-108,100,-49,-110,-102,-582,-571,139,174,-494,-194,131,-355,-117,-446,79,122,268,-486,-1204,-504,77,303,-464,-1402,296,181,208,91,723,70079
-484,-104,74,-39,-109,-112,-545,-485,156,38,-326,-194,-27,-188,-94,-436,56,84,242,-457,-1218,-489,45,271,-437,-1464,259,160,189,75,594,70080
-376,-72,62,-17,-72,-74,-413,-369,102,69,-242,-160,37,-18,-70,-354,37,55,203,-347,-1016,-387,22,230,-335,-1239,213,138,159,57,448,70081
-208,-49,23,-1,-22,-41,-219,-171,-8,-146,-274,-122,228,-22,-61,-218,28,27,148,-183,-659,-221,38,151,-170,-811,123,103,114,28,212,70082
-112,-46,10,6,6,-3,-135,-105,-112,-104,-275,-107,186,-213,-40,-152,12,2,84,-108,-425,-129,21,90,-92,-529,51,47,72,-1,96,70083
-11,-21,22,7,35,41,-62,-78,-20,-9,-15,-24,-66,-112,79,-115,-31,-49,16,-57,-256,-69,-13,8,-45,-309,-28,-17,4,-52,-73,70084
10,9,35,22,33,49,-13,-98,-19,43,115,115,64,-65,74,-68,-20,-34,12,-28,-158,-48,18,0,-7,-179,-34,-5,-5,-61,-38,70085
-214,-56,38,-9,-41,-43,-236,-296,72,148,-26,-19,102,-126,-51,-226,18,31,110,-207,-576,-230,33,123,-187,-718,106,78,76,23,329,70086
-495,-114,60,-31,-112,-130,-530,-491,127,98,-61,-340,35,-238,-112,-418,113,152,362,-361,-1156,-399,126,398,-356,-1541,369,252,287,225,802,70087
-497,-106,68,-12,-100,-101,-507,-384,138,110,-150,-209,118,-187,-85,-411,151,164,430,-324,-1181,-364,157,438,-288,-1646,396,274,340,274,715,70088
-80,-12,-5,21,1,-2,-63,81,119,169,19,87,-47,189,86,-112,54,25,116,-70,-405,-77,84,107,3,-601,71,88,116,59,48,70089
-41,-2,-11,25,5,11,-49,42,-59,73,212,77,-81,294,23,-74,32,16,51,-61,-288,-56,62,52,-6,-428,40,47,67,17,33,70090
-79,-15,5,7,-3,7,-105,-48,-117,26,125,56,-85,61,-2,-122,0,3,56,-109,-343,-94,37,60,-45,-478,47,39,60,11,95,70091
-92,-5,20,20,2,0,-103,-47,-150,27,-50,35,-192,196,33,-118,28,18,117,-100,-375,-98,60,105,-36,-510,91,87,94,39,164,70092
-11,22,10,50,25,8,2,105,-1,102,91,171,-91,228,84,-26,54,35,93,5,-187,-4,81,89,56,-266,70,78,85,42,24,70093
7,6,-22,29,10,-11,23,40,21,21,122,59,-15,172,19,-5,57,33,44,25,-108,19,64,49,72,-152,39,43,55,31,44,70094
-343,-81,36,-39,-80,-88,-358,-254,111,-59,-219,-100,96,-321,-33,-278,79,98,224,-208,-741,-243,92,246,-189,-1014,233,148,182,144,541,70095
-481,-108,71,-45,-105,-75,-552,-294,102,-2,-305,-97,75,-249,-95,-440,85,102,326,-323,-1119,-378,107,344,-303,-1544,322,182,258,212,693,70096
-533,-122,89,-37,-94,-60,-609,-256,89,182,-353,-240,204,-208,-128,-492,110,121,386,-340,-1262,-418,129,413,-317,-1797,367,225,314,268,782,70097
-363,-87,57,-3,-47,-17,-405,-69,51,1,-337,-117,55,-122,-80,-346,102,83,337,-178,-928,-252,116,331,-143,-1419,290,197,267,248,441,70098
170,36,-30,66,84,87,205,339,-32,-19,176,249,33,319,79,87,24,-37,19,193,136,170,53,-30,272,9,-47,16,43,29,-342,70099
267,60,-57,69,83,78,337,339,-164,28,339,269,-12,258,97,203,-10,-43,-74,270,457,274,28,-125,326,456,-120,-40,-36,-42,-418,70100
158,48,-45,41,38,32,233,196,-35,66,91,169,12,220,84,115,-7,-35,-25,179,306,191,32,-62,212,275,-63,-12,-26,-16,-221,70101
50,21,-18,16,22,17,91,66,70,122,88,77,-33,215,34,17,-1,-19,4,60,84,78,28,-20,97,7,-3,9,1,3,-47,70102
-12,8,11,12,19,25,-7,48,49,134,-21,65,-1,86,74,-37,21,20,38,-24,-110,8,55,13,15,-224,48,38,35,20,87,70103
-149,-22,21,-2,-23,-20,-156,-166,43,0,-46,24,-88,-3,-12,-130,72,74,126,-141,-425,-111,105,103,-95,-630,136,110,106,65,304,70104
-547,-123,74,-57,-130,-114,-616,-417,19,-89,-571,-294,-112,-332,-111,-471,109,173,335,-441,-1273,-445,132,348,-411,-1789,371,249,262,189,896,70105
-599,-135,93,-43,-129,-109,-686,-255,-19,23,-361,-273,-11,-224,-146,-553,125,154,435,-408,-1402,-451,140,416,-392,-2066,409,274,330,263,843,70106
-581,-125,91,-22,-113,-91,-650,-225,69,124,-69,-213,137,-128,-101,-516,149,167,506,-318,-1330,-388,168,469,-306,-2055,454,307,383,349,892,70107
-530,-135,76,-14,-94,-75,-606,-270,107,57,-72,-44,109,43,-88,-485,131,135,472,-300,-1312,-372,154,448,-250,-2016,425,284,366,341,710,70108
56,-11,-27,42,53,64,43,175,-41,250,230,184,-36,169,99,-51,6,-39,78,86,-191,61,58,13,180,-511,10,38,84,68,-280,70109
367,89,-77,88,117,131,426,384,-38,144,383,245,-74,297,101,253,11,-54,-89,354,538,351,53,-158,424,481,-164,-48,-41,-36,-588,70110
340,79,-88,79,93,99,403,321,-55,-101,429,172,-79,398,45,242,-7,-70,-144,328,586,316,34,-173,366,609,-174,-76,-75,-58,-467,70111
188,41,-52,45,47,55,214,381,-81,25,66,45,-59,229,-7,106,-30,-55,-106,162,283,156,4,-116,198,287,-102,-68,-64,-59,-291,70112
119,30,-36,25,28,39,154,244,10,108,17,12,74,164,-57,75,-12,-29,-59,110,165,103,22,-63,153,145,-42,-33,-22,-25,-182,70113
47,4,-31,-1,12,5,82,248,-46,118,-78,13,-10,65,-15,19,-10,-20,-61,62,42,50,4,-41,81,-4,-26,-40,-17,-9,-88,70114
-198,-46,12,-39,-51,-45,-193,-19,-77,-37,-235,-53,-63,-79,-60,-191,26,33,63,-161,-507,-167,27,99,-128,-694,128,54,88,51,274,70115
-82,-11,-5,1,-9,-7,-76,-13,-35,25,-281,-82,20,31,17,-105,29,17,48,-81,-319,-62,54,49,-15,-503,69,54,74,23,60,70116
44,22,-9,26,18,12,49,74,-38,40,-32,-19,11,158,-13,-22,-16,-37,-55,6,-47,23,7,-70,66,-163,-45,-40,-21,-51,-156,70117
-19,2,-4,17,-3,-4,-40,-26,16,-56,42,-4,-20,122,-76,-64,-3,-14,-30,-36,-164,-22,6,-22,23,-320,1,-20,1,-25,17,70118
-19,8,-14,27,-2,-7,-37,-29,24,59,71,128,-140,5,17,-1,77,79,74,18,-140,33,105,62,83,-309,85,75,81,55,121,70119
-7,-1,-23,15,-11,-8,-44,-17,-12,202,-15,222,-10,315,42,26,83,93,102,25,-114,53,129,85,99,-292,107,113,115,74,99,70120
12,-4,-1,4,11,19,-55,-17,-105,3,-21,92,-3,166,3,-6,33,36,32,-12,-114,28,62,26,69,-278,44,52,52,21,0,70121
-22,-14,27,-3,14,36,-81,-59,-22,35,4,-33,-127,-86,-31,-77,11,2,9,-79,-222,-43,34,-7,4,-404,23,13,14,-16,49,70122
-125,-55,22,-25,-20,6,-164,-135,-7,25,-184,-47,-324,-215,-16,-187,-33,-37,-36,-201,-432,-171,-17,-30,-142,-681,5,-41,-24,-56,144,70123
-145,-35,25,-3,-24,-8,-122,-207,180,144,-277,-75,169,-29,-8,-208,-40,-32,-10,-204,-471,-176,-18,2,-142,-742,18,-8,-1,-41,164,70124
-92,-25,11,9,-11,-4,-60,13,163,166,129,47,81,-106,25,-153,-23,-8,13,-141,-391,-122,9,20,-70,-643,25,24,27,-11,75,70125
-57,-6,20,22,4,3,-53,175,46,129,142,79,168,-50,-53,-104,20,15,29,-101,-328,-72,59,24,-36,-569,36,38,56,7,127,70126
-212,-37,36,12,-42,-45,-232,-133,51,11,-228,7,130,-78,-75,-220,44,37,132,-205,-625,-186,73,128,-141,-981,142,93,123,71,318,70127
-177,-48,-4,2,-39,-46,-177,-125,2,41,-109,30,-51,6,39,-183,43,30,129,-153,-550,-142,65,118,-79,-898,124,86,117,62,201,70128
-115,-31,8,20,-16,-5,-91,-124,-61,72,-11,33,-156,70,32,-113,66,66,127,-85,-428,-76,87,113,-20,-746,119,103,125,72,198,70129
-145,-34,-2,12,-17,-15,-109,-138,-77,-18,-60,23,-214,112,-51,-144,50,51,117,-105,-476,-100,86,104,-59,-831,101,97,120,53,200,70130
-86,-15,-17,6,-3,5,-37,113,-71,-180,-192,-53,-150,148,-55,-105,27,6,58,-68,-352,-50,62,40,-19,-675,39,54,73,9,97,70131
-51,-14,-4,19,7,18,-21,-88,-76,-203,18,52,9,225,-38,-94,34,18,53,-37,-297,-20,63,46,10,-610,40,48,68,27,49,70132
-9,-16,-6,22,13,35,18,41,25,-46,-19,25,-43,96,-20,-49,28,17,36,23,-177,35,58,24,42,-457,25,33,45,25,6,70133
-10,-10,8,30,23,47,11,102,9,109,-110,65,31,-44,21,-35,42,24,57,33,-158,49,64,46,63,-446,42,50,59,47,41,70134
61,8,-6,39,46,64,80,116,-90,-24,78,123,-15,142,-14,0,14,1,-5,53,-50,69,51,-27,99,-268,-25,10,19,-12,-61,70135
63,2,-12,24,44,54,72,118,29,-128,-21,119,-60,141,81,-22,-21,-33,-71,6,-60,31,14,-89,49,-262,-67,-37,-32,-66,-106,70136
-66,0,25,14,3,26,-28,-157,120,-99,-27,72,59,85,56,-75,33,30,34,-55,-264,-34,62,38,-17,-547,54,56,51,13,130,70137
-230,-36,29,-1,-33,-6,-201,-217,61,3,-469,6,28,0,8,-185,68,77,181,-147,-582,-141,88,174,-103,-971,183,130,159,109,330,70138
-42,-7,-12,10,15,27,0,-19,-174,-24,-169,-44,80,122,17,-73,19,7,73,-37,-270,-29,36,38,34,-563,36,48,77,22,-36,70139
37,5,-38,23,27,39,110,110,-142,46,-31,12,38,121,9,-24,0,-25,16,16,-87,26,30,-20,79,-325,-19,16,30,-13,-104,70140
45,0,-41,31,16,20,123,117,-84,145,75,68,-15,115,82,-6,1,-21,8,34,-20,42,30,-26,100,-234,-33,-1,17,-7,-125,70141
40,11,-14,47,26,25,102,169,99,177,259,22,65,149,24,-6,-14,-20,-29,37,-20,37,1,-48,86,-210,-37,-21,-10,-12,-81,70142
47,18,4,37,24,20,75,162,86,252,309,103,112,65,22,-13,-24,-37,-69,18,-22,30,-18,-72,71,-184,-50,-47,-32,-33,-91,70143
-21,-3,6,-1,-11,-7,-17,80,150,149,197,96,50,-42,-45,-40,-8,-6,-19,-17,-136,-10,22,-16,28,-317,1,1,5,3,14,70144
-260,-62,35,-37,-49,-40,-301,-255,265,57,-295,-13,149,-139,-67,-241,46,64,157,-188,-634,-192,71,164,-159,-996,182,100,136,123,435,70145
-547,-138,59,-70,-122,-93,-623,-481,164,-194,-497,-234,254,-341,-87,-487,88,122,353,-375,-1233,-419,108,366,-350,-1838,364,214,271,251,787,70146
-846,-197,108,-86,-194,-147,-934,-541,114,-7,-719,-356,85,-360,-161,-715,165,205,596,-538,-1861,-629,171,613,-526,-2746,588,353,451,416,1175,70147
-677,-143,85,-19,-134,-108,-717,-404,159,117,-644,-165,52,-247,-86,-563,173,187,590,-360,-1583,-449,205,577,-312,-2466,536,350,469,440,848,70148
0,5,-35,77,38,32,67,-96,-14,90,-73,151,-58,54,92,-36,49,7,136,83,-270,65,102,86,200,-718,73,75,142,135,-196,70149
79,28,-57,52,42,38,171,166,-101,-97,139,98,-145,-36,91,24,15,-32,-20,96,-31,123,69,-52,197,-359,-36,6,22,-3,-207,70150
62,19,-41,39,42,44,136,2,-126,15,-3,29,-62,-13,62,1,10,-33,-37,71,-48,96,77,-56,145,-388,-38,-4,4,-25,-183,70151
19,-11,-23,18,30,41,47,-146,-79,120,44,-16,56,133,5,-75,-32,-53,-80,-7,-158,8,25,-78,43,-527,-71,-51,-38,-63,-127,70152
46,-2,-7,27,42,58,55,28,-81,-42,65,84,-41,207,-44,-67,-22,-42,-59,0,-136,22,23,-62,50,-505,-60,-36,-24,-65,-141,70153
40,9,1,27,39,47,42,65,-41,-58,94,45,92,67,-44,-70,-24,-41,-31,-10,-138,24,28,-52,40,-502,-44,-15,-13,-62,-60,70154
-674,-155,102,-58,-141,-106,-746,-533,187,-28,-491,-202,231,-359,-182,-591,124,175,429,-465,-1486,-492,145,462,-477,-2340,452,275,315,272,1183,70155
-1456,-326,195,-121,-332,-272,-1558,-1040,338,106,-1173,-457,310,-762,-265,-1175,320,413,1054,-879,-3058,-1016,315,1105,-909,-4545,1042,649,799,737,2203,70156
-1341,-317,156,-87,-292,-247,-1417,-866,322,62,-832,-258,224,-571,-201,-1120,331,376,1089,-762,-3010,-914,356,1100,-715,-4586,1011,673,844,797,1823,70157
-714,-175,74,30,-109,-91,-728,-358,102,97,-43,-18,79,-189,-64,-677,226,196,714,-362,-1923,-466,280,678,-229,-3189,596,437,586,557,781,70158
200,9,-85,104,98,117,269,400,-52,-46,374,149,81,260,83,-1,-9,-105,24,186,-141,174,70,-33,382,-761,-92,11,71,67,-606,70159
378,63,-87,96,142,158,451,586,-71,-48,261,169,12,207,71,151,-52,-139,-178,249,327,285,22,-195,425,-84,-224,-94,-88,-85,-654,70160
292,59,-68,80,120,127,368,370,-67,-27,183,190,19,127,45,121,-20,-96,-156,199,262,232,49,-159,337,-131,-177,-73,-68,-79,-475,70161
206,49,-55,63,75,91,279,162,-124,-3,184,238,165,57,77,70,-34,-76,-138,137,158,169,25,-119,246,-225,-149,-72,-64,-79,-342,70162
177,36,-62,33,51,61,234,70,-144,-13,250,164,71,173,-15,82,5,-42,-80,147,160,176,48,-59,246,-208,-101,-18,-33,-35,-304,70163
175,32,-74,28,50,57,216,177,-212,-14,169,164,-47,323,26,125,56,6,-29,180,215,210,93,-1,278,-137,-47,22,16,15,-224,70164
-40,-10,-30,5,0,-2,-19,95,41,-144,-6,71,33,266,35,-41,74,51,83,25,-176,36,110,138,94,-647,92,79,91,93,150,70165
-419,-89,25,-26,-95,-92,-424,-135,163,-76,-306,-42,-87,36,-43,-359,96,117,317,-228,-945,-254,134,377,-191,-1683,318,203,245,236,612,70166
-381,-103,16,-16,-79,-64,-393,-189,59,-65,-160,50,-98,114,-74,-372,71,58,252,-215,-944,-258,91,314,-166,-1685,242,153,206,182,416,70167
-201,-63,-5,-12,-29,8,-228,-171,-66,-63,-45,-40,63,76,-16,-258,45,15,140,-99,-651,-130,83,208,-33,-1305,117,82,132,124,164,70168
85,2,-32,33,52,71,84,139,-111,-145,114,32,39,35,-48,-29,0,-53,-23,74,-130,88,44,35,166,-610,-52,-15,17,21,-253,70169
162,18,-44,33,52,69,192,147,-46,-94,45,62,-13,-87,14,35,-41,-84,-127,94,67,118,-2,-64,178,-337,-126,-69,-61,-81,-315,70170
132,27,-38,41,50,54,190,113,-3,84,106,101,-106,5,106,52,-1,-30,-77,96,62,133,37,-20,155,-349,-81,-26,-33,-62,-202,70171
126,24,-54,31,43,49,178,196,-49,69,39,122,128,-61,-1,55,0,-30,-88,108,79,133,40,-16,148,-324,-94,-42,-34,-64,-204,70172
158,22,-62,25,49,70,172,75,-34,9,40,86,110,-52,10,46,-53,-76,-161,86,109,116,-30,-73,118,-257,-156,-94,-95,-121,-280,70173
105,11,-33,34,36,79,106,134,-46,-9,-16,24,12,51,0,1,-42,-50,-95,49,4,71,-7,-7,77,-396,-91,-37,-60,-94,-172,70174
-20,-4,-5,18,6,47,-25,43,38,47,-76,-78,-7,220,-17,-93,5,-5,-10,-26,-193,-24,33,91,-13,-691,2,10,4,-25,32,70175
-225,-56,2,-16,-53,-40,-204,-171,22,-56,-198,-141,20,-30,-52,-221,61,55,116,-128,-538,-137,75,238,-112,-1166,128,87,103,82,307,70176
-193,-49,-11,3,-46,-40,-130,-40,-23,4,66,62,49,8,65,-180,57,47,137,-86,-488,-77,73,237,-48,-1107,131,96,118,107,187,70177
-41,-1,-28,19,-12,-3,34,206,70,108,201,75,23,22,105,-75,7,-9,19,-7,-214,15,38,125,49,-727,-1,24,43,22,-85,70178
50,14,-27,31,16,37,120,213,40,59,247,22,-42,93,79,-7,-9,-31,-29,36,-35,72,26,79,102,-486,-53,-7,-1,-16,-126,70179
48,-6,-40,7,12,22,111,-40,24,43,127,4,-11,-1,4,-20,-29,-57,-72,14,-10,56,-10,47,82,-436,-82,-40,-40,-47,-163,70180
136,16,-61,18,39,48,199,-24,-16,-30,170,-19,1,60,14,55,-26,-59,-110,96,163,130,-15,26,154,-199,-110,-53,-59,-64,-247,70181
253,58,-82,50,65,76,323,375,-211,-303,157,71,93,69,29,147,-33,-67,-144,196,429,242,-22,-15,256,166,-163,-72,-90,-76,-372,70182
261,71,-61,47,77,84,318,415,-163,-313,139,65,103,97,21,187,-21,-36,-103,234,499,270,4,6,280,250,-140,-38,-63,-54,-323,70183
271,69,-47,41,82,90,293,274,-138,-63,-166,44,-30,47,38,188,-15,-38,-132,216,509,258,-8,-6,260,284,-140,-64,-78,-62,-300,70184
297,75,-49,49,73,85,344,313,-52,-7,-91,130,67,154,42,216,-38,-80,-193,227,605,277,-40,-62,271,450,-194,-113,-130,-105,-406,70185
241,60,-42,35,56,69,284,251,-100,-42,17,84,-141,-82,19,177,-58,-77,-203,160,505,207,-56,-76,191,367,-185,-112,-148,-126,-323,70186
190,37,-40,8,39,52,195,118,-60,-103,-81,-25,24,-18,37,120,-69,-70,-210,88,365,135,-66,-77,115,230,-177,-117,-146,-146,-299,70187
164,35,-38,-7,25,31,185,-82,75,128,54,-91,105,-14,51,118,-40,-41,-168,78,333,131,-37,-46,98,175,-146,-86,-114,-122,-225,70188
0,16,-32,-10,-30,-40,28,-84,109,-3,5,-33,42,19,54,25,37,48,-5,17,44,47,40,115,19,-228,15,26,9,-3,78,70189
-66,-6,-13,-12,-36,-51,-40,-51,79,72,-36,-8,49,-24,49,-30,48,65,61,-28,-129,-11,50,178,-25,-466,81,68,52,34,166,70190
-30,0,-7,-4,-22,-30,-5,-107,73,121,69,15,70,-137,87,-7,44,44,41,3,-104,3,28,170,2,-454,54,54,41,17,53,70191
77,27,-28,19,6,7,112,-115,80,87,215,45,-33,-96,91,92,40,24,-20,109,135,109,32,98,100,-159,-14,20,7,-9,-83,70192
63,8,-23,7,11,9,52,-47,-116,39,-67,62,-124,-17,83,54,0,-1,-39,86,103,81,1,65,64,-185,-49,-16,-18,-26,-92,70193
55,2,-6,-3,10,24,34,39,-82,-33,-69,-15,-117,-98,35,18,-23,-33,-64,64,74,46,-28,43,35,-203,-79,-41,-43,-46,-130,70194
331,76,-49,39,76,89,369,325,-99,-2,241,156,-41,132,180,247,-69,-109,-228,276,651,275,-70,-126,255,556,-243,-132,-157,-143,-538,70195
375,91,-53,39,79,85,438,320,-141,35,408,229,-42,214,118,302,-84,-104,-270,299,805,317,-78,-171,276,800,-265,-170,-197,-172,-524,70196
287,52,-38,24,58,74,306,109,-68,92,240,-10,-23,75,35,236,-55,-57,-204,212,627,233,-53,-96,180,586,-186,-119,-150,-124,-321,70197
235,36,-40,6,33,47,230,56,-4,161,130,-11,79,-51,60,186,-41,-58,-181,149,529,181,-51,-76,112,469,-175,-97,-131,-120,-264,70198
67,5,-19,-9,-8,4,55,-97,58,170,-22,-16,48,49,30,24,-38,-44,-101,15,212,60,-60,18,-25,48,-94,-66,-83,-76,-68,70199
39,9,4,3,-8,7,40,-137,158,0,173,-55,16,-72,51,7,-33,-30,-61,15,137,45,-60,52,-26,-50,-64,-50,-53,-42,-48,70200
21,3,-4,-8,-14,-9,42,-135,53,-61,-17,-11,19,-125,-30,6,-19,-20,-32,20,121,38,-39,75,-17,-86,-41,-29,-37,-36,-20,70201
23,3,-8,-6,-20,-20,45,9,-3,14,-65,5,-34,30,16,46,21,23,16,42,142,77,16,116,17,-71,8,21,12,15,-11,70202
68,34,-25,15,-10,-13,107,58,10,-69,61,59,-32,7,56,105,37,38,18,98,232,125,33,121,88,38,10,36,26,35,-38,70203
58,21,-43,9,-11,-15,101,86,-85,-109,54,49,-311,142,20,86,12,9,-23,85,235,111,-9,85,65,63,-18,-9,-11,-2,-107,70204
138,37,-45,14,14,11,177,172,-62,-46,52,-24,-240,106,-16,131,-21,-36,-122,118,389,152,-61,1,95,276,-98,-80,-87,-68,-256,70205
222,59,-51,15,34,36,280,11,-45,1,69,77,-56,156,97,219,-20,-30,-166,182,564,223,-42,-42,166,516,-137,-88,-118,-102,-326,70206
254,69,-42,11,44,37,315,109,-62,56,293,66,28,274,94,260,-2,0,-150,212,643,262,-11,-36,197,643,-140,-67,-111,-93,-310,70207
199,55,-11,9,38,30,194,8,32,80,90,69,-81,222,15,160,-50,-49,-167,119,482,150,-52,-60,88,465,-158,-99,-141,-122,-228,70208
38,-1,10,-12,3,5,-43,-95,21,40,-39,-52,63,-50,-12,-27,-78,-76,-113,-28,118,-24,-92,7,-71,12,-102,-96,-120,-100,-55,70209
24,1,42,-1,18,23,-32,2,37,85,-41,18,143,-189,15,-6,-31,-30,-41,3,80,-12,-55,79,-29,-44,-34,-50,-58,-29,-31,70210
41,0,18,6,1,-5,30,96,58,62,-19,51,103,-121,14,36,-7,-1,-17,56,116,13,-30,98,18,13,-16,-28,-23,0,-51,70211
77,17,-11,8,5,-6,78,202,22,113,174,-114,-25,-215,1,85,-3,6,-29,95,186,51,-23,80,51,121,-27,-22,-24,-11,-69,70212
66,36,6,7,8,-1,75,63,0,84,164,-73,-57,-55,28,105,32,26,10,112,179,67,11,111,62,113,12,19,8,16,-16,70213
66,15,-21,-15,-10,-14,89,-82,-105,-166,73,-71,-117,67,35,111,-3,-11,-61,102,218,53,-27,53,59,174,-47,-33,-40,-25,-113,70214
160,34,-29,-4,21,0,196,86,-9,3,-11,-2,-163,-35,92,177,-29,-41,-108,160,408,134,-54,-1,126,437,-115,-74,-85,-66,-280,70215
249,53,-41,6,39,16,292,269,-18,63,230,-49,-132,65,62,249,-54,-58,-142,212,612,202,-62,-65,178,707,-171,-100,-127,-109,-382,70216
249,49,-39,4,33,11,267,289,-50,91,-2,-62,-139,185,49,218,-60,-66,-181,167,591,184,-67,-97,124,706,-181,-136,-155,-137,-344,70217
207,35,-23,-13,24,15,200,35,89,2,188,14,37,6,54,163,-65,-70,-189,113,499,139,-82,-97,60,589,-173,-136,-177,-149,-248,70218
16,6,31,-29,-11,-12,-1,-29,121,-80,111,172,-50,-77,30,7,-50,-35,-91,-18,152,0,-66,10,-90,120,-59,-81,-95,-78,22,70219
-44,-13,26,-49,-28,-32,-64,-131,7,-52,172,43,-8,-98,9,-13,-20,-9,-47,-42,56,-20,-44,55,-97,-28,-27,-47,-52,-45,11,70220
-29,-5,35,-27,-9,-15,-64,87,52,12,59,-17,-14,-88,22,6,2,23,-8,-28,41,3,-25,91,-78,-60,6,-15,-13,-11,47,70221
-42,-26,19,-45,-25,-34,-83,-195,34,89,-79,-95,-136,-153,-24,-34,-20,-9,1,-61,-18,-26,-35,85,-102,-150,0,-20,-15,-29,-11,70222
-19,-16,15,-13,-7,-13,-37,-86,-4,-25,31,-79,67,49,-23,-21,-1,2,19,-27,15,-5,-19,92,-69,-131,7,-18,-7,-15,6,70223
-5,-4,13,5,2,-4,8,-37,-86,9,135,-64,156,-12,-18,-7,-19,-24,-20,-12,74,6,-29,48,-56,-68,-22,-55,-34,-33,5,70224
152,26,-33,12,22,13,191,67,-177,30,330,1,-194,111,16,126,-63,-76,-137,105,397,125,-76,-68,68,369,-143,-124,-119,-108,-314,70225
376,82,-52,35,70,67,434,316,-54,152,388,87,-296,135,154,338,-68,-95,-238,273,881,330,-78,-177,256,1037,-258,-162,-185,-165,-584,70226
561,129,-59,43,131,135,562,308,-56,150,354,94,-115,39,118,475,-108,-134,-371,369,1249,446,-114,-303,350,1586,-378,-237,-284,-253,-785,70227
457,84,-34,-2,100,116,379,418,-159,-159,150,90,-98,-24,14,366,-137,-136,-386,269,1067,319,-154,-305,206,1396,-352,-256,-311,-283,-626,70228
94,11,29,-54,8,33,-16,269,-47,-176,-184,-71,-85,-172,-14,101,-47,-27,-118,55,391,63,-81,-40,-43,509,-95,-88,-135,-104,-65,70229
45,18,37,-13,10,15,-12,57,7,78,-148,-7,49,-38,18,85,-1,18,-10,68,258,38,-33,58,-26,319,-12,-23,-38,2,30,70230
23,21,34,1,-2,-1,24,58,96,-121,-56,11,19,-108,-40,74,-6,15,-7,50,200,19,-40,63,-32,252,-7,-22,-36,12,37,70231
83,50,8,23,16,-7,155,7,69,-85,-29,27,-104,41,8,135,8,21,-5,116,324,99,-17,60,57,416,-10,-8,-29,16,-48,70232
95,51,-10,22,12,-16,189,-14,81,-76,117,23,8,75,90,174,35,47,8,153,392,131,7,63,93,497,4,3,-14,30,-22,70233
89,44,-25,10,2,-15,170,-9,84,35,184,51,-155,28,69,177,25,39,-13,149,400,128,-1,52,80,506,-11,-16,-21,21,-41,70234
341,83,-59,37,68,37,423,318,-53,-70,359,117,-215,148,32,324,-73,-81,-219,275,852,282,-85,-182,228,1141,-236,-163,-184,-140,-558,70235
794,175,-112,70,176,149,885,534,-138,-20,701,192,-229,288,132,642,-205,-250,-570,512,1733,570,-207,-556,482,2375,-594,-382,-462,-406,-1237,70236
782,187,-94,52,172,154,861,403,-143,35,506,118,-216,199,115,648,-228,-251,-607,472,1807,542,-240,-583,403,2539,-612,-412,-505,-462,-1112,70237
502,118,-47,0,97,91,544,113,-131,5,141,43,-190,93,-12,463,-148,-140,-428,300,1327,362,-174,-378,194,1937,-387,-295,-375,-326,-592,70238
9,11,20,-67,-28,-38,4,-126,-111,-25,-343,-82,-63,-229,-85,125,-12,44,-68,26,401,34,-61,2,-129,678,-9,-58,-81,-49,138,70239
-83,-1,20,-51,-53,-57,-92,-46,-117,77,-179,-120,-4,-199,-96,42,13,63,41,-10,152,-31,-39,106,-147,327,71,5,2,34,212,70240
-52,-5,15,-33,-47,-56,-56,16,-35,23,-104,-51,-12,-112,-44,16,-44,-4,-31,-39,143,-48,-90,20,-156,335,-2,-65,-68,-29,74,70241
14,7,15,-14,-21,-40,0,-76,-6,81,-218,-8,-142,-21,3,74,-10,19,-9,26,222,6,-45,17,-89,405,-11,-43,-36,-7,27,70242
18,12,22,-8,-15,-34,39,-157,26,169,-211,34,-166,-93,68,92,-3,18,-20,59,265,35,-37,13,-57,467,-12,-42,-30,4,1,70243
90,26,22,8,5,-1,119,-157,75,130,32,-4,-68,-135,117,141,-26,-6,-47,113,396,87,-58,-32,4,645,-55,-60,-59,-15,-148,70244
330,66,-35,23,60,54,368,14,-123,115,373,110,-54,12,37,309,-80,-90,-191,270,869,271,-102,-207,185,1287,-224,-154,-178,-122,-513,70245
601,120,-80,44,125,125,659,252,-126,-6,526,137,67,54,16,515,-138,-176,-434,425,1426,459,-175,-424,347,2079,-426,-310,-348,-265,-853,70246
656,163,-71,66,141,142,737,531,-101,-47,355,254,-201,128,70,581,-136,-152,-453,460,1586,504,-169,-423,364,2325,-415,-310,-352,-266,-800,70247
520,156,-49,61,100,74,646,444,-140,-3,373,187,-231,203,101,544,-63,-51,-315,419,1424,450,-112,-292,302,2127,-273,-204,-248,-177,-499,70248
149,63,-10,-6,-6,-22,267,100,-78,55,88,-6,40,99,58,285,9,39,-79,186,773,191,-46,-52,44,1261,-51,-65,-95,-36,16,70249
46,36,5,-27,-22,-30,120,-62,-144,-55,36,-34,-32,315,25,173,-11,7,-23,110,549,100,-49,-16,-14,968,-38,-65,-74,-6,-38,70250
83,20,11,-38,4,9,87,-97,-27,-31,-50,-64,-218,259,-40,165,-45,-20,-84,116,566,101,-87,-62,-2,1010,-82,-119,-105,-28,-130,70251
80,24,34,-30,4,22,56,-188,-12,-218,25,-95,-183,137,72,171,-14,22,-26,128,534,114,-61,-15,1,956,-24,-67,-60,33,-40,70252
67,16,32,-38,2,11,33,-144,-48,-226,10,-167,11,-80,-8,147,-9,11,-15,102,486,96,-54,-7,0,884,-18,-59,-64,27,-57,70253
155,39,19,-23,34,26,125,-4,-97,-85,234,-56,111,-92,18,188,-51,-41,-85,162,647,138,-86,-94,50,1074,-106,-123,-114,-31,-223,70254
643,149,-65,48,148,132,664,353,-141,-38,446,190,67,224,63,585,-130,-162,-376,519,1626,531,-159,-423,417,2409,-420,-311,-331,-213,-955,70255
950,231,-131,78,202,168,1022,525,-46,-17,664,427,82,411,138,874,-157,-204,-587,746,2334,784,-187,-617,630,3421,-593,-413,-477,-339,-1290,70256
1009,241,-129,69,205,157,1070,584,-92,13,592,468,-57,268,189,945,-164,-193,-650,789,2534,836,-197,-658,642,3763,-625,-443,-522,-375,-1260,70257
836,215,-75,40,167,131,889,384,-162,45,514,336,-184,121,145,836,-139,-143,-553,689,2287,724,-193,-545,504,3505,-503,-381,-453,-298,-874,70258
250,75,7,-51,4,-4,231,38,-35,-113,-56,-148,-53,-201,-42,365,-79,-30,-242,267,1156,238,-162,-188,29,2052,-154,-202,-240,-103,-71,70259
60,46,43,-53,-26,-37,17,11,14,-139,-239,-198,-14,-166,-18,212,-23,29,-78,137,691,87,-103,-27,-84,1452,0,-109,-108,12,99,70260
23,41,62,-40,-22,-26,-1,142,28,-38,-127,-65,22,-204,-51,185,-8,44,-42,96,572,56,-68,-16,-92,1283,9,-95,-67,39,105,70261
-36,-5,49,-63,-46,-38,-75,-32,38,-33,-174,-42,233,-314,-62,104,-50,-3,-70,16,404,-40,-121,-52,-167,1049,-33,-131,-100,-10,85,70262
-19,-12,21,-68,-58,-49,-61,-358,10,7,-113,-79,30,-116,-56,89,-73,-36,-101,-2,384,-42,-158,-71,-178,1027,-56,-162,-130,-38,-17,70263
-3,2,49,-57,-30,-41,-42,-226,72,127,107,-46,42,-80,-12,114,-24,14,-39,26,364,-16,-111,-18,-132,979,-11,-86,-75,9,28,70264
184,43,9,-27,21,-1,154,36,-88,100,171,-30,55,-116,62,272,-17,0,-81,160,678,136,-54,-94,39,1406,-89,-100,-99,-23,-236,70265
545,119,-50,18,117,77,564,376,-118,147,390,149,57,335,55,545,-98,-110,-361,363,1392,393,-136,-382,266,2397,-360,-274,-304,-226,-798,70266
599,141,-40,31,120,81,651,340,-135,40,380,253,98,232,65,584,-143,-148,-468,380,1551,421,-188,-474,258,2642,-430,-344,-389,-317,-816,70267
445,115,-40,3,66,29,516,317,-149,-4,365,82,157,17,92,471,-134,-115,-427,269,1326,308,-206,-407,119,2383,-354,-325,-362,-283,-539,70268
11,3,25,-69,-44,-73,54,15,-10,-40,16,-69,83,-97,-53,147,-63,-7,-176,-15,526,-4,-155,-118,-190,1303,-77,-159,-167,-107,111,70269
-3,3,25,-53,-33,-56,-26,-98,42,-158,-16,-97,26,-154,-39,96,-65,-23,-116,-7,429,-22,-144,-79,-174,1134,-53,-140,-133,-58,31,70270
151,45,21,-20,22,7,105,71,4,42,-88,-41,348,50,-33,213,-63,-39,-126,142,736,131,-129,-126,-10,1521,-110,-146,-144,-45,-165,70271
122,38,20,-39,12,-13,60,61,-17,-130,-287,17,141,59,-6,205,-53,-32,-106,128,701,108,-132,-105,-17,1487,-98,-140,-131,-24,-120,70272
-1,6,36,-50,-29,-41,-51,-7,107,-73,-228,-13,-33,-105,28,131,12,38,9,37,434,22,-65,19,-88,1156,22,-49,-30,57,117,70273
-120,-18,47,-50,-60,-72,-154,-188,145,1,-143,-27,24,-109,-30,55,65,105,123,-72,132,-70,1,127,-157,767,148,58,67,119,322,70274
-14,5,14,-38,-36,-54,-50,-239,37,52,-34,-138,162,32,-36,125,47,70,47,-21,276,-1,-9,39,-74,945,65,13,24,53,60,70275
354,87,-9,11,81,52,327,96,-140,-47,185,8,-34,209,13,391,-24,-31,-226,198,936,256,-77,-234,159,1840,-189,-149,-163,-133,-456,70276
376,93,-31,-13,73,46,361,226,-129,-217,157,116,-68,52,30,422,-73,-72,-319,204,1046,258,-127,-317,141,2035,-267,-198,-242,-214,-519,70277
144,33,11,-41,7,-17,117,-23,-110,-127,-21,-14,18,-61,-32,233,-54,-10,-203,49,627,68,-110,-176,-55,1488,-129,-135,-165,-154,-190,70278
-133,-13,74,-53,-47,-69,-181,-77,109,-65,-22,-184,179,-234,-61,25,15,75,26,-115,55,-133,-34,65,-238,689,87,2,-3,10,328,70279
-163,-37,65,-52,-50,-71,-228,-92,24,-49,-398,-192,89,-90,-82,-39,-9,44,34,-140,-63,-181,-56,62,-251,509,74,-19,-2,22,280,70280
-141,-32,69,-42,-53,-57,-191,-211,25,-34,-201,-127,10,-58,-66,-19,19,49,55,-107,-57,-149,-26,65,-209,507,76,2,22,46,252,70281
-145,-14,66,-34,-46,-51,-168,-185,37,-121,-126,25,26,-28,-42,-12,48,61,80,-87,-60,-135,-10,94,-181,500,95,17,40,63,244,70282
-200,-54,55,-65,-65,-66,-250,-132,105,-101,-215,-103,151,-139,-100,-86,-7,31,69,-168,-195,-206,-45,79,-248,323,87,1,22,36,248,70283
-169,-45,52,-58,-53,-48,-240,41,185,-174,-179,-173,241,-232,-68,-99,-27,4,59,-169,-212,-210,-36,57,-244,286,52,-9,10,20,205,70284
-87,-21,67,-40,-17,-15,-156,25,101,-55,-325,-66,190,-118,18,-31,7,23,65,-93,-84,-117,-8,52,-160,433,44,11,33,29,158,70285
126,31,33,3,45,25,92,94,-138,-23,-99,105,29,25,5,148,-14,-24,-31,88,370,70,-26,-64,35,998,-73,-49,-38,-27,-183,70286
311,62,-31,13,64,32,329,236,-77,-31,152,225,-59,15,50,290,-102,-119,-235,230,834,213,-110,-252,159,1625,-256,-186,-186,-148,-509,70287
146,32,-13,-6,10,-17,175,-62,123,-148,73,76,36,-52,-11,179,-78,-69,-186,71,544,78,-109,-169,-6,1300,-161,-142,-158,-114,-211,70288
-216,-46,47,-57,-76,-91,-221,-441,160,-95,-287,-160,68,-133,-130,-110,-42,15,14,-232,-208,-237,-75,52,-309,312,70,-20,-6,1,319,70289
-223,-52,66,-57,-65,-77,-290,-177,108,-98,-185,-270,88,-190,-52,-138,7,56,90,-229,-333,-237,-18,116,-296,108,118,44,69,55,361,70290
-94,-26,49,-39,-19,-29,-174,-143,37,-117,-65,-74,86,41,-29,-14,29,56,91,-86,-70,-81,24,95,-140,391,83,40,77,67,194,70291
-145,-32,59,-34,-46,-35,-218,-169,31,-76,-126,-17,90,-6,3,-68,6,27,73,-153,-178,-143,-2,96,-189,263,102,26,54,57,251,70292
-127,-33,37,-20,-49,-49,-184,9,78,90,-198,-93,70,-41,-25,-99,-52,-24,-6,-197,-189,-165,-53,20,-200,249,24,-38,-4,-9,145,70293
-29,-10,-1,-18,-23,-39,-58,112,76,126,-189,11,87,-21,10,5,-14,-13,-11,-71,62,-43,-19,-10,-73,547,-18,-37,-18,-14,23,70294
41,24,-3,-10,-4,-12,28,91,-19,37,33,106,2,80,-11,77,3,-4,-22,-12,199,20,5,-25,0,741,-30,-20,-17,-22,-82,70295
281,76,-17,32,68,45,288,213,-53,-43,131,201,50,133,61,249,-67,-80,-224,97,625,169,-64,-218,135,1361,-209,-127,-160,-171,-426,70296
247,67,0,31,66,40,255,35,-57,-3,209,145,142,-73,50,218,-85,-76,-271,32,549,102,-96,-234,51,1306,-201,-146,-186,-211,-331,70297
109,45,29,18,28,1,91,289,-101,-111,-46,30,-54,-116,18,126,-51,-24,-179,-59,293,1,-69,-138,-56,964,-114,-86,-114,-152,-59,70298
-131,-11,63,-13,-36,-45,-186,-87,98,-101,-33,-202,-163,-134,-19,-38,7,49,4,-171,-159,-162,-9,50,-198,333,48,24,7,-16,286,70299
-136,-17,71,2,-23,-20,-194,-173,94,-74,-57,-66,-148,-123,4,-32,57,85,124,-105,-198,-133,44,132,-143,226,112,96,91,86,299,70300
-74,-17,17,-13,-22,-35,-110,-119,-99,-26,-17,-17,-47,62,-50,16,38,48,83,-33,-32,-70,29,87,-63,430,80,75,59,69,175,70301
-89,-17,24,-28,-22,-29,-139,-71,33,2,51,1,-68,40,-40,3,42,54,77,-48,-74,-86,40,89,-74,389,88,70,57,63,231,70302
-34,-3,33,-14,-1,-7,-90,40,49,7,-56,-5,-54,-60,26,32,29,34,53,-15,6,-49,28,53,-35,485,42,57,46,51,143,70303
20,22,33,5,19,17,-26,85,-42,-138,-97,-31,-64,-37,-21,66,10,16,29,28,112,-10,0,29,4,638,15,54,15,30,35,70304
153,54,29,29,66,59,117,116,86,-1,120,16,59,-35,-16,150,-33,-18,-83,99,358,73,-48,-82,82,984,-86,-35,-60,-28,-215,70305
263,67,-1,13,79,65,225,121,-44,-81,106,148,119,120,19,224,-85,-75,-215,116,564,105,-94,-218,112,1304,-195,-119,-168,-141,-374,70306
267,66,-6,11,65,38,247,96,-104,-35,-84,16,64,136,33,239,-47,-49,-193,101,564,116,-52,-207,110,1320,-173,-88,-162,-159,-326,70307
289,93,-8,30,70,45,318,159,-32,150,55,71,-135,61,75,308,-4,-24,-158,163,685,197,-14,-177,160,1460,-150,-60,-133,-135,-283,70308
-104,2,58,-24,-33,-49,-128,-144,72,35,-260,-74,10,-191,-75,-2,35,80,53,-102,-41,-101,12,84,-157,473,102,64,41,29,321,70309
-365,-68,102,-60,-103,-89,-461,-291,117,-24,-351,-223,215,-397,-160,-241,56,123,202,-336,-665,-330,26,261,-362,-361,254,155,155,133,637,70310
-525,-105,114,-82,-138,-119,-649,-377,132,55,-184,-269,180,-278,-49,-402,77,132,294,-516,-1100,-494,47,337,-494,-955,323,210,216,150,821,70311
-476,-122,98,-76,-113,-96,-610,-255,48,112,-210,-283,78,-208,-122,-400,56,82,264,-490,-1071,-464,45,280,-451,-986,252,173,197,103,641,70312
-291,-93,57,-57,-57,-61,-400,-38,-26,74,-184,-131,84,-69,-123,-272,7,7,146,-317,-686,-285,4,154,-283,-532,116,94,107,36,337,70313
-368,-91,73,-44,-71,-84,-463,-382,117,-147,-302,-65,213,-35,-77,-314,43,59,199,-364,-870,-338,31,249,-327,-764,214,149,167,101,505,70314
-62,-5,42,16,11,-4,-89,-108,3,-55,-30,31,-8,95,61,-46,50,35,65,-128,-305,-89,50,107,-46,-44,65,83,94,28,6,70315
469,114,-34,64,133,102,492,276,-330,34,311,300,-73,327,141,367,-52,-96,-310,215,780,301,-35,-289,330,1426,-315,-144,-189,-243,-758,70316
534,123,-45,34,127,114,564,292,-314,-10,356,299,49,453,160,428,-105,-133,-455,245,1024,340,-85,-408,330,1814,-422,-224,-308,-356,-774,70317
199,48,7,-24,41,34,168,-123,-11,-167,82,3,146,112,90,153,-86,-75,-283,-24,393,35,-80,-203,21,1024,-230,-131,-211,-273,-195,70318
-285,-64,66,-57,-75,-78,-388,-397,135,-106,-141,-199,4,-230,-48,-242,-10,51,63,-346,-596,-351,-14,143,-327,-302,97,58,28,-42,480,70319
-324,-83,77,-43,-69,-65,-454,-255,200,-74,-214,-155,16,-376,-30,-290,15,51,139,-351,-780,-382,11,204,-326,-556,141,93,92,24,497,70320
-301,-81,79,-46,-56,-48,-437,-216,132,-49,-153,-179,-8,-401,-23,-286,11,45,163,-331,-790,-370,5,227,-281,-606,147,111,110,44,448,70321
-188,-47,59,-20,-23,-17,-266,-129,18,-30,141,-157,113,-58,-25,-165,35,57,155,-189,-535,-225,44,211,-117,-313,136,129,117,73,304,70322
-48,-3,43,20,16,12,-95,140,-6,-50,125,-70,75,249,-2,-36,34,41,126,-31,-196,-69,57,152,26,90,68,97,90,63,140,70323
24,16,12,24,30,27,-19,112,-72,-79,28,-8,79,107,-56,32,9,10,63,57,17,-2,27,100,89,365,13,45,41,37,-11,70324
279,73,-23,54,90,71,272,161,-30,-134,225,70,-59,140,60,235,-37,-65,-112,236,546,193,-15,-79,276,1098,-167,-66,-87,-62,-435,70325
325,95,-17,59,89,64,326,16,-58,33,226,72,-21,134,78,294,-36,-39,-157,249,693,244,-20,-109,287,1334,-178,-76,-115,-94,-365,70326
212,52,-16,13,39,16,199,-124,-20,109,366,-205,155,-31,90,204,-53,-46,-152,128,511,141,-33,-88,162,1142,-152,-78,-124,-112,-257,70327
57,14,33,-7,12,13,-28,-82,32,-24,-63,-258,125,9,19,48,-50,-22,-93,-44,125,-33,-40,-1,-23,654,-71,-46,-85,-89,-7,70328
-138,-23,74,-25,-28,-20,-258,-40,128,-110,-41,-168,110,-190,-113,-106,14,54,92,-144,-290,-164,4,183,-148,68,106,66,56,49,334,70329
-291,-70,62,-48,-79,-62,-386,-202,209,46,-310,-207,79,-291,-132,-215,56,90,186,-240,-584,-253,39,271,-233,-346,201,130,140,126,512,70330
-436,-107,66,-62,-122,-108,-523,-166,77,-6,-258,-312,3,-304,-118,-359,37,77,210,-389,-932,-395,38,301,-371,-820,235,139,153,118,622,70331
-439,-114,66,-52,-109,-110,-522,-161,109,68,-316,-193,117,-182,-146,-386,23,59,201,-425,-1034,-422,32,297,-380,-983,220,136,153,87,556,70332
-391,-85,72,-21,-87,-91,-450,-260,89,23,-50,-90,62,-181,-121,-338,53,98,244,-371,-990,-371,63,327,-311,-977,246,173,195,117,527,70333
-278,-48,44,-6,-57,-66,-316,-144,122,136,-92,-106,-96,-108,-93,-237,57,84,205,-254,-760,-245,77,275,-187,-707,197,159,178,99,348,70334
-123,-17,29,11,-12,-20,-187,-12,25,124,-52,-4,-161,-119,32,-118,53,42,105,-156,-494,-132,76,180,-61,-344,100,111,123,36,135,70335
119,14,22,33,60,67,-11,158,32,46,91,-20,-197,-9,38,8,-51,-65,-135,-78,-78,-32,-30,-59,37,225,-132,-51,-68,-157,-239,70336
139,26,32,35,70,83,4,207,73,31,174,-61,-123,81,-10,10,-64,-62,-154,-83,-2,-34,-39,-86,28,310,-155,-66,-109,-194,-180,70337
-50,-16,1,-2,-8,-13,-103,150,23,-122,-95,-17,137,178,-22,-63,-13,9,-30,-147,-237,-119,3,53,-51,-19,-18,19,-20,-105,100,70338
-193,-38,6,-11,-46,-72,-155,-143,2,25,-250,115,186,203,-43,-108,73,100,142,-149,-419,-141,80,236,-66,-329,145,138,129,49,333,70339
29,30,-25,24,13,-15,131,-157,-28,83,45,152,47,236,-14,69,50,42,73,95,84,87,76,131,169,270,20,77,83,41,-25,70340
133,56,-22,44,50,25,191,10,-32,-10,20,-9,30,329,87,129,18,1,15,169,314,171,26,64,238,597,-45,21,21,16,-136,70341
32,33,13,34,29,17,43,44,131,85,46,-170,52,68,41,38,22,35,66,63,98,67,39,136,125,354,42,62,66,65,58,70342
9,19,17,22,26,8,-3,43,26,52,-71,-56,101,-132,9,12,22,28,64,27,43,35,35,145,101,292,47,62,62,61,47,70343
-14,3,-11,11,3,-11,-5,65,-67,-28,210,63,35,-106,-34,17,25,22,62,16,49,50,30,134,102,287,42,41,68,60,32,70344
-59,15,15,14,-7,-6,-29,100,27,-88,246,63,11,-17,-68,5,33,46,86,2,-13,21,36,164,69,187,82,72,85,81,147,70345
-323,-63,43,-34,-85,-74,-346,-216,176,-246,43,-66,118,-186,-60,-235,45,76,206,-214,-579,-216,39,298,-162,-528,218,133,165,143,503,70346
-342,-68,44,-34,-72,-64,-377,-284,153,-156,-127,-50,168,-34,-74,-281,50,72,251,-248,-690,-249,45,316,-182,-706,216,146,185,163,451,70347
-207,-45,36,-21,-38,-14,-244,-92,62,-228,-238,-108,131,86,-86,-191,17,32,194,-139,-465,-160,42,231,-64,-429,126,104,142,121,201,70348
38,20,12,37,27,44,-7,-12,-39,-172,149,-24,18,30,11,17,39,13,119,79,-27,45,64,145,141,160,41,66,101,90,-55,70349
48,16,21,36,33,34,8,-5,19,-27,93,53,20,160,26,25,31,13,84,63,-34,17,41,129,118,221,35,57,83,57,20,70350
-183,-53,50,-13,-35,-34,-253,-85,17,-108,-72,-68,47,-144,-35,-207,-14,0,83,-198,-587,-280,-12,158,-150,-395,88,58,69,21,268,70351
-319,-76,68,-22,-61,-55,-388,-86,92,57,-222,-109,83,-296,-52,-309,38,66,173,-326,-977,-416,51,251,-274,-869,197,143,150,68,490,70352
-426,-87,76,-24,-89,-80,-495,-297,175,106,-116,-102,124,-246,-77,-389,80,124,259,-403,-1270,-508,94,340,-343,-1282,284,218,233,116,627,70353
-419,-92,85,-9,-77,-57,-502,-73,98,85,-118,-266,160,-232,-136,-423,33,91,216,-449,-1353,-552,63,292,-380,-1412,243,178,198,59,566,70354
-804,-199,140,-60,-161,-137,-908,-511,193,19,-279,-284,196,-524,-194,-759,51,137,418,-743,-2128,-853,78,497,-688,-2510,442,276,322,169,1115,70355
-1049,-255,129,-81,-232,-193,-1133,-660,260,-34,-652,-369,292,-448,-245,-967,110,182,626,-860,-2626,-988,134,698,-797,-3306,612,383,478,325,1344,70356
-832,-203,97,-33,-164,-128,-880,-366,176,-40,-538,-252,105,-210,-249,-814,114,132,575,-674,-2232,-766,161,611,-558,-2926,507,347,442,304,956,70357
-350,-83,15,28,-34,-25,-358,-148,26,79,-122,8,14,-119,-106,-409,87,56,343,-268,-1218,-303,149,347,-121,-1713,242,212,285,189,293,70358
216,49,-75,92,94,87,263,207,-197,94,198,242,-27,68,29,78,29,-52,37,196,91,244,80,13,360,-56,-82,34,61,15,-471,70359
290,72,-78,79,98,88,363,319,-163,-52,276,223,-4,231,59,185,15,-42,-39,285,476,370,56,-48,425,441,-120,-1,-7,-15,-481,70360
310,78,-80,63,99,97,389,260,-179,-102,344,148,-10,261,1,234,-5,-53,-88,330,667,420,40,-76,435,705,-149,-40,-48,-32,-520,70361
230,50,-68,39,66,71,292,170,-159,-59,222,119,-251,198,5,170,-41,-70,-107,224,571,343,-12,-72,321,624,-134,-58,-65,-39,-365,70362
120,46,-33,36,44,42,165,-11,-97,-4,69,88,-182,147,12,92,20,9,8,119,327,258,34,44,219,318,-20,29,18,29,-123,70363
131,37,-33,28,46,31,145,28,-55,51,-103,116,-228,35,43,89,9,-5,-31,107,352,256,16,10,207,345,-41,-6,-7,7,-143,70364
6,-8,-26,-7,10,5,-48,-49,-118,143,-59,-14,-32,-102,-6,-43,-8,-13,-4,-22,60,92,-8,45,60,0,-8,-5,1,1,21,70365
-101,-28,-7,-15,-25,-15,-143,-101,90,161,56,-82,-100,-160,32,-103,35,33,92,-56,-149,31,31,142,11,-269,87,53,79,73,157,70366
-135,-20,3,-11,-28,-21,-153,-19,77,24,-8,112,-36,-176,-10,-92,78,85,184,-35,-228,21,86,218,34,-367,163,132,154,153,224,70367
-71,-12,-6,-4,-9,-10,-78,12,-9,120,217,194,-87,6,-25,-51,50,35,120,27,-118,34,54,150,89,-188,89,82,110,106,51,70368
76,19,-39,12,18,18,82,126,-82,166,270,141,-47,128,122,41,-10,-32,-42,99,107,71,-24,-6,160,204,-56,-30,-9,-6,-194,70369
90,28,-30,22,40,23,104,163,-143,132,213,168,-6,85,45,56,-22,-38,-63,102,86,14,-30,-30,134,264,-71,-45,-32,-30,-170,70370
14,12,-20,12,17,2,33,-24,-177,148,-20,88,-208,-5,4,-19,-21,-20,9,26,-161,-110,-13,18,50,60,-9,10,1,-13,-15,70371
-136,-21,13,-6,-23,-30,-132,-104,-23,8,20,33,-152,-140,-8,-130,11,37,90,-103,-527,-255,16,112,-79,-359,93,86,74,36,193,70372
-320,-74,53,-30,-75,-54,-358,-231,14,-83,-109,-140,-9,-334,-51,-275,63,83,183,-263,-982,-436,64,222,-248,-927,208,147,150,85,492,70373
-348,-86,69,-21,-63,-47,-413,-117,46,25,-235,-182,-28,-188,-79,-340,58,64,201,-321,-1155,-493,72,229,-292,-1197,214,161,174,84,467,70374
-160,-42,20,4,-17,-4,-192,54,71,53,-190,-51,205,-29,-47,-211,6,4,71,-184,-768,-320,27,86,-146,-762,59,62,72,-4,138,70375
-234,-60,7,-7,-39,-35,-231,-156,100,73,-307,-24,67,-269,-20,-222,50,56,126,-190,-800,-291,59,149,-161,-900,126,102,122,53,314,70376
-122,-17,-7,39,-10,-15,-85,-111,58,-2,-90,1,-83,-239,37,-111,63,48,138,-29,-461,-99,76,130,-17,-585,91,96,121,74,132,70377
22,5,-44,47,15,16,64,-37,28,89,88,-5,19,53,-34,-10,0,-31,33,73,-66,58,17,8,92,-132,-29,1,20,11,-163,70378
36,5,-33,18,23,29,49,74,-110,-20,66,20,74,184,-45,-17,-21,-46,-9,25,11,70,-14,-30,69,-58,-46,-20,-14,-26,-157,70379
-1,-2,-19,-3,3,2,5,139,-71,-23,-18,-9,59,113,-21,-17,22,10,26,7,-14,85,26,22,59,-107,20,19,31,5,-47,70380
69,34,-21,22,25,12,107,70,91,-23,71,124,-9,11,55,83,67,46,42,108,198,215,59,31,167,120,25,45,62,35,-106,70381
206,68,-60,41,55,28,272,165,-69,-47,5,80,-262,31,60,194,5,-23,-58,228,561,347,-3,-86,286,581,-95,-43,-31,-30,-344,70382
121,45,-46,19,30,21,154,101,-46,50,10,-13,-194,-16,34,112,-4,-32,-50,129,384,237,-19,-66,180,413,-58,-51,-46,-36,-205,70383
-27,-16,-26,-22,-28,-24,-24,-41,117,90,-64,-59,-26,-50,3,-32,-9,-10,-6,-24,54,87,-9,-23,29,4,-9,-27,-17,-19,16,70384
-154,-41,-9,-28,-62,-52,-173,-125,27,-205,-385,-55,-72,-45,-24,-125,31,33,113,-96,-210,-5,35,90,-50,-361,100,54,70,48,250,70385
-248,-60,12,-24,-69,-48,-277,38,-53,-52,-265,-144,-98,-18,-31,-196,71,72,220,-141,-435,-80,66,190,-99,-681,187,121,152,138,384,70386
-265,-66,34,-17,-59,-33,-297,92,1,84,-28,-20,-103,90,-34,-221,69,77,210,-145,-519,-118,45,197,-113,-782,194,123,166,151,381,70387
-205,-59,17,-26,-47,-35,-234,-163,14,86,-44,90,75,-73,-22,-178,30,35,147,-120,-457,-109,23,126,-63,-650,123,93,124,104,221,70388
-55,-23,-11,1,-10,-9,-46,-204,-16,115,25,55,71,26,-12,-72,-16,-32,24,-46,-204,-45,6,-23,34,-255,-19,11,10,-7,-77,70389
96,29,-28,35,27,24,153,9,-40,-13,50,120,-74,186,56,50,-26,-56,-49,89,67,44,-5,-101,132,145,-86,-39,-46,-56,-250,70390
146,49,-28,50,48,43,213,75,59,-130,-60,176,-141,69,7,132,3,-13,-54,175,197,102,13,-84,198,349,-56,-26,-22,-17,-202,70391
-41,0,-7,-5,-17,-1,-18,-115,26,-63,-83,-41,-26,-120,-57,-35,-4,3,0,6,-189,-99,-5,-15,20,-106,22,-1,5,14,47,70392
-140,-39,5,-23,-42,-10,-145,-224,9,32,-211,-33,-14,-26,-107,-148,-3,-5,48,-111,-459,-227,7,22,-92,-440,53,18,22,8,126,70393
-59,-23,-15,-8,-9,6,-40,-139,-73,16,-69,25,-126,72,-53,-57,16,6,55,-16,-260,-125,21,-5,7,-222,14,25,21,-2,8,70394
-19,-21,-26,-11,-13,-5,7,-1,29,-279,-88,-19,118,-42,-31,-35,-19,-26,-23,-15,-165,-90,-15,-78,-1,-81,-38,-15,-24,-55,-61,70395
-443,-92,59,-46,-105,-82,-443,-365,188,-195,-263,-125,162,-167,-96,-355,72,114,258,-311,-982,-377,66,240,-332,-1214,279,178,190,136,684,70396
-672,-142,86,-54,-148,-141,-708,-550,202,-46,-322,-259,-46,-313,-83,-536,155,196,513,-470,-1529,-520,148,468,-465,-2033,489,331,369,306,981,70397
-390,-87,72,7,-58,-50,-445,-229,162,131,-119,-101,-192,-140,-16,-380,108,99,361,-288,-1081,-309,111,284,-252,-1533,304,228,271,215,449,70398
-75,-17,36,42,24,38,-116,96,156,159,-51,97,-88,85,69,-158,22,-10,106,-94,-457,-72,48,23,-47,-735,67,62,87,46,-24,70399
-100,-20,25,31,-4,19,-133,100,137,100,-2,88,-10,52,61,-167,32,7,125,-134,-475,-89,70,26,-83,-758,82,65,81,26,116,70400
-127,-27,14,29,-13,-5,-152,85,227,138,-14,52,-19,46,39,-182,31,12,113,-157,-504,-101,62,34,-115,-829,99,65,90,23,150,70401
-58,-11,4,35,14,22,-82,-37,106,155,3,44,-54,-14,-30,-146,-8,-29,18,-104,-360,-53,14,-54,-81,-644,14,0,26,-36,-24,70402
-15,-16,-5,15,20,37,-50,-9,57,30,225,15,90,-265,7,-116,-31,-49,-31,-64,-246,-23,-16,-99,-42,-500,-38,-36,2,-59,-105,70403
-22,-16,2,3,7,21,-43,105,162,130,-6,19,147,-86,94,-93,1,-19,28,-51,-240,-3,20,-58,-22,-490,13,27,35,-24,-10,70404
-103,-17,5,12,-20,-13,-69,-36,61,208,-52,49,83,231,25,-105,65,56,146,-46,-319,-7,81,56,-20,-629,123,106,119,67,166,70405
-191,-31,9,6,-34,-35,-165,-117,-69,-23,-81,-67,-56,109,-30,-188,72,60,205,-85,-490,-84,87,114,-74,-872,175,127,159,119,254,70406
-259,-38,35,12,-36,-35,-276,-112,73,-29,-219,-53,-33,66,-75,-257,73,68,255,-117,-669,-155,84,161,-118,-1106,221,148,185,156,379,70407
-206,-39,-2,7,-28,-28,-196,63,-31,135,-42,-46,4,-159,-65,-188,91,79,264,-35,-527,-75,116,155,-9,-932,201,168,200,182,244,70408
153,36,-71,52,54,50,220,282,-105,204,52,112,-76,250,48,92,13,-28,6,200,195,184,49,-119,259,53,-68,-1,11,16,-321,70409
199,51,-70,42,64,55,265,255,-39,-92,120,136,-6,300,36,128,-17,-54,-81,182,295,175,9,-181,244,253,-110,-47,-52,-56,-318,70410
169,50,-42,45,61,52,224,94,-28,-10,48,160,-32,179,17,111,-1,-30,-38,149,255,147,23,-135,202,211,-65,-17,-29,-38,-258,70411
234,65,-51,52,74,63,293,162,-72,30,213,153,5,253,-29,173,-10,-39,-63,215,438,216,8,-185,257,449,-100,-52,-61,-41,-348,70412
239,66,-44,43,75,57,280,126,-163,-39,70,146,-7,302,93,187,-18,-39,-89,216,487,211,-1,-193,247,551,-122,-66,-72,-40,-309,70413
126,35,-23,20,35,29,143,20,-122,-106,-119,111,43,127,74,92,-16,-18,-55,107,271,114,0,-130,136,293,-66,-36,-50,-11,-83,70414
-509,-119,54,-67,-139,-126,-539,-240,62,-103,-332,-242,-16,-214,-111,-416,66,131,332,-311,-932,-365,73,279,-352,-1338,343,187,208,229,866,70415
-945,-202,105,-90,-228,-220,-977,-560,155,23,-450,-386,80,-359,-173,-738,204,250,770,-466,-1792,-591,213,674,-536,-2600,705,436,527,566,1393,70416
-889,-194,91,-66,-203,-189,-905,-635,178,-16,-633,-333,171,-169,-201,-680,231,250,818,-345,-1745,-498,240,703,-398,-2610,718,466,603,660,1291,70417
-664,-141,66,-22,-130,-125,-677,-432,77,27,-338,-157,-4,-49,-89,-524,218,210,701,-206,-1429,-346,239,577,-220,-2204,601,399,538,602,874,70418
299,72,-71,101,122,109,361,361,-58,41,432,173,-118,367,119,196,39,-50,46,391,346,334,87,-123,445,219,-61,14,73,134,-630,70419
499,107,-99,91,153,150,543,434,-60,141,499,131,11,345,125,319,-92,-171,-276,400,791,396,-53,-402,424,910,-293,-174,-184,-141,-828,70420
411,73,-90,52,105,104,433,354,-53,119,303,168,-18,58,36,244,-130,-185,-312,304,699,298,-95,-418,282,839,-306,-208,-236,-184,-716,70421
477,105,-82,56,123,118,527,323,-117,17,359,275,-2,260,119,343,-96,-155,-305,407,923,397,-65,-421,345,1134,-311,-203,-233,-164,-759,70422
468,94,-86,33,111,99,531,306,-113,-81,284,219,-181,253,92,356,-103,-138,-323,442,992,406,-75,-441,338,1258,-315,-217,-245,-176,-655,70423
431,103,-50,42,116,105,490,217,-85,80,128,145,-76,336,92,325,-84,-109,-282,417,919,356,-72,-376,294,1213,-255,-186,-210,-145,-551,70424
-109,-9,21,-21,-32,-49,-92,-211,127,140,-310,-26,-21,-104,16,-51,33,54,91,91,-49,-5,31,21,-73,-80,120,52,46,116,351,70425
-678,-139,85,-81,-175,-173,-711,-520,275,38,-804,-291,113,-416,-163,-481,174,219,547,-216,-1173,-387,143,475,-402,-1659,534,321,371,448,1135,70426
-819,-182,94,-83,-195,-185,-872,-538,178,-109,-809,-391,-64,-535,-200,-606,214,241,679,-284,-1535,-485,197,606,-425,-2206,644,390,488,570,1243,70427
-568,-118,59,-16,-111,-106,-585,-287,188,42,-237,-123,-79,-357,-98,-419,202,193,592,-104,-1143,-274,196,498,-175,-1729,528,333,445,549,771,70428
387,94,-84,96,131,110,507,665,-78,119,492,395,-123,220,105,332,35,-63,3,509,739,458,76,-170,558,787,-102,-13,16,131,-763,70429
508,98,-137,39,121,105,651,456,-160,-149,399,296,-221,299,47,428,-70,-138,-280,471,1150,513,-53,-420,536,1408,-294,-177,-214,-93,-878,70430
464,111,-96,29,120,107,560,353,-58,-130,351,189,-26,165,-18,393,-55,-106,-302,400,1129,478,-72,-392,446,1374,-271,-186,-220,-91,-727,70431
552,135,-94,39,144,126,633,334,31,-60,301,241,71,296,90,469,-63,-123,-316,489,1406,579,-68,-425,508,1704,-319,-216,-254,-117,-821,70432
746,182,-122,70,195,167,832,467,-54,20,306,302,-48,391,174,632,-108,-171,-406,658,1906,769,-104,-533,668,2377,-426,-292,-336,-169,-1124,70433
848,210,-135,80,202,169,938,410,-93,-34,407,357,-106,320,231,732,-119,-185,-453,771,2226,875,-137,-593,738,2846,-474,-344,-391,-166,-1151,70434
280,89,-47,-3,37,25,334,-95,-67,10,12,-64,-176,194,15,346,6,-2,-81,443,1241,478,-39,-163,324,1578,-54,-96,-111,123,-69,70435
-594,-90,107,-82,-168,-150,-622,-426,130,17,-403,-421,-62,-238,-169,-300,212,257,588,-35,-479,-150,133,544,-226,-741,600,321,395,622,1171,70436
-678,-139,90,-97,-187,-163,-726,-367,142,-9,-434,-379,33,-330,-179,-392,215,250,682,-67,-811,-240,149,612,-222,-1175,649,364,487,704,1064,70437
-213,-43,30,-12,-44,-15,-212,26,7,3,-268,-152,109,25,-50,-63,140,116,403,250,-64,69,102,302,134,-137,346,196,311,528,239,70438
562,113,-76,68,157,167,597,556,-91,112,404,263,127,370,134,479,-63,-146,-217,646,1307,543,-56,-348,587,1843,-262,-177,-147,62,-967,70439
681,139,-94,48,173,168,670,377,-123,54,488,263,-8,379,173,552,-141,-184,-444,608,1517,541,-137,-533,516,2248,-407,-293,-321,-146,-973,70440
570,116,-98,31,122,96,525,129,-205,15,214,240,41,367,89,488,-107,-132,-392,502,1308,433,-117,-456,382,2036,-333,-238,-286,-133,-722,70441
541,113,-81,24,105,84,493,190,-84,51,125,206,314,392,90,482,-91,-114,-369,501,1259,406,-111,-432,345,2016,-298,-217,-272,-137,-660,70442
530,111,-74,20,99,89,533,353,-114,63,431,203,2,341,83,496,-89,-110,-386,515,1310,412,-116,-451,329,2092,-307,-227,-283,-150,-657,70443
471,120,-76,23,90,63,545,248,-146,-39,368,208,-175,232,41,477,-59,-84,-345,485,1238,380,-93,-410,294,2030,-272,-205,-254,-125,-539,70444
219,68,-46,4,23,-12,330,48,16,-53,145,-40,-109,94,-18,279,-61,-55,-243,312,807,198,-106,-280,92,1470,-151,-161,-189,-54,-200,70445
24,30,-1,-5,-18,-57,100,-71,115,-27,-253,-32,44,-120,-46,124,-21,3,-71,182,418,54,-72,-122,-27,931,-1,-63,-74,65,59,70446
-57,23,37,-1,-22,-41,-35,-139,64,-12,-315,-211,43,-34,-48,35,12,28,28,108,191,-18,-53,-34,-78,599,84,-14,1,140,189,70447
58,32,-1,16,12,-3,73,119,44,-183,-183,-263,50,-127,-45,112,8,0,-16,167,369,80,-51,-89,25,800,23,-44,-23,123,14,70448
428,102,-71,50,106,76,484,233,-33,-190,237,25,-150,160,44,421,-23,-68,-237,411,1141,402,-56,-329,327,1807,-202,-159,-174,-27,-532,70449
364,101,-47,27,66,45,416,114,-54,-13,189,58,-74,-55,113,362,-39,-50,-251,282,1065,345,-61,-331,223,1726,-182,-156,-202,-65,-390,70450
266,64,-31,6,33,28,284,144,-142,-35,-60,-38,146,-71,97,255,-52,-63,-275,130,876,231,-101,-330,101,1464,-186,-185,-218,-86,-347,70451
368,83,-51,20,68,53,386,276,-180,-77,54,12,-65,91,38,307,-110,-127,-367,183,1091,288,-170,-414,165,1749,-283,-259,-285,-143,-532,70452
376,82,-47,2,65,46,413,158,-39,-148,18,-34,-135,133,-7,350,-98,-98,-300,223,1189,343,-152,-375,203,1869,-246,-212,-256,-104,-485,70453
273,66,-24,-16,33,31,314,65,-84,-60,229,39,116,-59,-36,289,-93,-81,-247,155,1014,275,-150,-307,119,1676,-182,-187,-224,-75,-355,70454
153,47,29,-15,30,26,142,-133,-33,136,24,68,75,-108,10,174,-70,-53,-196,64,716,142,-140,-225,7,1319,-113,-148,-173,-20,-120,70455
-116,-25,55,-57,-44,-51,-187,-176,86,51,-96,-90,-77,-104,-63,-35,16,44,46,-87,106,-69,-43,8,-177,533,110,2,5,144,285,70456
-218,-53,50,-79,-83,-82,-291,-149,66,135,-263,-96,104,104,-67,-115,45,74,113,-153,-173,-162,-5,74,-237,172,173,53,76,170,370,70457
-189,-37,50,-64,-67,-70,-229,-7,53,43,-187,-101,93,41,-46,-89,53,73,87,-122,-190,-156,13,49,-196,156,153,47,71,144,325,70458
50,3,-11,-19,-15,-24,59,29,-73,25,86,8,-67,-133,17,91,-10,-22,-92,53,236,18,-49,-143,-35,748,-45,-76,-52,9,-97,70459
90,7,-21,-12,-1,-8,135,-16,-45,-14,58,29,-53,-251,-14,114,-67,-74,-183,64,331,32,-109,-228,-40,891,-120,-139,-127,-64,-208,70460
45,14,6,-7,2,8,111,-116,-100,-66,-53,-72,48,-47,11,98,-43,-27,-132,59,263,12,-59,-177,-56,788,-70,-97,-97,-32,-51,70461
23,17,5,-1,0,-12,92,-19,-108,-229,23,28,39,-28,-33,119,29,46,-29,90,228,40,20,-85,-35,710,4,-18,-15,29,31,70462
128,52,-11,24,18,10,207,-55,12,-78,-157,86,33,272,-49,197,17,16,-97,164,441,139,1,-148,44,988,-62,-60,-56,-1,-116,70463
166,55,-6,18,38,26,200,-93,-96,-63,-9,74,-49,390,-49,228,2,-5,-143,190,538,165,-23,-174,64,1096,-84,-88,-74,-15,-162,70464
194,40,4,-11,39,29,180,194,-23,-42,191,78,43,133,16,198,-53,-48,-244,144,550,126,-92,-258,24,1154,-170,-170,-152,-100,-286,70465
267,63,14,13,64,62,253,133,6,11,317,195,-13,69,77,232,-86,-83,-318,143,663,144,-114,-326,48,1345,-241,-215,-209,-174,-402,70466
271,65,-11,-1,48,53,265,111,-35,8,62,139,98,-216,1,242,-96,-90,-324,122,688,134,-116,-346,27,1388,-245,-216,-221,-188,-414,70467
172,40,15,1,32,22,144,-32,68,-125,-26,47,104,-100,59,144,-74,-59,-262,15,457,36,-112,-286,-87,1082,-159,-184,-186,-158,-212,70468
-63,-9,48,-29,-22,-32,-134,-111,80,-48,-142,-138,19,-196,17,-36,-11,25,-92,-162,-48,-152,-63,-83,-249,422,23,-64,-54,-43,223,70469
-143,-39,52,-32,-49,-48,-229,-260,72,46,-182,-125,-81,-225,-32,-99,10,45,-6,-230,-236,-209,-30,-13,-267,138,79,-10,7,15,264,70470
-85,-29,21,-28,-38,-46,-127,-130,-42,3,31,-100,65,-151,76,-38,7,32,-24,-172,-117,-151,-14,-44,-178,295,28,-11,-1,4,129,70471
-63,-7,20,-2,-23,-45,-68,-54,3,85,13,-66,172,-67,49,8,34,48,7,-122,-66,-117,14,-14,-122,349,46,25,37,31,129,70472
-110,-18,20,-17,-56,-63,-114,71,48,138,66,-51,182,-239,-24,-53,8,26,-29,-195,-173,-183,-25,-32,-178,210,45,1,6,6,121,70473
-217,-47,28,-42,-80,-82,-260,24,38,15,-44,-20,105,-179,-41,-159,13,43,10,-301,-461,-296,-31,25,-285,-147,106,22,38,29,268,70474
-150,-27,41,-19,-40,-50,-211,27,10,136,-75,-8,22,-198,51,-107,38,70,56,-241,-414,-229,22,55,-223,-131,113,68,75,51,189,70475
258,49,-26,25,63,46,227,208,-136,97,128,119,-32,15,98,176,-80,-80,-259,5,361,58,-77,-289,54,903,-210,-134,-165,-177,-465,70476
353,77,-28,37,93,74,345,315,-82,21,147,212,33,-3,92,233,-137,-131,-415,48,628,121,-150,-424,72,1268,-324,-247,-278,-298,-621,70477
269,54,-35,-2,53,41,264,299,-68,-26,192,96,-54,-84,74,197,-136,-114,-383,10,559,97,-142,-380,-5,1173,-298,-217,-270,-283,-473,70478
-92,-26,6,-57,-43,-48,-130,-202,-102,-30,-410,-193,-138,-317,-119,-77,-66,-18,-115,-177,-68,-135,-73,-106,-247,295,-49,-71,-92,-110,157,70479
-165,-25,43,-41,-49,-57,-207,-297,-29,-129,-445,-176,-5,-329,-130,-109,8,43,38,-161,-238,-142,1,35,-238,16,65,33,29,28,261,70480
-106,-7,42,-21,-29,-42,-106,-143,-5,-77,-204,-156,0,-226,11,-40,51,66,70,-72,-133,-63,43,51,-145,119,76,69,62,61,176,70481
-59,-2,18,-8,-25,-41,-30,-116,50,48,4,-64,-81,-126,71,-11,14,29,-8,-43,-8,-26,-11,-18,-102,256,16,9,9,6,70,70482
-41,16,4,14,-19,-43,-11,78,88,62,91,-102,108,57,47,-6,8,13,-19,-33,36,-1,-12,-29,-88,317,0,4,-17,1,10,70483
-8,10,-14,10,-14,-32,8,100,-26,-185,15,-66,107,-30,2,44,-5,-2,-59,-3,133,32,-20,-65,-56,451,-32,-27,-43,-23,-32,70484
238,63,-20,37,62,54,216,268,-218,-218,178,-24,-1,43,76,191,-55,-72,-213,109,530,169,-62,-236,88,997,-185,-125,-149,-133,-402,70485
561,131,-55,58,142,136,566,323,-231,-59,370,71,-194,263,145,435,-127,-157,-444,282,1161,383,-117,-491,289,1902,-429,-269,-320,-316,-875,70486
628,139,-71,39,139,132,667,281,-247,36,534,238,-118,278,214,523,-139,-168,-524,319,1377,435,-131,-561,313,2269,-494,-308,-391,-393,-894,70487
362,77,-30,-13,63,54,374,57,-179,-29,94,199,-94,289,145,306,-140,-131,-450,76,888,188,-146,-443,48,1683,-353,-258,-347,-373,-436,70488
-301,-74,85,-85,-102,-85,-398,-440,114,-166,-346,-215,53,-291,17,-234,-28,53,-28,-420,-520,-373,-62,21,-487,-184,98,4,-34,-89,557,70489
-472,-117,102,-76,-137,-125,-585,-394,135,128,-356,-179,238,-406,-44,-360,42,115,159,-494,-972,-497,14,200,-549,-819,244,110,127,60,692,70490
-502,-116,91,-65,-141,-140,-602,-283,260,142,-308,-158,148,-254,-1,-385,81,142,248,-493,-1122,-510,66,266,-523,-1050,302,179,199,118,747,70491
-547,-133,91,-72,-149,-129,-652,-466,160,45,-371,-297,59,-196,-16,-453,90,146,286,-554,-1327,-573,78,302,-550,-1340,333,218,224,128,786,70492
-575,-148,108,-56,-133,-111,-675,-353,181,97,-451,-276,106,-315,-160,-511,83,121,283,-597,-1488,-632,75,300,-583,-1588,327,205,232,117,791,70493
-591,-156,111,-62,-138,-115,-683,-353,116,-4,-345,-292,49,-299,-152,-556,61,99,242,-624,-1577,-671,69,265,-588,-1741,289,174,223,85,682,70494
-113,-40,25,-4,-19,-14,-149,-23,28,-5,-32,-29,-28,23,-27,-153,15,-8,-8,-265,-647,-251,30,-22,-172,-558,-5,42,67,-75,-92,70495
572,94,-88,65,136,119,591,487,-109,-22,230,248,100,143,184,370,-144,-201,-527,125,718,232,-129,-552,260,1302,-487,-270,-327,-453,-1042,70496
664,128,-93,58,156,131,678,324,-163,-60,307,309,-27,76,224,434,-188,-236,-652,140,1006,288,-180,-665,237,1724,-586,-348,-454,-577,-1028,70497
405,78,-54,16,81,65,402,122,-59,-122,146,145,-71,119,98,252,-168,-163,-529,-16,641,127,-176,-510,7,1230,-441,-270,-389,-499,-550,70498
-335,-70,53,-64,-116,-122,-357,-423,61,-55,-404,-245,180,-160,-98,-267,-2,77,8,-416,-672,-354,-30,66,-457,-590,104,48,5,-94,637,70499
-472,-95,51,-45,-132,-155,-463,-446,-35,88,-305,-152,73,-101,-129,-347,77,131,236,-401,-934,-385,52,249,-415,-1016,243,165,176,102,704,70500
-297,-58,30,-23,-82,-101,-279,-149,-4,87,31,2,16,-244,-42,-229,71,88,203,-244,-643,-237,66,170,-238,-683,152,139,150,75,410,70501
-137,-34,3,-11,-46,-58,-102,71,-45,74,58,-21,96,-123,-32,-104,42,31,110,-117,-308,-99,44,64,-85,-254,45,68,80,22,150,70502
-9,15,1,17,2,-3,29,93,-52,2,77,-11,76,39,-55,26,43,24,78,13,-13,32,41,33,44,122,11,50,64,28,-9,70503
58,16,-15,9,15,15,72,88,-123,-45,67,31,63,-6,-2,95,14,0,9,73,169,87,27,-24,103,371,-54,12,10,-10,-125,70504
451,91,-78,44,108,123,466,216,-237,-48,371,260,145,107,128,385,-53,-105,-262,316,913,344,-48,-312,360,1427,-312,-161,-185,-177,-758,70505
955,211,-139,87,233,226,1021,708,-209,85,845,435,-22,492,181,777,-170,-240,-677,586,1928,697,-149,-707,649,2894,-678,-393,-478,-463,-1446,70506
1010,218,-150,72,223,193,1077,615,-196,-7,926,362,-114,506,263,806,-234,-276,-814,554,2113,709,-217,-826,582,3232,-755,-478,-602,-588,-1469,70507
718,168,-83,22,151,130,729,286,-278,-33,434,270,32,288,178,571,-212,-206,-677,313,1583,442,-203,-659,275,2602,-589,-406,-526,-528,-866,70508
-265,-54,81,-103,-104,-87,-382,-465,-50,-72,-478,-219,95,-221,-151,-216,-92,6,-104,-376,-369,-342,-125,-26,-499,11,16,-70,-122,-154,545,70509
-538,-113,122,-91,-147,-118,-681,-352,84,26,-470,-326,35,-445,-102,-440,-2,88,174,-517,-1063,-529,-39,230,-631,-972,230,97,106,40,789,70510
-635,-147,109,-97,-158,-139,-752,-529,232,47,-314,-305,4,-291,-134,-517,30,116,293,-572,-1332,-587,20,316,-645,-1393,318,175,198,101,885,70511
-839,-198,141,-108,-214,-182,-965,-680,225,-112,-481,-258,96,-498,-170,-689,80,185,421,-740,-1872,-749,81,463,-788,-2153,472,281,323,192,1179,70512
-998,-230,178,-106,-231,-192,-1132,-614,131,-176,-535,-258,13,-491,-178,-846,126,222,516,-900,-2345,-901,125,568,-904,-2860,573,346,416,245,1379,70513
-1059,-247,191,-114,-212,-171,-1215,-573,252,-42,-679,-360,-53,-507,-181,-951,135,204,593,-983,-2628,-991,150,612,-947,-3320,607,397,455,247,1337,70514
-357,-111,74,-27,-26,6,-465,72,52,-73,-169,30,95,-221,-34,-467,-15,-18,147,-548,-1376,-492,35,108,-421,-1714,112,104,122,-73,117,70515
458,70,-75,61,140,153,437,433,-155,38,100,413,158,209,158,184,-152,-207,-446,-22,295,138,-71,-486,154,521,-465,-242,-296,-480,-964,70516
669,147,-95,105,186,172,701,508,-179,34,610,302,27,270,135,433,-132,-186,-548,189,892,357,-52,-572,309,1333,-550,-271,-371,-542,-1032,70517
435,109,-59,63,116,96,473,0,-20,-48,614,198,-190,106,59,312,-73,-84,-359,103,621,224,-13,-369,171,994,-352,-164,-246,-402,-480,70518
-171,-21,18,-26,-52,-51,-159,-347,85,-139,72,-40,-111,-32,39,-97,76,119,97,-179,-397,-150,94,121,-181,-391,108,112,91,-35,457,70519
-204,-24,16,-11,-56,-48,-164,-119,83,-112,-109,-19,-27,14,-21,-114,85,95,200,-112,-413,-130,106,192,-103,-454,156,146,152,78,326,70520
-36,0,1,5,-2,0,2,47,39,-6,-50,11,-32,25,7,-16,12,-5,59,5,-101,-32,17,50,21,-5,6,24,43,5,-32,70521
65,23,-11,13,30,34,96,128,-10,77,-161,-19,-143,-53,10,43,-14,-38,5,83,100,39,-8,-14,96,283,-61,-34,-6,-11,-160,70522
140,31,-22,11,35,43,172,103,6,19,-1,101,-55,-202,-7,120,-42,-61,-51,154,322,106,-21,-64,181,612,-121,-76,-58,-35,-292,70523
239,70,-31,21,54,74,266,123,44,136,50,51,47,-163,32,217,-38,-59,-82,259,569,208,-22,-99,276,971,-156,-90,-84,-41,-389,70524
557,144,-91,55,136,137,615,189,-29,23,401,234,-58,96,53,502,-64,-115,-249,521,1252,486,-41,-294,518,1903,-322,-174,-193,-130,-845,70525
841,205,-133,69,196,172,915,530,-206,-48,697,302,44,299,196,726,-124,-188,-475,683,1860,691,-116,-515,671,2775,-513,-311,-364,-285,-1147,70526
896,218,-132,73,197,163,985,474,-194,6,725,373,-35,284,212,795,-161,-206,-569,696,2053,735,-159,-579,669,3123,-574,-367,-443,-354,-1175,70527
627,168,-77,26,116,88,663,255,-71,150,326,161,-44,226,128,598,-122,-127,-436,484,1586,526,-128,-414,412,2560,-408,-282,-352,-280,-741,70528
24,27,18,-56,-39,-37,-18,-59,14,95,-260,-54,171,-232,-24,103,-47,-1,-70,41,405,54,-67,-39,-85,979,-39,-72,-98,-55,143,70529
-243,-46,68,-87,-88,-72,-333,-248,42,8,-230,-179,124,-112,-107,-130,13,66,119,-162,-236,-150,-33,149,-276,86,137,51,49,62,487,70530
-447,-93,101,-97,-126,-109,-560,-369,207,18,-307,-255,-59,-115,-184,-311,42,120,228,-328,-753,-306,0,263,-430,-654,266,124,145,126,726,70531
-575,-119,134,-83,-136,-118,-685,-347,152,-22,-391,-233,79,-393,-140,-412,96,175,367,-425,-1103,-395,90,374,-495,-1196,379,217,253,188,898,70532
-670,-136,127,-85,-159,-141,-783,-405,103,14,-348,-178,219,-253,-69,-506,134,194,418,-507,-1387,-471,137,435,-550,-1637,430,264,311,224,939,70533
-610,-138,107,-67,-151,-125,-713,-402,109,42,-296,-135,81,-125,-29,-477,135,180,378,-479,-1345,-426,138,390,-484,-1652,385,266,303,201,842,70534
-488,-112,62,-55,-121,-85,-547,-415,127,-2,-300,-190,-100,-67,-105,-382,104,134,326,-375,-1124,-343,125,309,-355,-1399,302,221,256,146,547,70535
26,17,15,15,27,49,23,-84,-9,-15,363,-66,-245,194,-56,-6,-1,-10,1,-62,-175,8,35,-35,11,-125,-36,26,20,-77,-237,70536
211,48,-14,12,71,84,230,54,-74,-12,309,16,-157,214,15,148,-59,-67,-159,70,272,135,-6,-185,138,509,-183,-75,-117,-182,-448,70537
242,48,-33,11,78,78,227,33,-119,-44,60,38,10,-69,31,169,-90,-96,-200,96,392,142,-42,-216,150,715,-223,-121,-156,-200,-439,70538
180,43,-4,23,75,67,113,125,38,-18,36,-16,31,61,53,96,-78,-82,-121,84,305,77,-60,-135,109,600,-158,-100,-114,-118,-286,70539
382,93,-42,50,109,94,389,353,19,56,226,131,-21,276,74,320,-30,-68,-144,370,849,324,-24,-161,370,1301,-204,-110,-123,-66,-529,70540
541,134,-78,70,123,104,608,537,-116,65,392,192,-25,396,74,508,-41,-93,-226,560,1329,512,-50,-230,550,1992,-275,-163,-176,-66,-721,70541
556,144,-79,58,128,106,606,326,-77,13,405,55,49,153,56,540,-72,-119,-262,574,1456,521,-87,-265,548,2246,-305,-196,-216,-72,-701,70542
681,173,-113,47,152,127,755,288,-164,-119,467,126,-124,137,130,669,-77,-125,-313,714,1825,655,-98,-335,673,2784,-364,-241,-264,-92,-887,70543
817,224,-109,80,187,148,906,463,-50,-24,562,290,-87,336,165,792,-83,-135,-348,845,2180,784,-103,-377,779,3301,-414,-270,-311,-86,-1060,70544
924,251,-126,91,204,166,1014,450,-180,109,682,282,-58,368,151,920,-114,-158,-430,948,2513,891,-137,-451,864,3813,-480,-321,-374,-124,-1184,70545
809,200,-128,16,148,103,840,321,-243,-43,561,99,-18,254,99,870,-111,-136,-446,874,2396,826,-151,-430,737,3731,-443,-314,-380,-130,-1003,70546
783,200,-118,11,144,95,801,386,-125,-155,437,148,-58,308,111,862,-102,-110,-428,838,2379,811,-146,-421,689,3761,-434,-296,-360,-124,-958,70547
712,192,-97,4,117,85,772,399,-127,13,437,109,-16,61,66,814,-104,-95,-412,774,2275,754,-158,-396,611,3683,-413,-290,-349,-119,-851,70548
424,128,-24,-12,64,53,473,215,-84,-177,121,16,-13,-107,-62,564,-81,-46,-279,536,1676,507,-151,-248,345,2932,-249,-221,-260,-37,-366,70549
228,78,26,-35,29,35,223,9,81,-111,43,-176,156,-144,-133,338,-93,-62,-191,331,1156,287,-153,-174,126,2285,-158,-183,-204,-13,-173,70550
6,11,65,-62,-28,-11,-76,-270,4,-129,-137,-241,88,-325,-174,109,-98,-46,-91,70,552,36,-153,-72,-125,1510,-47,-120,-138,-2,97,70551
-224,-35,91,-79,-88,-70,-330,-232,95,-97,-161,-241,-68,-527,-134,-103,-40,29,49,-151,-48,-174,-104,78,-310,705,109,-24,-22,81,394,70552
-301,-50,71,-91,-105,-115,-406,-390,146,-19,-275,-303,-55,-284,-74,-152,7,86,133,-213,-314,-232,-39,146,-341,335,182,59,60,120,494,70553
-357,-56,99,-67,-105,-107,-466,-477,214,45,-411,-340,310,-216,-133,-202,45,126,227,-278,-542,-293,17,214,-372,-21,251,134,139,158,599,70554
-240,-39,66,-31,-79,-84,-301,-231,81,-3,-80,-221,170,-132,-137,-140,4,53,120,-226,-367,-223,-16,97,-264,196,116,50,65,62,261,70555
102,54,21,17,18,9,106,114,43,-74,196,-86,-59,77,-17,132,-49,-43,-86,32,347,61,-60,-133,20,1101,-118,-82,-88,-84,-266,70556
325,84,-37,15,55,52,363,386,60,-121,283,-67,-188,174,23,337,-86,-93,-230,250,920,263,-94,-269,215,1837,-266,-169,-195,-149,-532,70557
326,98,-15,16,59,47,369,153,-81,83,148,-28,48,29,26,421,9,-3,-130,348,1044,356,-6,-152,300,2001,-156,-84,-100,-38,-384,70558
390,130,-16,41,79,57,474,70,-29,-47,321,137,43,138,41,544,55,41,-49,506,1318,499,37,-91,449,2329,-109,-38,-46,54,-419,70559
537,152,-51,34,111,83,610,332,-23,-66,345,142,-26,213,114,641,-23,-46,-192,616,1690,605,-50,-224,554,2871,-249,-156,-174,-22,-693,70560
684,176,-66,33,152,130,741,379,-126,-8,517,267,5,422,91,733,-115,-138,-356,702,2069,703,-141,-386,631,3431,-403,-286,-306,-110,-931,70561
752,198,-55,42,174,151,815,360,-108,-35,428,274,74,460,114,811,-118,-135,-394,770,2293,774,-144,-414,671,3791,-420,-311,-345,-111,-949,70562
773,199,-56,38,173,143,825,371,-196,27,322,253,-5,334,134,810,-143,-154,-440,775,2386,780,-187,-453,648,3977,-447,-350,-380,-135,-988,70563
843,210,-59,49,179,143,879,252,-156,161,639,118,-118,168,122,844,-174,-186,-476,808,2532,818,-231,-505,652,4229,-499,-396,-428,-168,-1052,70564
724,200,-55,34,138,88,787,296,37,153,328,170,-50,179,91,785,-141,-125,-389,759,2393,749,-203,-411,582,4082,-416,-339,-370,-94,-812,70565
571,170,-63,18,83,30,690,306,-15,-63,-52,181,89,-37,21,728,-91,-77,-258,738,2236,705,-169,-285,532,3889,-288,-257,-277,18,-624,70566
522,160,-43,10,73,30,622,228,9,-62,-26,4,-29,-37,-81,711,-81,-65,-203,763,2187,686,-175,-238,523,3854,-242,-231,-237,81,-562,70567
499,154,-21,0,68,39,540,216,53,-41,195,12,-77,-137,-39,684,-66,-47,-180,743,2071,640,-174,-203,487,3797,-204,-214,-209,120,-508,70568
703,202,-55,7,119,67,745,229,-26,35,473,193,-34,69,136,854,-99,-98,-354,824,2408,750,-200,-380,600,4362,-351,-299,-317,-12,-830,70569
541,168,-19,-22,82,28,549,3,16,-89,230,109,-66,154,80,722,-88,-53,-299,624,2022,562,-186,-316,404,3961,-257,-252,-286,-12,-518,70570
283,89,28,-61,18,-5,231,-47,-60,-71,53,-83,96,-167,12,471,-80,-31,-198,351,1370,275,-176,-210,139,3193,-156,-193,-212,9,-237,70571
60,18,80,-99,-25,-31,-82,-74,-18,-130,-52,-144,65,-236,-47,209,-110,-42,-163,58,713,-35,-207,-141,-144,2397,-94,-173,-178,-14,37,70572
-160,-41,129,-114,-83,-59,-376,-292,112,-120,-226,-271,70,-430,-111,-21,-100,-9,-58,-186,95,-293,-194,-28,-367,1596,19,-97,-101,20,295,70573
-259,-57,115,-106,-110,-105,-455,-269,143,-89,-377,-333,33,-371,-93,-90,-25,60,72,-253,-199,-350,-120,76,-402,1155,125,7,2,94,460,70574
-550,-113,144,-120,-179,-186,-727,-529,210,10,-593,-351,130,-322,-147,-282,82,189,307,-412,-777,-518,4,332,-551,302,370,170,186,249,997,70575
-1271,-259,250,-176,-323,-310,-1492,-1176,364,3,-948,-584,117,-590,-330,-832,243,388,870,-825,-2226,-998,167,912,-974,-1789,890,497,603,645,2010,70576
-1214,-259,242,-132,-283,-272,-1420,-1041,326,-13,-749,-567,242,-453,-254,-845,240,332,917,-744,-2252,-922,173,919,-827,-1978,863,495,650,699,1673,70577
-698,-153,141,-60,-152,-156,-827,-436,188,133,-431,-270,112,-230,-66,-473,148,168,628,-360,-1248,-482,100,566,-365,-783,510,306,439,509,745,70578
279,58,-18,48,83,54,260,440,-27,-6,345,211,-192,25,98,290,-13,-83,-2,321,733,304,-29,-111,380,1798,-141,-70,-20,96,-654,70579
628,137,-44,62,166,132,610,516,-24,20,665,163,-51,90,162,573,-95,-148,-293,523,1557,568,-104,-375,560,2920,-387,-238,-246,-111,-968,70580
693,179,-46,64,190,156,684,375,17,84,371,191,-10,251,154,671,-88,-121,-326,605,1855,675,-110,-394,602,3344,-391,-254,-285,-114,-932,70581
781,205,-78,71,195,145,812,350,-95,-50,694,315,-121,302,203,795,-90,-125,-375,730,2229,816,-116,-440,690,3846,-429,-290,-335,-125,-1017,70582
812,212,-104,61,179,106,875,383,-172,-101,585,252,-132,299,207,853,-105,-141,-422,794,2445,874,-137,-484,709,4179,-473,-323,-383,-142,-1063,70583
792,206,-108,36,155,76,852,408,-251,-66,485,231,-185,296,140,830,-136,-159,-464,764,2475,843,-194,-517,656,4295,-494,-360,-417,-158,-1012,70584
315,96,-11,-46,44,-20,310,259,-80,-131,-72,-45,-42,123,45,452,-88,-60,-210,424,1591,461,-173,-216,265,3181,-201,-218,-254,7,-202,70585
-334,-53,104,-100,-105,-127,-419,-329,145,-133,-634,-303,174,-391,-129,-69,32,108,264,21,264,-54,-84,274,-180,1403,266,52,89,348,732,70586
-617,-100,165,-102,-166,-162,-728,-427,205,-80,-808,-417,208,-371,-167,-299,122,200,548,-143,-440,-288,11,546,-322,460,512,224,325,555,1101,70587
-429,-74,95,-70,-122,-134,-499,-255,137,-94,-351,-273,61,20,-135,-146,121,147,502,-1,-187,-148,40,438,-105,804,406,211,299,512,622,70588
441,126,-61,44,94,38,479,294,-58,58,580,78,-72,422,131,536,-18,-52,-81,541,1429,466,-69,-183,522,3047,-178,-128,-108,121,-700,70589
391,116,-32,19,71,19,401,110,-114,57,261,72,-12,198,98,496,-34,-22,-181,390,1280,329,-92,-221,343,2993,-169,-143,-169,28,-432,70590
74,60,42,-14,-15,-38,30,-57,-40,33,-85,-11,50,43,-5,225,9,59,-46,68,524,-1,-53,-48,22,2086,22,-31,-55,81,83,70591
-122,-2,65,-54,-64,-79,-213,-367,-69,-14,-409,-145,-25,24,-6,14,-7,54,3,-179,-23,-242,-80,13,-200,1422,80,-2,-22,55,233,70592
-254,-48,102,-66,-82,-93,-395,-403,84,-198,-470,-318,-9,-217,-56,-156,-21,40,47,-369,-447,-433,-97,48,-368,870,108,17,1,33,405,70593
-410,-96,129,-67,-111,-121,-573,-484,173,-59,-443,-328,147,-353,-110,-308,-24,65,94,-522,-864,-595,-81,120,-520,282,174,47,50,43,572,70594
-995,-231,206,-134,-260,-261,-1215,-888,238,25,-709,-517,135,-593,-208,-771,107,229,509,-915,-2064,-1008,51,544,-940,-1423,584,317,352,307,1521,70595
-1727,-401,292,-223,-430,-413,-2000,-1183,389,-29,-1204,-654,257,-962,-315,-1317,302,445,1114,-1297,-3538,-1466,231,1150,-1333,-3593,1136,689,807,738,2531,70596
-1609,-374,271,-164,-366,-337,-1867,-1016,363,52,-1208,-426,234,-665,-271,-1257,321,416,1157,-1140,-3440,-1300,271,1145,-1094,-3686,1102,685,859,805,2204,70597
-859,-209,138,-58,-168,-165,-1005,-369,121,12,-509,-134,48,-59,-108,-694,216,206,766,-538,-1980,-647,197,672,-445,-1905,623,417,568,565,924,70598
334,78,-45,102,130,98,356,392,-110,34,533,315,-75,420,49,273,30,-87,22,355,508,346,58,-126,487,1349,-144,-17,30,77,-841,70599
734,160,-118,116,210,152,787,603,-250,115,828,393,2,449,216,623,-71,-177,-333,621,1521,675,-43,-459,696,2758,-448,-238,-254,-173,-1219,70600
906,210,-149,110,232,179,969,452,-132,77,750,293,-69,326,242,772,-132,-216,-473,781,2076,843,-111,-588,790,3526,-565,-347,-381,-247,-1351,70601
1113,267,-166,129,266,210,1197,711,-155,26,924,400,-27,438,258,979,-186,-275,-616,1004,2715,1048,-187,-714,952,4416,-699,-448,-498,-307,-1575,70602
1248,310,-183,125,286,209,1338,819,-258,95,875,466,-231,373,288,1142,-187,-267,-675,1172,3170,1209,-209,-768,1065,5107,-747,-487,-549,-297,-1613,70603
1289,320,-197,103,282,201,1419,586,-279,-11,954,495,-42,348,254,1249,-185,-256,-716,1258,3465,1278,-226,-804,1111,5598,-756,-518,-581,-295,-1634,70604
947,245,-128,35,175,113,1057,452,-181,-184,496,234,-165,206,145,1013,-149,-187,-546,1036,2960,1031,-229,-604,829,5041,-546,-435,-481,-173,-1052,70605
457,150,-36,-8,70,28,516,132,-54,-26,24,71,-266,-14,37,639,-67,-52,-199,720,2018,646,-157,-238,479,3863,-197,-246,-233,90,-363,70606
277,121,-13,-7,38,-3,300,96,-22,78,74,-58,-110,-71,12,488,-14,0,-48,577,1587,478,-120,-93,359,3354,-56,-150,-128,208,-173,70607
301,106,-25,-16,39,-11,299,35,11,-138,109,-18,-41,-112,-23,489,-41,-33,-87,531,1547,444,-145,-142,370,3376,-96,-163,-148,182,-330,70608
598,176,-49,23,111,55,610,233,-10,-208,360,81,-93,282,99,708,-101,-115,-304,639,2026,603,-182,-375,555,4113,-304,-268,-294,3,-777,70609
293,97,-15,-46,25,-28,260,193,27,-114,-123,-54,-90,6,58,451,-99,-61,-243,276,1363,271,-180,-276,207,3352,-185,-220,-268,-21,-305,70610
-154,-3,81,-100,-68,-95,-278,-183,99,-176,-476,-120,71,-401,-9,54,-32,46,-8,-202,267,-183,-125,4,-233,1939,93,-34,-83,90,346,70611
-460,-95,118,-141,-160,-147,-631,-451,206,-75,-706,-312,103,-180,-119,-246,5,100,140,-550,-558,-496,-91,147,-527,846,250,68,36,136,693,70612
-678,-140,157,-117,-185,-190,-851,-523,148,-61,-606,-338,95,-483,-134,-453,60,175,290,-791,-1193,-710,-15,306,-723,-68,402,194,168,191,1013,70613
-814,-167,165,-107,-207,-219,-996,-614,101,-186,-613,-355,-20,-568,-152,-587,99,216,391,-940,-1635,-840,58,406,-836,-742,489,264,253,208,1175,70614
-1030,-224,201,-131,-254,-254,-1264,-712,240,-247,-902,-461,-95,-795,-161,-817,133,254,529,-1100,-2200,-1016,98,540,-1009,-1621,607,345,356,271,1499,70615
-1221,-292,212,-149,-290,-281,-1469,-661,307,-143,-1035,-569,154,-774,-198,-1003,150,259,665,-1153,-2638,-1141,117,656,-1087,-2342,698,393,464,361,1634,70616
-940,-203,172,-79,-197,-197,-1136,-449,172,75,-460,-302,269,-699,-195,-775,166,215,635,-824,-2138,-841,154,591,-760,-1829,598,370,466,380,1156,70617
-309,-65,54,15,-30,-58,-392,-40,106,26,-157,9,337,-11,-80,-238,102,83,344,-220,-797,-258,111,244,-164,-150,235,176,253,227,210,70618
490,119,-92,92,150,100,530,186,-124,112,494,348,229,373,160,438,-32,-117,-170,461,958,420,-9,-288,491,2198,-285,-152,-120,-71,-915,70619
900,235,-135,135,246,191,990,351,-292,4,853,451,58,505,197,821,-98,-187,-457,840,2010,793,-78,-559,800,3670,-535,-329,-329,-217,-1351,70620
1219,319,-171,150,317,242,1338,642,-294,-163,850,481,51,590,231,1145,-144,-245,-657,1187,2905,1106,-126,-753,1068,4949,-717,-457,-483,-303,-1740,70621
1582,403,-238,168,377,284,1750,999,-324,-99,818,637,-77,678,301,1499,-181,-309,-854,1567,3889,1449,-201,-963,1366,6379,-905,-600,-653,-375,-2161,70622
1799,457,-253,165,409,312,1995,947,-206,-20,1011,647,-237,784,322,1737,-239,-351,-991,1810,4574,1667,-276,-1080,1534,7443,-1020,-704,-774,-408,-2385,70623
1917,497,-265,153,429,332,2139,1277,-367,-166,1046,591,-145,660,314,1893,-281,-391,-1105,1955,5074,1783,-346,-1184,1619,8286,-1099,-808,-881,-444,-2502,70624
1797,471,-229,116,378,307,1977,1137,-345,-142,1026,479,-161,409,259,1821,-292,-372,-1072,1877,5015,1697,-393,-1130,1468,8388,-1045,-812,-882,-393,-2213,70625
1549,430,-155,94,321,257,1693,867,-203,-32,1057,304,-176,394,163,1639,-263,-305,-903,1688,4620,1492,-385,-950,1249,7998,-868,-723,-783,-250,-1802,70626
1280,363,-142,35,225,164,1396,529,-275,-156,761,205,-169,211,131,1428,-256,-269,-793,1441,4151,1264,-401,-814,1013,7500,-712,-675,-720,-150,-1480,70627
1072,310,-99,7,186,120,1121,312,-247,-251,380,89,-107,203,99,1260,-227,-203,-667,1208,3729,1093,-387,-694,824,7018,-577,-602,-631,-90,-1229,70628
939,261,-66,-36,142,78,905,342,-150,-150,284,120,91,150,68,1128,-204,-172,-622,961,3382,948,-371,-644,634,6622,-515,-547,-603,-111,-1050,70629
385,140,35,-99,-2,-38,257,-96,-51,-130,8,-147,169,-294,2,634,-142,-45,-392,334,2148,434,-320,-374,59,5005,-210,-369,-422,-25,-180,70630
-280,-21,131,-176,-168,-195,-491,-433,129,-126,-397,-348,181,-497,-155,52,-48,104,-57,-354,621,-153,-244,-6,-533,2911,163,-130,-164,126,686,70631
-786,-139,211,-207,-258,-302,-1041,-824,177,-62,-670,-506,313,-629,-215,-380,59,235,271,-858,-640,-589,-125,320,-952,1118,465,107,88,262,1336,70632
-1301,-273,273,-262,-370,-388,-1602,-1053,362,-87,-1052,-705,395,-806,-341,-857,118,318,549,-1360,-1924,-1044,-39,599,-1376,-735,725,301,305,365,1923,70633
-1548,-343,299,-274,-407,-398,-1882,-1220,339,-177,-1150,-731,107,-924,-362,-1136,146,330,686,-1635,-2723,-1296,21,725,-1555,-1933,838,404,434,385,2063,70634
-1424,-309,307,-211,-320,-310,-1753,-1130,287,-117,-1055,-665,313,-772,-251,-1093,172,321,675,-1528,-2766,-1242,86,698,-1418,-2149,788,424,471,370,1878,70635
-1241,-285,263,-155,-272,-264,-1545,-1103,240,-139,-849,-539,303,-710,-231,-981,175,286,650,-1290,-2570,-1115,126,648,-1199,-1986,713,395,466,359,1571,70636
-699,-158,158,-66,-132,-156,-913,-628,161,0,-684,-251,137,-468,-127,-534,138,179,428,-735,-1544,-655,121,383,-662,-681,415,252,319,246,764,70637
109,39,20,53,64,28,36,63,116,-35,266,86,126,60,-9,135,10,-20,-30,45,164,16,21,-96,63,1605,-89,-45,-4,13,-382,70638
859,208,-119,108,226,178,899,637,-186,44,759,340,138,536,142,788,-122,-220,-512,770,1916,650,-115,-577,702,4036,-580,-375,-355,-222,-1415,70639
1450,357,-211,159,361,283,1596,844,-403,45,795,557,-46,708,205,1370,-205,-333,-833,1413,3464,1225,-218,-911,1243,6213,-904,-606,-614,-355,-2173,70640
2025,506,-297,200,479,374,2257,1240,-422,-88,1223,701,-415,832,417,1928,-270,-430,-1132,2031,4983,1784,-299,-1204,1753,8374,-1205,-807,-847,-456,-2827,70641
2554,637,-371,214,577,465,2848,1541,-505,36,1494,830,-151,884,458,2453,-359,-541,-1444,2596,6465,2294,-415,-1524,2208,10560,-1514,-1039,-1112,-574,-3518,70642
3020,751,-430,232,668,533,3364,1753,-575,49,1827,935,-80,1120,487,2936,-432,-618,-1706,3090,7834,2752,-513,-1793,2601,12612,-1762,-1239,-1332,-649,-3996,70643
3293,844,-449,248,716,570,3643,1765,-607,-120,1928,994,-144,1101,497,3271,-493,-667,-1898,3403,8819,3056,-619,-1954,2815,14184,-1913,-1387,-1506,-686,-4250,70644
3525,921,-451,266,752,598,3879,1785,-710,-82,2146,1046,-145,1098,545,3557,-517,-685,-2023,3626,9626,3298,-685,-2067,2959,15537,-2006,-1478,-1624,-703,-4467,70645
3636,956,-449,228,736,583,3992,1836,-699,-20,2424,989,-209,1201,562,3715,-566,-709,-2173,3671,10175,3410,-776,-2205,2958,16557,-2099,-1579,-1768,-775,-4545,70646
3430,911,-382,154,667,528,3709,1684,-712,-267,1818,934,-144,842,436,3583,-565,-661,-2168,3413,9964,3236,-839,-2148,2660,16550,-2006,-1583,-1780,-765,-4135,70647
2973,811,-285,77,550,416,3132,1288,-614,-331,1406,680,-79,505,357,3204,-546,-565,-1989,2925,9126,2810,-874,-1925,2154,15636,-1752,-1475,-1664,-668,-3360,70648
1939,565,-112,-69,279,192,1956,673,-470,-529,582,173,67,71,116,2371,-424,-340,-1436,2016,7095,1968,-786,-1330,1247,13077,-1135,-1133,-1290,-348,-1862,70649
951,320,31,-203,17,-47,836,35,-157,-565,-83,-284,110,-285,-86,1543,-263,-116,-855,1078,4946,1134,-622,-740,410,10262,-545,-748,-864,-55,-614,70650
150,129,141,-273,-169,-225,-76,-471,-31,-490,-694,-528,69,-639,-198,814,-165,55,-440,205,2979,380,-536,-309,-333,7628,-93,-452,-542,128,349,70651
-540,-29,242,-318,-315,-356,-839,-811,301,-364,-1026,-713,291,-1004,-340,158,-74,187,-33,-523,1203,-275,-419,75,-934,5173,300,-178,-234,282,1159,70652
-1012,-145,328,-340,-381,-399,-1367,-1069,277,-298,-1212,-850,268,-950,-390,-322,6,281,241,-1047,-190,-745,-317,347,-1332,3204,559,26,-2,351,1651,70653
-1210,-216,369,-335,-383,-385,-1633,-958,330,-281,-1025,-866,461,-987,-398,-604,16,286,333,-1340,-1067,-1037,-281,437,-1539,1943,630,91,113,333,1777,70654
-913,-163,325,-265,-281,-289,-1301,-922,351,-272,-914,-679,413,-841,-312,-412,16,227,229,-1114,-797,-852,-227,295,-1239,2164,439,63,87,232,1192,70655
-14,26,160,-137,-57,-91,-277,-162,43,-133,-220,-296,13,-273,-120,300,-90,7,-270,-368,896,-141,-254,-268,-472,4369,-152,-228,-255,-112,-171,70656
565,163,45,-76,78,21,380,55,-54,-191,328,-22,-74,-129,-14,809,-158,-109,-587,209,2166,359,-305,-597,37,6079,-488,-423,-487,-299,-902,70657
1013,265,-15,-22,192,131,861,271,-62,-169,429,120,-53,25,5,1208,-237,-234,-851,705,3225,751,-391,-861,431,7569,-764,-618,-694,-414,-1452,70658
1181,330,-27,0,229,165,1063,374,-63,-158,482,183,51,99,112,1394,-271,-263,-881,1030,3808,955,-432,-872,643,8423,-820,-684,-738,-350,-1572,70659
1574,440,-107,61,309,212,1581,625,-196,-186,469,331,34,428,142,1809,-255,-289,-968,1574,4894,1416,-436,-983,1112,9933,-953,-749,-793,-293,-2048,70660
2064,560,-207,119,395,260,2247,1031,-480,-155,1119,541,256,591,207,2334,-277,-357,-1198,2161,6244,1948,-477,-1213,1612,11848,-1197,-892,-954,-336,-2654,70661
2482,673,-283,145,473,303,2760,1314,-601,-181,1484,607,188,609,278,2766,-352,-431,-1458,2616,7453,2382,-558,-1459,1999,13625,-1443,-1074,-1153,-416,-3205,70662
2850,783,-306,175,564,404,3155,1562,-558,-135,1593,768,69,790,421,3135,-424,-510,-1692,2993,8568,2759,-659,-1685,2308,15283,-1660,-1256,-1365,-491,-3657,70663
3147,862,-312,181,629,467,3456,1691,-461,-191,1765,816,-164,953,504,3427,-493,-592,-1865,3285,9496,3054,-763,-1871,2523,16734,-1826,-1406,-1530,-553,-4025,70664
3516,947,-381,187,688,489,3853,1710,-559,-120,2058,964,-153,834,537,3814,-568,-658,-2101,3589,10561,3405,-858,-2122,2795,18408,-2048,-1557,-1731,-651,-4488,70665
3873,1034,-418,178,744,534,4176,1947,-690,-198,2228,1001,-224,994,639,4143,-661,-749,-2437,3784,11516,3686,-979,-2426,2955,19972,-2315,-1763,-1993,-847,-4918,70666
3917,1045,-377,138,738,536,4120,1845,-589,-143,2089,875,-3,791,550,4184,-718,-763,-2569,3708,11766,3661,-1062,-2533,2823,20614,-2377,-1860,-2128,-941,-4847,70667
3440,937,-261,45,611,440,3534,1558,-442,-184,1606,604,126,497,426,3815,-693,-669,-2376,3250,10935,3213,-1088,-2308,2305,19800,-2125,-1753,-2024,-842,-4006,70668
2316,677,-93,-114,317,182,2263,789,-249,-199,759,134,113,-250,144,2902,-584,-434,-1775,2316,8691,2248,-1036,-1652,1329,17054,-1448,-1395,-1606,-473,-2416,70669
1622,522,24,-176,163,41,1480,422,-233,-342,432,-144,268,-573,-6,2322,-478,-267,-1321,1653,7067,1597,-955,-1199,775,15049,-993,-1102,-1261,-204,-1548,70670
1151,388,95,-226,50,-80,954,-12,-115,-442,186,-374,337,-521,-35,1919,-377,-148,-1019,1175,5862,1133,-843,-920,381,13559,-706,-888,-1027,-74,-946,70671
818,309,160,-234,-17,-123,565,-135,84,-477,136,-521,193,-756,-117,1595,-304,-80,-838,808,4891,756,-760,-742,70,12338,-524,-771,-875,-12,-561,70672
542,228,185,-271,-82,-172,239,-352,21,-415,18,-488,300,-567,-93,1275,-321,-101,-749,454,4024,399,-756,-660,-220,11278,-440,-727,-810,-37,-351,70673
420,200,189,-266,-95,-185,112,-424,114,-328,-140,-472,268,-534,-100,1131,-288,-87,-641,316,3553,244,-695,-586,-308,10656,-394,-657,-716,-30,-250,70674
869,304,116,-175,39,-82,658,67,-101,-265,235,-104,244,-327,-8,1489,-337,-176,-890,649,4310,616,-716,-860,80,11650,-681,-789,-859,-189,-1098,70675
1800,533,-16,-35,283,130,1707,806,-264,-154,885,237,42,92,179,2264,-419,-332,-1392,1349,6155,1394,-765,-1401,810,14118,-1208,-1053,-1199,-515,-2310,70676
2026,564,-62,-42,306,150,1985,933,-237,-230,969,102,-70,217,234,2481,-472,-382,-1601,1530,6788,1606,-822,-1584,934,15056,-1389,-1171,-1357,-672,-2490,70677
1789,535,7,-68,246,98,1731,447,-130,-340,709,19,-134,-54,180,2322,-438,-297,-1476,1406,6467,1466,-794,-1410,729,14700,-1224,-1093,-1265,-580,-1980,70678
1047,360,122,-166,68,-62,895,54,9,-175,59,-338,-143,-355,23,1763,-301,-97,-975,947,5114,960,-690,-873,200,12916,-721,-806,-913,-227,-871,70679
846,309,148,-179,39,-86,634,37,26,-142,-13,-324,-70,-462,-43,1578,-258,-73,-772,853,4675,841,-645,-692,113,12301,-568,-704,-757,-63,-677,70680
