6,-2,-28,9,11,-16,25,48,81,151,-57,127,-126,207,102,-47,-14,-19,-12,-49,-116,-38,10,-15,3,-275,-13,6,-17,-5,-43,184780
33,-4,-41,9,10,-10,1,16,-21,130,-123,50,-211,21,12,-35,-24,-49,-40,-36,-68,-29,-6,-54,14,-181,-49,-28,-51,-31,-129,184781
-54,-33,-20,1,-7,-15,-106,-180,46,252,-3,-130,-116,-186,-4,-102,-4,-18,5,-100,-230,-101,6,16,-62,-407,12,3,-9,2,73,184782
-484,-94,85,-22,-79,-77,-553,-523,167,38,-390,-156,103,-199,-56,-453,111,144,357,-417,-1197,-438,115,382,-378,-1769,378,260,284,246,920,184783
-624,-102,124,4,-96,-80,-652,-532,197,-15,-537,-197,188,-164,8,-556,199,210,544,-468,-1557,-510,187,545,-402,-2344,518,378,445,382,1062,184784
-603,-117,88,-5,-107,-85,-610,-278,110,-133,-318,-207,-82,-61,-45,-544,165,173,512,-430,-1537,-488,162,506,-349,-2376,464,345,426,355,925,184785
-184,-58,-9,17,-17,-24,-170,-157,-106,36,-86,27,-120,-7,-36,-209,57,37,214,-95,-672,-152,89,189,-13,-1232,152,145,186,160,93,184786
199,31,-69,49,82,55,243,315,-116,90,96,176,-189,-19,96,108,-36,-85,-86,172,183,153,12,-112,222,-47,-110,-43,-54,-52,-537,184787
170,25,-44,44,71,57,185,181,-120,-44,168,160,-56,-19,99,63,-63,-89,-139,108,164,100,-26,-145,123,-28,-128,-72,-103,-86,-394,184788
125,1,-24,36,57,53,116,140,-117,164,202,122,129,-20,-4,16,-65,-79,-161,57,78,48,-40,-138,46,-114,-123,-89,-114,-98,-264,184789
80,7,-12,36,39,33,73,5,-102,183,137,148,172,20,46,-7,-30,-41,-116,37,-3,17,-6,-81,18,-221,-76,-48,-69,-59,-99,184790
76,7,-14,42,32,23,65,61,-96,56,153,116,115,56,115,-26,-45,-46,-70,30,-28,5,-6,-64,2,-250,-60,-31,-55,-45,-128,184791
40,-1,-18,27,24,11,24,25,-59,-14,-37,56,-24,214,93,-28,-33,-30,-19,23,-60,-10,3,-30,-5,-288,-28,-7,-34,-30,-77,184792
-60,-18,-2,16,1,5,-99,31,13,-3,-10,66,-18,98,-60,-92,26,39,104,-33,-288,-69,48,87,-54,-594,88,82,64,58,190,184793
-52,-32,-15,-4,-7,3,-102,-23,114,-80,-2,71,-174,194,3,-47,41,52,99,-7,-225,-28,64,77,-8,-522,78,72,61,65,145,184794
-126,-32,13,4,-17,-21,-196,-16,105,-55,-208,-67,70,-13,61,-108,74,90,179,-62,-398,-88,106,163,-47,-782,158,146,124,125,307,184795
-69,-18,1,27,-2,-1,-128,60,-5,-86,-130,35,144,-111,73,-68,61,57,131,-13,-285,-38,88,119,11,-653,116,110,101,99,125,184796
-8,-14,-10,28,10,7,-58,73,-99,64,-34,113,105,-92,26,-29,10,2,18,-2,-142,-10,23,24,31,-442,23,38,21,15,9,184797
-6,-3,-25,37,4,-3,2,-45,58,32,-6,99,-10,-145,17,-43,-1,0,23,-13,-133,-9,42,18,32,-422,17,38,6,11,-10,184798
47,9,-53,27,10,-15,124,96,-14,-210,147,151,-79,88,0,4,-18,-22,-25,21,12,49,25,-36,70,-231,-46,1,-36,-20,-115,184799
76,28,-39,46,23,5,133,59,25,-155,73,92,-33,125,59,8,-14,-21,-13,25,49,58,22,-33,62,-189,-45,2,-34,-13,-88,184800
76,14,-34,44,23,13,148,155,27,0,88,129,45,-39,72,34,-12,-18,-25,44,101,86,0,-31,73,-113,-31,-16,-46,-5,-111,184801
-21,-7,-24,12,0,-13,45,58,-64,6,-99,34,-36,72,-28,-33,15,19,21,-13,-53,14,18,21,9,-319,21,32,-5,24,126,184802
-360,-73,43,-21,-70,-63,-363,-182,85,-54,-320,-178,215,-200,-109,-329,65,91,248,-295,-835,-291,69,258,-262,-1381,247,176,174,159,601,184803
-333,-69,65,0,-35,-25,-379,-154,42,-108,-270,-299,218,-217,-62,-353,73,79,265,-289,-935,-315,83,275,-236,-1535,252,174,204,177,510,184804
-306,-74,59,6,-26,5,-356,-14,-44,86,-214,-197,174,-141,-42,-358,42,55,228,-281,-913,-305,68,236,-218,-1532,218,147,176,153,395,184805
-113,-37,25,39,3,13,-95,-98,-19,-126,125,51,55,11,81,-161,32,13,133,-86,-482,-113,64,113,-19,-961,96,89,106,84,106,184806
49,-8,-35,22,11,3,99,-71,-66,-172,169,103,-294,52,60,0,14,-24,11,58,-74,27,36,-21,99,-394,-20,16,13,0,-163,184807
79,-4,-48,16,20,4,129,46,-109,-106,90,104,-222,101,-6,43,3,-30,-43,97,54,64,17,-52,111,-200,-64,-12,-28,-31,-228,184808
86,12,-29,24,31,24,137,88,17,164,257,143,39,274,76,60,9,-11,-46,109,72,66,29,-48,100,-165,-52,1,-34,-27,-178,184809
126,33,-13,37,43,51,155,10,-32,166,201,166,-62,-33,94,74,-7,-32,-63,113,117,74,23,-64,106,-86,-57,-9,-56,-51,-162,184810
60,13,-20,20,27,29,73,-14,-96,155,329,19,-179,-135,34,8,-23,-31,-50,36,-17,4,-10,-46,20,-259,-40,-9,-51,-40,-63,184811
-46,-13,-28,-1,-3,-9,-25,-72,-202,-18,125,-29,-138,-135,-12,-66,4,0,21,-26,-203,-63,16,17,-45,-511,28,36,14,8,105,184812
-190,-47,-10,3,-45,-39,-157,-198,61,56,-11,-66,-140,-80,-74,-180,42,49,121,-128,-495,-175,53,122,-144,-930,123,103,86,71,344,184813
-227,-46,26,15,-38,-31,-191,-70,162,-87,-89,-76,-37,39,-24,-246,56,52,174,-184,-661,-221,53,172,-171,-1179,155,124,121,99,402,184814
-349,-76,45,10,-59,-39,-322,-199,61,-114,-326,-146,33,-148,-7,-375,52,60,252,-302,-976,-346,64,246,-260,-1628,224,161,180,146,467,184815
-150,-31,24,39,4,11,-102,-115,-9,51,-195,-162,-11,84,8,-231,18,-2,123,-156,-601,-183,34,106,-99,-1155,90,76,90,85,66,184816
101,12,-15,46,58,54,148,279,-130,95,-62,-14,77,-54,-25,-21,-41,-65,-78,28,-27,39,-14,-89,72,-374,-98,-51,-63,-52,-208,184817
90,29,-16,50,50,36,149,150,-30,72,238,21,10,61,39,11,-14,-32,-39,46,45,77,12,-39,76,-289,-48,-15,-36,-23,-149,184818
78,18,-51,41,13,7,169,46,-48,14,150,14,-7,60,68,70,3,-18,-48,90,163,136,25,-42,107,-128,-40,-4,-37,-18,-149,184819
68,3,-47,20,14,2,125,64,-91,201,1,34,24,46,52,73,13,-11,-39,99,178,141,25,-29,104,-116,-35,13,-19,-10,-99,184820
100,21,-33,13,21,16,161,170,-30,-14,215,72,-57,-95,28,124,46,32,-8,125,256,174,59,-9,144,-30,-3,35,5,25,-160,184821
53,25,-29,7,12,7,105,241,-73,-37,273,94,26,252,18,90,67,62,27,91,152,137,80,35,92,-161,36,56,39,51,20,184822
-478,-79,61,-19,-98,-85,-513,-207,61,-23,-371,-119,10,-154,-113,-400,129,176,364,-358,-1060,-349,114,393,-344,-1801,380,266,289,251,901,184823
-750,-142,110,-13,-143,-109,-827,-389,259,1,-657,-232,21,-466,-74,-689,160,200,617,-588,-1803,-619,155,593,-511,-2857,563,388,459,387,1129,184824
-667,-138,93,11,-119,-79,-705,-397,303,-23,-444,-188,108,-289,3,-649,163,173,610,-507,-1728,-571,179,571,-378,-2824,515,381,473,384,952,184825
-188,-54,1,49,-15,5,-160,57,199,80,-33,52,52,-25,76,-245,62,31,245,-104,-729,-175,100,204,18,-1472,169,149,210,169,141,184826
155,8,-47,62,53,55,226,86,72,112,255,236,-173,265,135,51,-18,-74,-73,144,63,97,19,-93,230,-362,-114,-36,-29,-37,-359,184827
171,33,-33,50,62,59,221,194,95,244,296,187,-56,332,126,80,-22,-56,-107,142,133,96,11,-112,199,-228,-118,-42,-52,-76,-331,184828
111,27,-42,28,31,34,162,227,39,32,111,74,-68,262,85,48,-16,-30,-72,105,52,52,15,-70,148,-316,-75,-28,-42,-49,-169,184829
135,43,-27,41,47,42,173,215,8,-132,-47,199,58,227,127,56,-3,-12,-60,116,67,57,15,-65,142,-263,-48,-23,-41,-38,-101,184830
137,39,-10,49,50,59,145,217,15,42,124,151,218,96,73,45,2,-17,-76,104,54,38,11,-73,116,-269,-59,-33,-56,-38,-80,184831
90,18,-20,27,21,43,88,338,-21,30,16,108,222,7,36,15,4,-12,-56,77,0,13,30,-42,82,-347,-35,-20,-42,-22,-51,184832
-338,-56,51,-8,-55,-32,-374,-72,87,116,-263,-103,153,-174,11,-331,83,115,249,-260,-899,-326,88,277,-240,-1583,269,184,198,175,578,184833
-642,-117,94,11,-115,-91,-667,-369,207,168,-413,-232,249,-484,-40,-594,154,202,561,-476,-1644,-565,169,558,-407,-2669,527,376,445,374,984,184834
-573,-106,59,44,-98,-79,-558,-385,273,115,-349,-135,75,-320,-65,-573,131,159,522,-436,-1589,-516,149,501,-324,-2658,466,327,416,343,781,184835
-206,-37,-5,72,-20,-12,-121,31,95,26,-73,-68,-26,59,63,-277,61,36,241,-155,-811,-198,91,219,-24,-1641,181,145,202,161,219,184836
156,44,-48,83,64,56,302,168,36,17,215,163,-156,296,158,73,29,-18,7,156,60,163,88,-33,246,-467,-47,10,20,15,-279,184837
132,21,-48,55,50,48,216,166,-86,25,108,160,-29,279,15,57,13,-26,-15,110,90,145,58,-53,184,-427,-60,-12,-12,-14,-279,184838
155,20,-44,39,54,66,167,145,-82,24,109,84,103,174,-12,61,-14,-44,-59,114,173,160,19,-87,169,-319,-94,-32,-49,-54,-283,184839
128,2,-32,34,43,54,136,269,-132,-73,139,145,40,120,-16,60,7,-13,-23,109,178,175,27,-41,168,-304,-58,-5,-21,-25,-209,184840
126,3,-36,19,39,52,146,153,-104,-6,300,158,-3,116,38,58,-21,-28,-61,102,209,159,-12,-65,158,-246,-81,-32,-48,-39,-276,184841
154,17,-48,16,40,37,195,35,-140,-190,288,104,120,58,124,83,-38,-64,-127,118,305,177,-24,-128,164,-113,-123,-78,-87,-84,-369,184842
1,0,-24,10,2,2,43,-92,-94,-44,49,161,177,95,68,-11,4,4,-5,23,8,71,17,-3,56,-487,11,11,7,1,24,184843
-144,-23,2,17,-25,-30,-120,-123,56,-80,-5,147,13,216,20,-127,60,72,120,-74,-350,-60,67,138,-36,-975,142,98,116,97,347,184844
-57,-16,-15,12,-10,7,-35,31,29,211,-44,67,32,67,2,-63,30,27,60,-11,-213,-20,37,59,44,-759,46,43,59,43,14,184845
51,0,-26,23,17,28,77,228,-16,51,63,26,-26,94,118,11,-14,-27,-25,59,0,34,4,-49,110,-449,-51,-18,-25,-33,-188,184846
65,4,-19,15,26,36,83,25,26,115,102,96,61,173,132,10,-38,-44,-70,64,21,31,-21,-66,108,-386,-65,-45,-51,-52,-223,184847
101,3,-50,2,27,41,132,110,39,49,-30,169,-30,176,120,53,-48,-54,-127,97,134,53,-40,-117,129,-206,-100,-87,-85,-77,-279,184848
69,15,-45,13,26,27,127,39,8,66,59,-14,29,149,41,71,-6,-10,-75,114,114,62,-5,-62,130,-231,-51,-39,-35,-30,-110,184849
87,31,-40,17,26,26,141,115,-1,103,240,-46,42,46,15,98,18,20,-50,149,147,83,11,-26,156,-187,-25,2,-11,-2,-81,184850
47,25,-28,9,22,25,103,-40,-34,-89,146,86,-39,-176,82,89,22,22,-36,137,112,67,16,-11,144,-225,-7,14,1,3,-47,184851
34,17,-36,7,12,23,77,118,29,-40,-147,134,-275,79,14,64,10,12,-31,112,93,55,18,-16,118,-263,-26,-2,-1,-11,-14,184852
-87,-12,-26,-6,-26,-28,-70,50,89,-77,-383,-70,-240,122,-35,-73,20,23,43,-21,-212,-79,21,61,-19,-650,51,30,44,32,158,184853
-254,-53,14,-4,-56,-60,-259,-147,36,-48,-255,-92,85,-44,-111,-243,53,74,175,-179,-648,-232,55,201,-160,-1277,189,117,155,121,452,184854
-133,-36,-2,3,-22,-18,-134,136,72,-26,-211,-66,32,97,-111,-170,42,41,114,-99,-455,-135,49,110,-72,-1048,108,75,108,81,203,184855
28,4,-29,10,16,25,65,218,14,31,44,-120,-84,162,-31,10,46,33,40,65,-63,53,67,30,100,-536,34,37,66,45,37,184856
116,33,-47,19,20,36,201,104,131,4,231,2,-27,175,38,131,40,26,-16,156,236,186,49,-25,197,-136,-19,4,16,13,-116,184857
93,21,-41,2,14,27,141,-88,0,-91,-32,-4,88,242,-15,93,2,-13,-68,108,246,162,11,-68,139,-119,-73,-34,-37,-37,-144,184858
22,4,-2,2,14,29,-8,-173,88,32,-126,58,211,79,17,-1,5,4,-3,17,41,73,13,-3,56,-397,-11,-2,4,-8,-21,184859
104,15,-38,-6,21,32,102,127,-68,-420,38,32,-111,90,12,83,-14,-29,-65,87,247,157,-21,-69,130,-110,-66,-47,-43,-44,-271,184860
171,43,-23,10,45,55,208,213,-162,-208,176,137,-5,422,60,157,-15,-37,-108,152,434,225,-23,-117,186,156,-113,-62,-72,-72,-299,184861
133,30,-9,-3,20,40,152,154,-89,-117,152,92,-110,187,30,115,-31,-28,-104,104,361,179,-34,-108,128,74,-102,-62,-83,-76,-167,184862
282,41,-40,17,65,64,278,249,-71,4,303,33,-159,56,53,202,-53,-75,-198,208,608,260,-57,-197,223,450,-208,-136,-157,-130,-443,184863
316,44,-67,-1,56,46,326,269,-104,139,160,151,-184,53,0,231,-109,-123,-308,221,738,265,-94,-291,217,660,-287,-202,-241,-207,-580,184864
329,57,-52,9,75,62,330,189,-47,214,104,114,-14,46,-50,235,-136,-149,-354,224,766,250,-124,-332,192,747,-308,-238,-284,-237,-550,184865
244,50,-16,-5,58,75,206,275,39,144,103,50,80,57,45,157,-111,-108,-267,151,564,153,-110,-252,101,506,-226,-190,-225,-189,-364,184866
99,11,-3,-8,16,39,50,155,138,51,64,0,72,-134,32,56,-50,-29,-111,63,245,47,-60,-103,24,78,-93,-90,-114,-81,-6,184867
48,17,-18,-5,-9,-1,38,1,106,168,97,-48,-34,55,-28,61,23,20,-17,85,158,46,9,-10,53,-51,-7,-8,-22,-5,103,184868
93,43,-28,7,4,-11,125,79,61,-63,1,-27,-70,168,54,137,40,49,-8,155,281,115,35,-9,137,102,-8,10,-4,7,-50,184869
22,13,-49,-30,-23,-38,76,-1,12,184,-8,-39,-104,103,53,106,14,34,-21,100,191,72,-4,-8,86,-3,-8,-9,-10,7,11,184870
15,1,-32,-40,-18,-39,57,13,-58,-34,-231,-35,-18,18,-7,75,9,20,-28,82,146,52,-26,-25,65,-51,-17,-21,-18,-7,34,184871
64,8,-13,-11,11,-3,46,168,83,72,-94,20,97,-79,21,42,-67,-51,-120,52,167,17,-93,-109,40,-1,-107,-94,-103,-85,-126,184872
110,17,-1,3,38,35,59,105,-25,73,128,-7,107,-192,2,50,-84,-78,-164,63,238,31,-94,-142,39,84,-144,-129,-129,-115,-227,184873
100,31,7,22,26,32,110,151,55,98,203,3,-109,-146,66,89,-12,-9,-100,103,243,87,-22,-70,80,91,-52,-57,-51,-40,-118,184874
132,43,-16,33,22,8,191,228,37,38,290,130,-85,134,60,154,4,-4,-100,156,376,151,-19,-82,133,274,-58,-50,-55,-36,-131,184875
27,11,-10,-11,-11,-26,65,155,49,58,-16,236,-36,84,35,42,-19,-14,-86,31,171,45,-41,-64,12,21,-54,-57,-65,-47,-14,184876
-40,3,12,-7,-13,-24,-34,-90,131,123,28,159,88,168,-16,-16,12,22,-5,-36,-18,-16,-11,12,-37,-253,23,-11,-3,9,54,184877
17,9,17,0,6,-4,1,-126,17,94,151,-3,-44,-56,0,30,12,25,-13,3,78,44,-22,-3,20,-138,-1,-13,0,10,28,184878
-1,-5,19,-2,3,-5,-32,-88,-17,340,129,-75,69,55,24,4,-4,7,-29,-25,41,22,-35,-7,-2,-182,-9,-29,-5,-1,31,184879
31,16,9,-3,1,-4,24,22,36,307,38,59,102,201,48,44,4,8,-52,13,125,71,-18,-19,42,-83,-16,-34,-7,4,-33,184880
65,30,-15,-12,2,-12,57,-33,103,83,-43,43,-57,257,70,95,17,17,-40,67,227,116,13,-19,83,39,-25,-16,-1,2,-79,184881
162,37,-31,-9,35,24,120,28,77,189,26,109,-45,144,75,189,-3,-16,-80,156,444,208,-10,-90,175,358,-91,-55,-48,-38,-258,184882
443,85,-87,-12,86,62,435,173,-74,-51,276,262,-123,237,187,451,-65,-92,-290,396,1134,464,-57,-315,402,1331,-296,-187,-220,-170,-709,184883
513,108,-110,-6,89,54,522,170,-214,-257,454,257,-79,370,113,528,-79,-102,-377,460,1376,522,-74,-394,415,1708,-356,-233,-290,-234,-758,184884
457,97,-91,-16,71,33,430,65,-196,-342,289,74,-177,117,20,445,-123,-133,-430,369,1251,426,-134,-419,285,1610,-365,-270,-341,-275,-702,184885
241,55,-39,-36,29,16,186,41,-87,-108,-37,-139,-144,-129,-88,241,-110,-82,-308,162,732,192,-142,-268,57,956,-227,-201,-251,-186,-306,184886
38,30,12,-25,3,-4,24,-38,3,159,-301,-136,-29,-219,-143,92,-39,2,-114,29,263,25,-72,-72,-57,304,-53,-74,-89,-55,24,184887
70,28,16,-1,19,16,69,1,-15,-10,-137,-90,-45,-165,-95,97,-38,-22,-85,66,292,54,-59,-69,-2,322,-75,-62,-71,-48,-76,184888
65,21,28,4,15,10,43,129,33,121,-94,-52,-123,-133,14,61,-58,-44,-91,43,252,31,-71,-86,-11,285,-89,-78,-85,-57,-51,184889
18,10,9,-3,-2,-23,16,202,35,225,44,-121,110,-131,28,40,-46,-34,-87,19,187,4,-76,-85,-34,212,-81,-76,-81,-47,-77,184890
-23,-9,16,-16,-27,-42,-11,107,132,104,-132,-216,28,-2,4,2,-55,-41,-78,-17,97,-38,-90,-70,-75,96,-64,-80,-63,-53,-93,184891
87,17,16,-4,5,-5,123,111,24,5,89,-147,15,7,-1,95,-53,-45,-100,74,294,55,-91,-100,31,364,-98,-92,-81,-64,-247,184892
815,165,-127,39,158,100,927,564,-320,31,826,271,-80,371,103,746,-157,-217,-594,687,1931,713,-175,-606,623,2615,-588,-398,-447,-361,-1375,184893
1232,231,-235,11,212,143,1345,733,-448,93,1043,497,-112,561,196,1139,-301,-370,-1049,987,3053,1058,-310,-1036,850,4264,-973,-683,-813,-674,-1995,184894
1293,271,-227,-8,217,145,1379,693,-343,23,1165,496,-198,467,271,1223,-321,-366,-1121,1014,3334,1112,-342,-1090,812,4770,-1011,-728,-899,-734,-1953,184895
522,119,-98,-79,42,8,511,211,-146,-31,371,209,66,-62,56,600,-218,-157,-660,390,1812,468,-284,-581,140,2792,-506,-424,-562,-448,-604,184896
-197,-21,38,-90,-99,-106,-293,-237,3,-45,-288,-85,5,-339,-84,-36,-44,58,-46,-166,119,-133,-143,30,-358,447,66,-39,-82,-28,415,184897
-162,-30,27,-78,-80,-83,-239,-168,-38,-77,-327,-79,63,-251,-61,-35,-40,28,0,-131,57,-101,-117,28,-261,329,47,-29,-33,0,336,184898
-138,-18,58,-69,-62,-49,-222,-59,53,-300,-138,-142,-56,-327,-63,-68,-39,18,6,-149,-27,-129,-114,27,-247,187,31,-35,-19,14,268,184899
-150,-18,64,-53,-60,-48,-223,-50,138,-120,-36,-188,-23,-356,-30,-97,-36,19,-9,-170,-119,-150,-107,17,-252,54,28,-46,-18,0,277,184900
-213,-33,65,-47,-70,-64,-272,-91,46,107,-177,-224,104,-237,-106,-154,-21,19,31,-211,-287,-195,-86,63,-280,-207,69,-8,21,27,300,184901
194,43,-14,-2,16,2,221,181,-44,133,94,82,-32,-73,-9,181,-94,-96,-203,128,551,151,-147,-203,81,926,-202,-170,-174,-121,-561,184902
1700,328,-292,84,330,263,1914,1366,-413,-10,1418,676,-253,655,321,1496,-383,-534,-1297,1338,3977,1422,-395,-1359,1227,5681,-1320,-891,-1042,-846,-3056,184903
2501,484,-428,35,450,365,2765,1667,-608,-46,1776,868,-242,924,387,2257,-608,-757,-2089,1941,6131,2111,-626,-2090,1661,8852,-1987,-1373,-1672,-1369,-4054,184904
2214,457,-342,-37,367,283,2373,1321,-600,-267,1459,723,-122,713,294,2089,-584,-639,-1992,1700,5825,1891,-646,-1924,1287,8678,-1775,-1290,-1622,-1309,-3288,184905
850,216,-54,-145,85,50,789,261,-286,-217,195,54,133,-152,-56,970,-313,-218,-1044,600,2980,740,-447,-901,155,4944,-778,-666,-886,-691,-817,184906
-420,-13,180,-178,-166,-153,-623,-450,52,-218,-630,-496,299,-693,-245,-100,36,203,72,-342,25,-303,-140,200,-688,840,242,38,-4,61,1028,184907
-490,-46,165,-133,-178,-150,-664,-526,-31,-334,-455,-481,48,-491,-228,-193,82,211,276,-368,-378,-349,-71,324,-604,201,344,135,161,197,990,184908
-403,-63,144,-105,-132,-108,-583,-371,21,-298,-436,-404,268,-424,-243,-182,59,151,247,-337,-395,-323,-65,270,-504,121,283,113,155,168,707,184909
-329,-67,127,-101,-105,-81,-498,-316,41,-228,-434,-261,50,-416,-250,-176,34,98,188,-306,-364,-296,-66,203,-429,110,207,75,127,126,498,184910
-259,-47,98,-75,-89,-77,-382,-296,155,-54,-401,-163,19,-364,-181,-116,27,86,163,-233,-250,-219,-51,163,-324,226,166,66,110,116,369,184911
-71,-9,48,-60,-55,-62,-121,-216,55,51,18,-95,125,-283,-40,67,-7,25,42,-55,177,-27,-78,20,-118,787,27,-9,19,32,-60,184912
752,162,-101,0,121,77,830,346,-205,-30,687,309,-60,267,186,811,-129,-170,-543,638,2037,701,-172,-565,551,3328,-541,-371,-411,-323,-1287,184913
1240,256,-190,-13,209,145,1338,655,-366,-234,925,419,-171,522,241,1238,-264,-325,-1031,991,3270,1100,-323,-1020,817,5132,-964,-684,-804,-646,-1956,184914
1409,276,-220,-56,214,148,1474,715,-443,-244,1041,316,-176,460,250,1397,-373,-423,-1280,1091,3830,1215,-444,-1245,825,6059,-1163,-855,-1026,-826,-2169,184915
520,122,-28,-123,25,12,437,93,-166,-246,155,-138,-32,-102,-52,650,-240,-169,-716,344,2010,441,-352,-630,30,3685,-539,-476,-608,-490,-549,184916
-481,-74,159,-171,-173,-155,-676,-592,-61,-271,-657,-594,135,-673,-244,-233,-12,117,91,-434,-333,-411,-155,185,-672,455,213,28,29,46,949,184917
-351,-37,149,-106,-115,-110,-480,-352,96,-173,-508,-216,119,-315,-50,-124,45,135,160,-273,-244,-277,-64,202,-433,500,214,70,115,123,590,184918
-270,-27,118,-85,-96,-99,-330,-152,141,-121,-231,-150,-59,-98,-61,-32,66,132,142,-180,-123,-182,-25,173,-312,620,188,66,117,123,425,184919
-250,-27,104,-76,-79,-79,-305,-383,126,229,-61,-141,-111,-268,-119,-56,15,73,104,-179,-156,-208,-63,113,-304,564,134,25,68,77,372,184920
-195,-26,80,-65,-68,-81,-256,-197,75,42,-86,-156,66,-471,-58,-52,-15,26,70,-164,-112,-188,-94,58,-272,596,87,-8,28,41,228,184921
-27,21,49,-28,-22,-57,-60,-67,38,0,-146,-82,4,-220,-41,81,-19,7,-1,-37,178,-54,-83,-25,-127,983,-3,-44,-13,2,-74,184922
1051,210,-182,23,175,97,1159,596,-220,1,715,313,-194,400,156,1005,-234,-320,-819,829,2611,866,-281,-864,696,4333,-823,-580,-644,-515,-1952,184923
1646,334,-268,28,275,196,1801,953,-348,14,944,489,-119,587,320,1564,-377,-470,-1365,1283,4179,1391,-435,-1367,1056,6616,-1287,-898,-1076,-872,-2647,184924
1562,337,-259,-25,224,135,1704,952,-368,-90,972,477,-135,512,322,1596,-353,-395,-1376,1235,4300,1361,-428,-1343,915,6920,-1235,-874,-1094,-892,-2256,184925
320,106,-12,-140,-50,-87,279,-68,-66,-102,-143,-112,68,-203,-34,580,-124,-21,-525,239,1731,353,-257,-417,-101,3508,-340,-310,-449,-347,-37,184926
-523,-50,179,-149,-190,-183,-703,-420,70,-175,-735,-434,228,-527,-152,-191,83,229,227,-431,-362,-377,-70,317,-668,586,342,146,146,165,1140,184927
-445,-52,162,-125,-147,-152,-622,-327,174,-126,-622,-234,61,-437,-126,-180,69,172,250,-390,-424,-343,-64,284,-524,433,296,124,168,180,825,184928
-334,-56,114,-118,-120,-117,-500,-457,80,-279,-398,-195,83,-412,-86,-141,21,78,171,-317,-292,-277,-102,166,-423,580,174,52,94,107,461,184929
-290,-58,108,-87,-97,-81,-439,-452,68,-309,-372,-298,103,-176,-93,-151,6,53,155,-300,-274,-251,-78,137,-379,560,157,35,83,86,293,184930
-217,-36,116,-51,-70,-46,-360,-227,160,-222,-172,-295,152,-16,-126,-100,5,55,129,-260,-203,-202,-62,131,-307,622,132,39,84,86,237,184931
-133,-18,85,-53,-56,-50,-228,-297,103,-97,74,-199,98,113,-64,6,37,70,113,-148,-17,-100,-24,102,-183,840,104,45,86,86,154,184932
187,40,3,-37,2,-5,161,-93,78,-175,196,-28,22,60,48,301,-18,-29,-124,134,728,195,-60,-161,82,1839,-134,-93,-100,-72,-383,184933
584,129,-55,-10,88,72,575,355,-137,13,429,100,3,122,184,629,-130,-160,-456,427,1625,511,-154,-478,331,3115,-455,-309,-361,-295,-1012,184934
787,166,-81,-16,120,94,776,427,-306,28,408,187,-60,256,146,801,-202,-223,-683,566,2161,664,-238,-677,429,3918,-641,-460,-535,-448,-1237,184935
263,69,34,-70,13,-8,171,-52,-33,-155,101,14,-125,-142,13,372,-117,-74,-352,127,1090,199,-195,-312,-38,2508,-273,-230,-302,-245,-280,184936
-271,-40,126,-94,-91,-93,-430,-259,90,-250,-469,-223,-11,-342,-106,-104,-12,74,83,-274,-169,-270,-89,114,-419,786,127,37,36,44,454,184937
-267,-37,116,-69,-91,-86,-391,-212,144,-113,-344,-321,5,-242,-71,-107,22,86,152,-227,-266,-261,-42,154,-338,623,168,71,107,106,453,184938
-173,-16,93,-50,-65,-52,-233,-99,18,-184,-251,-206,-82,-118,-72,-9,21,66,108,-122,-79,-161,-32,95,-217,848,111,47,73,82,252,184939
-222,-33,99,-47,-68,-60,-281,-258,62,87,-352,-181,53,-152,-66,-71,9,66,128,-176,-212,-232,-24,100,-274,646,116,67,78,71,382,184940
-255,-43,93,-45,-65,-70,-335,-334,159,-134,-317,-149,122,-248,-133,-114,23,72,151,-221,-355,-268,-6,140,-300,430,151,78,111,99,464,184941
-256,-39,75,-36,-65,-76,-302,-159,33,-14,-218,-117,55,-137,-110,-106,41,83,155,-203,-372,-251,9,164,-278,379,163,93,128,109,352,184942
79,30,5,-6,-5,-22,102,131,-28,32,-10,59,110,122,-32,183,-31,-27,-65,62,373,45,-46,-88,4,1373,-83,-55,-54,-50,-255,184943
237,54,-6,-5,36,13,262,255,-41,69,209,22,132,-16,1,318,-75,-75,-184,167,748,183,-104,-208,88,1912,-186,-128,-165,-137,-450,184944
248,71,7,-6,40,21,264,264,-45,149,150,79,77,121,136,358,-18,-3,-164,188,821,229,-60,-163,102,2001,-147,-95,-125,-91,-260,184945
-49,14,54,-30,-34,-55,-87,-152,90,-55,-147,17,31,43,27,111,37,80,27,-47,218,-1,-12,42,-131,1180,52,33,30,25,254,184946
-229,-28,82,-45,-72,-80,-322,-287,77,-146,-142,-94,148,-33,-97,-101,17,60,122,-220,-222,-179,-29,121,-283,574,133,61,80,65,362,184947
-213,-31,79,-55,-63,-66,-321,-243,57,-46,-200,-121,180,-216,-93,-105,-2,53,101,-230,-255,-185,-33,104,-268,511,112,52,81,60,325,184948
-236,-45,85,-55,-60,-54,-339,-316,99,42,-132,-98,66,-160,-144,-128,7,58,144,-252,-362,-206,-19,145,-280,346,153,88,119,91,374,184949
-203,-27,115,-26,-36,-15,-319,-116,190,19,-220,-113,-54,-224,-134,-134,16,59,183,-239,-368,-184,2,164,-256,304,162,104,138,102,292,184950
-186,-14,97,-15,-19,-9,-282,-15,89,-64,-59,-113,-68,-35,-67,-114,41,54,203,-209,-322,-159,29,163,-214,328,155,104,138,106,255,184951
-194,-25,77,-25,-32,-37,-253,-210,11,-93,0,-68,-93,-64,-60,-80,81,81,226,-175,-298,-118,67,189,-174,328,199,142,171,138,335,184952
-208,-36,67,-36,-57,-63,-231,-188,9,-38,-173,-43,50,-117,-111,-77,62,78,204,-164,-285,-119,46,168,-157,331,183,127,166,136,323,184953
-289,-54,70,-58,-56,-59,-322,-112,-37,-106,-461,-140,217,-151,-143,-175,28,55,203,-233,-456,-218,13,175,-230,97,175,113,153,124,387,184954
-314,-67,70,-49,-55,-53,-353,-240,58,-116,-289,-135,104,-204,-148,-213,25,59,207,-252,-559,-257,27,192,-248,-73,189,126,174,132,365,184955
-207,-41,63,-21,-33,-32,-253,-397,141,-68,-95,-139,-6,-260,-92,-121,48,66,199,-166,-413,-172,48,181,-143,106,173,132,176,134,291,184956
-137,-23,62,-14,-11,3,-206,-178,138,-107,-151,-101,74,-247,-49,-77,48,72,179,-129,-314,-136,56,149,-103,233,144,127,161,118,243,184957
-119,-24,53,-24,-12,-2,-183,44,149,-17,-306,-132,53,-10,-57,-79,26,33,147,-120,-308,-170,34,113,-99,238,109,106,127,85,119,184958
-142,-26,46,-19,-22,-14,-220,-108,161,208,-323,-96,-12,-82,-16,-79,67,72,171,-120,-368,-184,63,159,-110,150,163,138,161,114,281,184959
-199,-30,44,-16,-36,-35,-271,-291,30,-162,-221,-145,48,-167,-2,-131,67,91,220,-168,-508,-233,74,198,-148,-43,198,154,190,137,339,184960
-118,-11,39,18,-10,-9,-157,-179,-27,-198,-88,-32,65,-407,-27,-77,50,48,155,-99,-336,-172,58,132,-77,186,130,110,133,95,221,184961
-151,-27,39,8,-25,-21,-186,-171,63,-235,-10,-86,-54,-167,-54,-127,35,34,139,-138,-401,-213,51,128,-131,83,127,101,122,83,278,184962
-522,-95,123,-7,-96,-74,-607,-293,170,-17,-290,-363,-50,-228,-147,-475,83,123,359,-473,-1261,-545,88,379,-458,-1129,377,240,302,227,875,184963
-940,-171,218,-16,-164,-127,-1065,-493,367,198,-515,-502,72,-504,-162,-844,183,255,718,-811,-2294,-901,179,750,-746,-2625,722,474,597,474,1572,184964
-1185,-220,253,-10,-197,-155,-1286,-708,415,171,-727,-476,70,-382,-218,-1053,281,345,1013,-974,-2935,-1054,284,1006,-826,-3637,940,654,823,661,1916,184965
-572,-122,98,32,-72,-53,-574,-384,91,-34,-187,-148,-87,-47,-63,-560,174,144,622,-475,-1679,-510,220,552,-279,-2012,487,392,518,398,660,184966
16,-21,-23,31,42,34,57,-152,-14,-64,286,119,-65,180,48,-60,21,-44,109,-25,-299,6,91,49,138,-112,12,74,121,50,-178,184967
17,-17,-24,18,28,20,33,62,-2,70,170,152,23,128,-8,-42,-3,-28,37,-30,-191,18,63,20,77,53,9,34,63,8,-54,184968
36,3,-27,37,43,20,38,-38,-94,81,109,144,-31,193,-75,-22,-18,-33,6,-18,-96,31,40,-8,67,169,-9,13,36,1,-82,184969
34,2,-4,35,44,33,16,-201,-149,23,-75,61,-2,194,-69,-14,-2,-8,27,-19,-77,35,48,20,47,210,8,31,41,16,22,184970
40,7,14,28,40,39,32,-91,-59,61,-32,59,-71,0,34,1,18,7,31,-8,-50,48,46,32,54,247,22,40,44,34,4,184971
-81,-18,28,27,5,8,-121,-93,1,-46,-174,0,-125,14,43,-105,34,28,81,-119,-301,-61,62,98,-59,-69,81,74,87,69,152,184972
-550,-112,114,-9,-98,-66,-674,-335,89,-85,-619,-152,3,-305,-75,-527,103,126,412,-523,-1380,-505,122,430,-445,-1555,398,265,324,252,872,184973
-912,-171,193,-5,-153,-114,-1077,-715,285,-25,-810,-335,218,-231,-154,-847,223,273,784,-781,-2286,-793,250,768,-655,-2892,729,514,611,499,1491,184974
-1110,-207,219,1,-184,-141,-1293,-610,299,40,-1008,-434,296,-256,-213,-1015,308,361,1002,-885,-2827,-933,335,979,-718,-3743,918,668,814,656,1774,184975
-527,-111,104,59,-50,-43,-621,-249,127,81,-125,-53,32,55,-42,-536,221,192,650,-379,-1658,-438,284,595,-180,-2233,521,440,565,441,689,184976
108,7,-25,79,78,54,135,242,58,144,511,271,-184,474,140,32,71,-6,122,131,-167,93,158,66,295,-188,40,102,154,92,-251,184977
112,13,-19,62,75,63,165,183,-48,38,508,148,-2,200,100,39,39,-14,39,105,-81,69,123,21,218,-32,5,62,71,36,-226,184978
72,11,-20,60,57,40,126,116,-99,-106,186,49,161,20,-21,-22,6,-39,9,39,-144,-9,86,-5,113,-88,-9,40,26,-2,-127,184979
89,22,-20,73,60,51,143,22,-92,-110,141,45,135,39,-59,-28,-11,-48,-6,25,-113,-11,55,-29,105,-29,-27,17,8,-15,-193,184980
122,29,-40,56,50,42,171,144,-75,196,37,44,-180,373,1,24,-24,-44,-48,67,12,35,41,-62,136,174,-60,-8,-24,-42,-221,184981
-126,-25,19,30,-9,14,-127,82,56,44,-309,-124,-86,180,-24,-140,61,73,143,-110,-474,-151,114,149,-61,-494,148,134,140,93,363,184982
-983,-182,188,-11,-168,-123,-1087,-601,284,-121,-904,-404,2,-324,-168,-887,251,343,806,-802,-2428,-865,290,845,-690,-3238,816,565,660,537,1772,184983
-1388,-265,242,-3,-233,-183,-1533,-1049,253,-82,-964,-553,139,-680,-167,-1292,333,421,1168,-1120,-3529,-1211,376,1184,-924,-4854,1119,781,953,767,2261,184984
-1317,-260,211,42,-208,-164,-1412,-796,301,30,-793,-439,126,-631,-229,-1271,343,379,1200,-1042,-3533,-1136,393,1171,-778,-5005,1080,786,974,783,1892,184985
-400,-100,14,95,-16,-17,-334,5,75,-17,54,37,-164,133,37,-487,185,111,589,-275,-1559,-336,272,497,6,-2414,417,384,510,402,303,184986
257,19,-115,109,110,103,404,384,-130,125,491,228,-158,512,127,87,11,-96,-15,223,29,212,116,-77,421,-205,-118,8,35,0,-644,184987
269,41,-75,98,116,106,401,236,-168,127,540,211,25,266,79,118,0,-84,-92,212,183,221,96,-111,346,63,-129,-11,-29,-49,-530,184988
145,27,-54,69,60,57,284,-91,-86,110,340,216,-138,120,83,54,31,-17,-34,126,27,146,124,-29,224,-106,-38,32,19,-1,-184,184989
91,8,-66,42,30,30,215,6,-25,32,299,4,-54,333,93,41,15,-26,-51,94,-3,111,83,-26,171,-110,-41,12,10,-14,-121,184990
53,-24,-48,11,29,34,92,50,-92,111,80,58,-144,113,53,-45,-24,-54,-58,-2,-123,24,37,-32,72,-246,-57,-9,-21,-49,-108,184991
38,-9,7,41,72,85,9,-60,-111,-2,-161,135,81,-18,-48,-130,-51,-76,-50,-85,-272,-61,-1,-31,-20,-435,-46,-31,-29,-56,-47,184992
-302,-71,65,30,-7,20,-360,-161,16,125,-352,-121,-37,-119,-155,-453,-5,-6,181,-355,-1009,-366,38,198,-301,-1444,178,97,129,84,478,184993
-605,-124,105,25,-89,-52,-644,-308,311,50,-381,-218,149,-298,-189,-688,87,110,472,-566,-1702,-603,120,473,-454,-2457,444,294,362,285,935,184994
-800,-165,132,32,-115,-51,-827,-511,275,171,-487,-245,184,-530,-130,-849,152,190,673,-703,-2238,-757,191,671,-546,-3277,623,428,538,434,1170,184995
-328,-80,34,78,-17,23,-266,-161,122,234,-189,-35,203,-8,1,-451,107,71,407,-297,-1279,-337,182,359,-103,-2038,293,242,331,263,322,184996
200,35,-66,110,89,99,335,247,-67,205,351,197,128,167,93,22,10,-73,-23,136,-38,116,83,-60,281,-344,-88,-14,6,-18,-452,184997
117,21,-57,84,59,66,213,233,-67,90,304,89,-106,75,56,-16,-3,-48,-51,63,-95,66,60,-35,172,-396,-66,-11,-3,-35,-237,184998
183,28,-60,64,73,74,234,31,-28,81,196,148,-157,54,89,18,-60,-103,-149,89,75,102,11,-136,179,-130,-161,-78,-89,-100,-371,184999
140,8,-39,41,59,62,167,104,74,92,164,41,98,145,34,-7,-44,-83,-119,55,25,70,20,-102,130,-190,-121,-69,-72,-81,-284,185000
115,5,-11,32,59,69,120,172,177,90,-17,35,-34,52,-15,-14,-21,-60,-79,51,1,63,37,-57,117,-219,-87,-45,-36,-53,-155,185001
38,-5,9,17,33,51,40,-1,106,83,59,30,11,7,-53,-62,0,-30,-11,4,-110,30,41,-1,73,-370,-17,-3,7,-18,44,185002
-479,-79,107,2,-61,-30,-524,-467,133,18,-276,-86,79,-113,-101,-488,116,156,385,-393,-1245,-400,139,418,-307,-1944,390,264,320,255,936,185003
-759,-143,125,1,-123,-91,-799,-563,175,232,-381,-117,-52,-47,-147,-730,192,236,645,-588,-1944,-629,219,659,-458,-2964,605,417,539,432,1268,185004
-783,-176,111,10,-135,-99,-841,-509,230,232,-349,-174,-18,-228,-147,-808,173,192,673,-641,-2148,-691,216,670,-456,-3295,608,415,549,439,1137,185005
-197,-69,12,65,13,39,-199,9,145,278,259,93,-9,76,34,-349,56,10,275,-198,-988,-233,126,232,2,-1737,186,149,237,174,21,185006
187,16,-55,89,96,102,247,257,71,230,322,256,-233,152,88,12,-4,-72,-27,113,-48,97,81,-58,262,-446,-86,-23,8,-27,-443,185007
150,24,-51,75,69,78,215,4,24,124,285,150,-60,238,172,13,24,-23,-21,114,-28,92,95,-24,207,-397,-44,1,13,-10,-269,185008
188,36,-71,70,65,58,296,337,-69,198,169,119,-211,128,114,93,36,-7,-55,179,153,164,89,-45,263,-126,-59,-15,2,-15,-293,185009
178,31,-80,49,56,19,292,319,-55,68,281,199,-229,92,139,121,21,-26,-76,177,214,165,70,-61,257,-13,-87,-24,-25,-25,-246,185010
123,34,-72,38,29,-4,232,175,-43,8,131,197,-28,154,103,88,35,6,-40,148,136,130,85,-15,203,-90,-32,3,-4,0,-92,185011
36,28,-44,47,17,-2,137,173,-55,124,26,77,109,163,65,22,60,43,31,81,-29,69,95,64,131,-316,49,55,54,52,104,185012
-163,-17,-5,29,-14,-5,-92,-117,-27,38,-119,-12,47,206,70,-167,72,85,161,-108,-493,-120,88,194,-39,-954,176,125,143,129,339,185013
-326,-53,30,13,-37,-13,-298,-440,41,-70,-129,-83,-45,-104,-66,-338,106,115,303,-259,-940,-287,121,324,-179,-1583,300,213,245,203,554,185014
-496,-87,76,26,-58,-32,-494,-457,191,-4,-312,-159,-22,-190,-79,-515,149,159,479,-413,-1418,-456,168,481,-302,-2284,438,313,373,295,857,185015
-221,-51,0,50,-9,-2,-152,-69,-18,53,-346,32,-41,83,-109,-311,70,42,249,-184,-856,-219,107,236,-60,-1560,197,149,215,168,248,185016
191,22,-92,57,52,52,305,286,-265,138,61,73,-67,355,6,67,-9,-71,-80,164,142,159,48,-90,255,-207,-119,-52,-38,-44,-354,185017
154,33,-69,62,49,49,236,218,-133,116,70,247,-94,267,-3,73,24,-21,-53,142,146,161,68,-37,212,-177,-59,-21,-22,-23,-186,185018
108,26,-48,55,43,38,166,62,-75,195,226,215,85,164,86,31,23,-15,-7,102,74,126,55,-5,171,-257,-35,-8,0,-24,-153,185019
129,31,-37,47,55,55,168,236,-46,5,305,165,-11,97,89,45,12,-19,-14,107,113,136,38,-1,172,-196,-34,-6,-5,-8,-200,185020
94,23,-36,36,45,55,118,113,-45,158,208,161,-34,244,107,8,3,-10,-24,68,48,102,24,-1,123,-283,-12,3,-2,-3,-179,185021
176,37,-47,41,52,58,211,25,-115,131,159,155,-63,73,99,77,-13,-51,-88,126,242,171,10,-85,186,1,-94,-48,-53,-54,-239,185022
-133,-26,14,2,-15,0,-146,-137,36,148,-273,-23,26,-36,-65,-172,51,61,101,-119,-408,-91,61,135,-73,-859,128,86,103,72,350,185023
-290,-61,38,-3,-42,-6,-321,-43,59,-142,-318,-108,-19,48,-160,-309,99,110,254,-225,-791,-225,114,269,-144,-1411,241,173,213,169,502,185024
-119,-39,8,18,0,24,-126,-80,79,-322,-102,-59,-50,40,-82,-177,42,22,137,-90,-458,-101,80,133,-3,-968,96,81,118,86,66,185025
20,-5,-24,32,26,42,54,-24,-45,-49,106,78,68,-103,-34,-49,5,-15,11,23,-135,2,39,23,103,-518,-3,10,23,10,-149,185026
108,23,-39,40,38,42,183,177,-36,-63,89,192,9,88,40,37,-4,-26,-48,104,80,79,17,-34,166,-215,-45,-27,-20,-12,-201,185027
81,16,-24,40,41,55,159,85,-53,-141,97,133,54,299,103,14,-9,-36,-45,67,33,48,-5,-41,121,-242,-43,-28,-37,-27,-172,185028
23,1,-11,21,14,38,71,52,-143,-140,30,32,84,106,120,-48,7,-22,-21,6,-84,-13,3,-5,69,-407,-18,-24,-16,-20,-73,185029
40,5,-33,15,11,25,90,63,-52,63,-57,142,168,192,39,-10,23,-4,-23,44,-21,16,30,-13,108,-339,-17,-11,-6,-17,-82,185030
56,7,-58,14,8,12,128,15,-100,50,72,41,117,274,-70,25,15,-8,-21,79,37,53,48,-16,136,-236,-27,7,4,-16,-73,185031
61,14,-46,10,22,17,121,90,-66,-23,50,-32,-4,115,-28,15,-3,-9,-27,63,36,39,28,-22,120,-233,-40,-9,-5,-13,-69,185032
47,-1,-21,10,31,35,47,69,36,74,19,-52,146,-85,33,-32,-9,-22,-24,15,-54,-7,9,-20,63,-356,-35,-10,-17,-30,-56,185033
11,-15,-3,17,25,28,18,-33,-5,179,234,97,-138,-82,63,-45,10,-5,-1,-4,-127,-15,23,21,48,-440,-5,4,13,-5,35,185034
-66,-14,-12,15,-8,-20,-9,-94,86,55,240,95,-275,33,-21,-64,57,36,77,-21,-216,-23,62,100,41,-567,69,63,79,66,191,185035
16,10,-37,28,14,4,91,20,-17,157,-72,137,-106,38,84,21,58,33,60,63,-29,69,75,60,125,-329,32,59,56,61,61,185036
89,15,-51,15,29,14,157,-138,40,199,177,145,17,12,75,51,-4,-36,-63,88,133,105,10,-47,127,-89,-74,-38,-53,-40,-115,185037
73,10,-54,9,10,-5,107,-9,-62,153,266,103,-102,-25,49,30,-6,-25,-67,62,98,73,-6,-48,84,-123,-71,-42,-51,-46,-68,185038
110,32,-49,18,21,1,144,185,-153,94,263,168,-99,222,99,87,8,-3,-52,110,196,133,21,-48,143,11,-64,-26,-37,-37,-100,185039
125,32,-49,8,31,7,165,120,-65,-64,116,232,-174,385,26,127,23,0,-80,143,281,162,23,-48,170,146,-59,-25,-39,-34,-87,185040
54,24,-21,0,11,5,86,-106,-2,-105,304,-90,163,446,9,54,31,17,-37,71,102,90,30,1,103,-75,-19,2,-2,-9,65,185041
-52,5,-5,-1,-8,-6,-43,-189,66,-30,57,-69,232,133,26,-66,19,26,27,-39,-145,-23,13,57,6,-423,32,29,39,23,140,185042
-92,-20,-9,-10,-19,-15,-111,-355,-25,-4,-260,-36,183,126,0,-105,34,36,82,-55,-253,-58,29,98,-7,-579,57,67,74,60,169,185043
6,-7,-13,6,7,17,15,-168,-36,-119,-82,13,45,196,-5,-20,31,9,29,29,-54,28,27,19,83,-310,5,24,27,15,-17,185044
42,9,-11,-3,12,19,68,-91,-109,139,72,94,84,143,-26,41,23,15,-29,70,63,65,23,-8,123,-131,-18,14,1,-4,-88,185045
-1,12,2,9,1,8,16,133,-35,135,75,105,118,146,58,13,36,37,15,37,-34,31,44,39,98,-279,37,44,38,31,14,185046
59,25,-3,32,22,9,68,102,-11,118,31,54,14,-11,70,47,24,13,-11,69,65,67,30,-5,124,-153,-2,21,13,6,-132,185047
87,15,-6,14,36,20,56,157,116,162,-129,20,-25,-190,42,20,-34,-44,-62,45,82,40,-31,-66,105,-122,-74,-26,-40,-44,-148,185048
110,22,6,31,49,50,80,403,173,-4,241,51,44,-124,51,19,-36,-48,-69,55,109,49,-29,-72,108,-70,-94,-33,-55,-65,-200,185049
126,33,4,40,46,56,115,258,38,-106,226,81,-5,-119,-15,36,-28,-44,-78,75,165,67,-15,-83,112,-4,-98,-38,-75,-75,-150,185050
63,13,-10,13,18,22,59,94,-88,-78,143,-61,123,-132,-58,10,-23,-34,-63,46,91,37,-14,-66,72,-104,-71,-35,-59,-56,-130,185051
-21,-9,-5,-18,-16,-4,-7,115,17,-43,-82,-8,72,-49,35,-10,19,26,19,19,-19,1,29,21,42,-271,23,36,20,13,91,185052
-216,-40,17,-25,-44,-41,-176,-258,191,-9,-203,-2,76,3,26,-154,86,104,191,-105,-440,-125,92,199,-80,-843,191,172,171,136,446,185053
-121,-35,-23,-18,-32,-35,-84,-60,-14,-22,-236,-6,-217,-139,-42,-123,22,22,96,-69,-294,-86,31,90,-38,-643,73,84,85,52,136,185054
-151,-35,8,-3,-20,-20,-163,-60,-59,-17,-271,45,-123,-148,-57,-187,0,7,95,-141,-442,-160,4,97,-101,-830,91,81,84,47,224,185055
-35,0,-5,21,8,4,-11,18,-32,-51,-33,-91,117,-25,-26,-68,44,22,76,-24,-234,-34,41,78,18,-570,74,77,82,61,90,185056
101,22,-14,31,32,29,148,63,-128,-69,-79,-48,38,178,-39,66,18,-4,-8,89,107,103,42,-22,135,-111,-30,29,12,1,-61,185057
78,7,-19,2,14,13,93,-8,-48,-34,-30,-30,36,-37,-50,21,-43,-68,-71,47,111,61,-24,-94,69,-71,-91,-33,-53,-63,-130,185058
54,-15,-30,-13,9,18,16,7,-75,49,-132,-87,53,-32,-58,-9,-56,-75,-105,11,55,25,-70,-96,25,-125,-89,-52,-68,-75,-147,185059
36,-26,-14,-26,-3,7,-44,143,-22,193,-149,-5,-39,14,32,-3,-4,-31,-62,28,37,36,-17,-42,35,-147,-48,-5,-30,-35,-40,185060
69,-8,0,-4,17,13,-25,242,4,-103,214,42,28,-137,106,43,10,-5,-35,67,107,80,13,-28,71,-69,-32,17,-6,-12,-114,185061
-122,-41,8,-33,-28,-28,-222,70,84,112,206,-23,75,-207,27,-121,13,8,41,-101,-282,-98,-1,71,-89,-577,67,54,46,32,98,185062
-769,-150,145,-60,-160,-123,-897,-316,148,145,-247,-297,137,-427,-111,-671,150,203,539,-614,-1754,-638,126,578,-562,-2618,560,388,435,347,1306,185063
-939,-181,168,-27,-180,-141,-1016,-355,243,240,-437,-237,281,-257,-108,-850,229,271,775,-730,-2321,-790,221,767,-607,-3494,723,534,626,507,1501,185064
-689,-152,124,14,-101,-72,-728,-349,133,80,-357,-114,187,-127,-63,-685,188,194,641,-538,-1916,-609,209,603,-367,-3025,555,431,533,423,1073,185065
-210,-59,43,68,13,23,-203,-46,80,-14,-178,60,27,90,-40,-296,113,68,328,-143,-927,-206,146,280,28,-1732,233,233,298,230,219,185066
248,14,-69,68,74,74,309,299,-78,-17,195,142,-59,218,45,74,-54,-116,-123,168,167,156,-2,-179,317,-213,-196,-62,-77,-88,-461,185067
218,11,-82,66,59,38,270,364,-63,-6,40,83,-116,64,8,58,-89,-140,-193,122,212,114,-47,-217,232,-111,-229,-113,-141,-150,-392,185068
204,25,-63,62,57,27,248,437,-68,17,17,79,215,141,30,76,-61,-104,-170,133,245,122,-39,-177,209,-55,-190,-81,-117,-124,-327,185069
155,27,-53,49,45,25,193,204,21,223,279,123,133,46,97,49,-45,-74,-117,96,164,85,-29,-127,148,-143,-127,-34,-85,-87,-243,185070
148,44,-62,60,37,9,227,56,76,205,237,202,32,102,126,89,-15,-42,-98,129,218,110,-10,-112,168,-69,-101,-15,-56,-67,-229,185071
13,0,-58,28,-14,-25,85,10,108,31,215,134,-266,-4,1,-5,5,-4,-32,40,-22,16,10,-31,62,-366,-31,28,-10,-33,-6,185072
-362,-66,34,8,-84,-71,-350,-249,106,-80,35,-117,-142,-222,-66,-311,112,140,270,-255,-881,-288,90,298,-213,-1562,292,230,240,191,685,185073
-477,-95,67,11,-91,-78,-474,-120,149,103,-301,-216,13,-82,-85,-419,148,170,400,-318,-1194,-362,144,416,-258,-2043,393,310,340,284,842,185074
-357,-85,54,17,-57,-44,-358,70,43,41,-366,-117,152,6,-54,-362,124,110,329,-239,-1003,-278,132,320,-146,-1816,292,252,286,227,489,185075
-78,-30,0,34,9,8,-73,269,45,-27,251,-3,-59,35,0,-156,27,-5,122,-44,-444,-78,45,104,48,-1056,71,105,109,75,-60,185076
55,-14,-33,31,33,24,73,222,88,55,306,135,-21,-25,61,-41,-39,-71,-30,44,-101,32,-13,-55,102,-557,-68,3,-15,-38,-236,185077
101,4,-31,40,42,43,138,120,15,95,110,124,223,10,73,8,-29,-55,-63,73,30,84,-2,-77,118,-370,-80,-14,-34,-50,-221,185078
31,-1,-33,33,15,24,107,171,-33,-23,39,106,105,270,-23,-16,16,-3,6,52,-52,62,23,-7,87,-498,1,46,27,5,-81,185079
52,2,-58,29,12,9,154,106,-80,-55,-23,102,22,164,33,9,8,-18,-12,79,30,95,24,-25,106,-383,-31,34,-3,-18,-133,185080
51,2,-68,22,7,2,152,20,-144,-63,-94,87,39,264,48,14,-8,-31,-22,67,44,94,2,-55,93,-354,-48,13,-34,-37,-131,185081
25,-13,-52,19,3,5,116,125,-201,-88,-17,34,-4,195,46,-15,-18,-27,-30,45,0,65,-1,-47,61,-406,-47,0,-42,-37,-76,185082
-522,-125,51,-26,-110,-77,-515,-215,55,-33,-366,-205,172,-330,-123,-494,64,96,325,-412,-1217,-428,55,342,-370,-2069,337,237,242,181,846,185083
-805,-175,110,-19,-159,-114,-876,-400,187,-17,-863,-266,109,-481,-115,-776,148,177,600,-636,-2021,-686,138,612,-535,-3230,582,411,461,375,1229,185084
-644,-152,79,18,-97,-61,-707,-333,102,-57,-668,-196,52,-327,-61,-687,119,125,524,-522,-1806,-587,118,499,-374,-2998,471,356,405,333,931,185085
-186,-56,-1,70,5,21,-169,-110,-70,-190,-224,0,-3,136,-44,-291,77,25,259,-131,-842,-193,96,204,38,-1750,175,192,222,173,134,185086
245,25,-88,74,72,64,321,227,-166,-8,361,183,-121,189,97,120,2,-77,-96,231,191,189,50,-141,372,-310,-151,-11,-49,-56,-420,185087
191,20,-94,36,34,21,279,271,-185,84,245,106,-211,137,27,116,-6,-71,-117,197,225,152,44,-131,298,-235,-138,-15,-61,-74,-383,185088
152,21,-75,29,32,24,228,46,-124,83,86,112,-178,216,82,82,-8,-60,-85,159,176,118,38,-105,235,-284,-96,19,-63,-58,-276,185089
137,18,-60,37,29,31,193,200,-33,18,-24,104,-110,76,71,69,-3,-44,-79,142,157,99,15,-96,193,-289,-70,15,-64,-46,-197,185090
153,28,-40,46,51,54,175,227,-18,22,119,172,-69,137,115,69,-2,-30,-94,138,164,84,-3,-91,178,-253,-64,-5,-63,-42,-107,185091
36,-19,-24,10,9,34,14,-68,-45,-9,-76,81,-155,-45,23,-60,-33,-44,-97,11,-91,-49,-43,-75,38,-565,-50,-18,-76,-54,43,185092
-377,-78,77,-7,-72,-24,-448,-35,132,50,-368,-130,-102,-105,-179,-392,82,94,240,-307,-1012,-367,75,267,-260,-1844,271,215,193,167,669,185093
-643,-124,122,-10,-115,-64,-707,-141,195,4,-574,-282,10,-39,-128,-605,166,192,513,-476,-1648,-558,162,529,-376,-2777,504,403,416,353,1032,185094
-613,-140,84,2,-102,-52,-634,-321,92,-73,-382,-198,9,-86,-78,-573,185,188,544,-416,-1631,-498,201,521,-296,-2819,498,409,442,372,955,185095
-165,-47,3,49,5,26,-139,50,-54,104,23,126,9,148,83,-224,96,64,248,-78,-721,-126,142,211,63,-1633,189,201,215,173,138,185096
150,12,-71,37,48,60,203,183,-69,-11,-147,151,-86,47,103,28,-19,-76,-76,136,35,132,24,-111,245,-583,-97,-7,-47,-49,-329,185097
166,18,-77,27,41,44,238,104,-70,-3,35,72,-93,-18,86,71,-38,-91,-121,155,195,187,-4,-141,240,-360,-136,-29,-94,-86,-348,185098
105,12,-70,28,22,26,200,148,59,69,-48,44,-189,-85,4,56,-15,-47,-83,130,171,186,22,-89,194,-400,-74,12,-54,-48,-183,185099
89,8,-70,13,7,10,179,157,27,3,-115,103,-161,5,-27,48,-6,-25,-61,130,160,191,48,-82,177,-415,-57,8,-41,-41,-130,185100
96,-1,-60,11,9,9,185,77,-139,98,-95,170,-280,-13,-58,56,-6,-34,-71,134,191,186,25,-87,170,-359,-68,2,-50,-45,-123,185101
-33,-29,-38,-13,-21,-24,34,45,-51,4,-12,82,-187,-18,-34,-59,-10,-14,-23,2,-88,36,5,-22,37,-715,-7,34,-24,-28,138,185102
-481,-102,68,-16,-97,-75,-488,-331,189,26,-147,-72,-56,-430,20,-464,68,110,316,-379,-1145,-368,79,323,-312,-2163,319,253,241,190,847,185103
-606,-128,88,-2,-117,-84,-654,-513,145,-30,-171,-86,-65,-414,-38,-613,85,123,441,-491,-1569,-517,97,435,-377,-2769,416,322,355,286,905,185104
-390,-80,40,37,-64,-38,-385,-187,91,-34,-153,-19,9,-103,58,-446,83,81,371,-293,-1198,-336,119,327,-151,-2310,310,272,294,238,567,185105
-15,-12,-62,56,17,11,77,184,-77,286,171,67,-97,64,130,-119,0,-52,72,16,-339,-22,48,11,153,-1140,13,76,56,38,-147,185106
215,27,-88,52,63,53,319,258,-136,108,145,147,-67,164,25,116,-35,-87,-122,209,256,174,7,-150,312,-298,-151,-24,-84,-79,-462,185107
174,24,-64,31,41,48,265,237,-71,-100,64,186,-123,136,30,127,4,-31,-92,208,269,161,48,-102,276,-261,-94,18,-53,-43,-291,185108
113,9,-59,2,25,40,184,-16,5,-171,-152,140,-185,96,37,74,-22,-32,-95,149,165,93,24,-94,188,-353,-83,5,-62,-45,-194,185109
121,18,-41,14,25,47,166,-55,-77,-201,28,111,-164,42,73,49,-29,-39,-101,112,113,72,1,-85,149,-393,-83,-9,-71,-48,-204,185110
94,7,-46,-1,24,28,119,-79,-13,90,-76,158,-143,-7,64,32,-21,-34,-114,91,87,49,-23,-89,119,-428,-76,-20,-73,-53,-235,185111
128,23,-55,27,34,14,150,61,4,171,225,46,-80,65,33,66,-2,-28,-98,125,141,79,-2,-85,151,-350,-65,0,-64,-47,-172,185112
-10,-3,-45,18,-19,-31,11,-73,-50,115,167,-2,22,76,8,-36,11,18,1,25,-114,-14,25,13,61,-692,24,57,8,10,64,185113
-26,-13,-34,10,-27,-20,-8,24,80,16,167,144,165,244,33,-43,26,36,37,25,-171,-11,42,46,64,-771,57,87,31,54,51,185114
83,10,-27,13,10,20,102,69,64,37,81,163,149,120,94,28,-22,-20,-52,90,45,65,4,-48,124,-486,-39,9,-36,-9,-212,185115
134,17,-18,23,34,41,148,-93,7,-126,237,235,-105,153,100,58,-45,-48,-114,116,178,104,-22,-114,147,-298,-89,-40,-74,-72,-206,185116
112,8,-20,12,27,36,110,263,-55,-61,335,161,-104,54,56,45,-32,-35,-113,91,154,95,-26,-96,121,-328,-73,-30,-71,-56,-226,185117
131,8,-19,12,39,47,131,204,-8,-143,61,168,-134,162,27,53,-29,-38,-116,99,196,120,-17,-106,125,-267,-86,-39,-85,-58,-260,185118
83,-11,-20,-14,16,29,94,159,37,-422,112,63,6,-131,-7,3,-48,-65,-103,49,126,67,-31,-104,67,-342,-104,-47,-103,-71,-261,185119
164,22,-39,8,40,57,225,210,-105,-248,143,19,43,-91,-3,94,-61,-74,-131,126,333,158,-36,-151,158,-65,-149,-65,-132,-103,-381,185120
164,20,-62,3,27,37,249,75,-174,212,130,171,-247,-352,14,120,-63,-68,-162,136,383,162,-55,-158,145,13,-149,-78,-138,-110,-394,185121
193,33,-53,15,39,42,266,-38,-158,19,30,108,-221,54,10,151,-50,-53,-183,175,437,194,-49,-166,163,117,-142,-82,-136,-106,-276,185122
311,51,-64,30,67,59,353,275,-138,-240,161,13,-179,96,10,243,-52,-75,-248,264,649,269,-57,-229,231,434,-210,-132,-190,-143,-507,185123
406,72,-90,25,85,65,443,395,-55,-118,254,98,-141,111,-25,348,-68,-91,-307,345,939,362,-62,-293,306,843,-265,-164,-239,-174,-632,185124
374,82,-92,9,55,37,412,272,19,-56,141,59,-213,150,49,336,-67,-81,-302,323,941,352,-57,-291,265,871,-254,-170,-242,-181,-509,185125
211,49,-51,-7,22,0,242,-44,34,-101,-82,17,-184,56,45,213,-55,-50,-238,179,613,204,-64,-209,101,472,-167,-125,-189,-136,-183,185126
-4,-5,-21,-28,-29,-33,-1,-12,73,-153,-59,0,-31,158,42,26,-24,1,-82,11,135,23,-42,-50,-60,-173,-19,-27,-72,-46,106,185127
-7,2,-31,-36,-38,-40,18,-174,-18,-143,109,17,87,232,25,46,16,25,-28,36,139,54,2,-7,-16,-189,18,14,-29,-8,16,185128
8,5,-47,-37,-27,-28,33,-202,23,58,29,-87,18,55,39,54,21,21,-22,57,167,80,5,-12,24,-166,7,16,-29,0,-80,185129
26,4,-42,-32,-16,-22,61,103,28,152,-140,20,79,121,-9,78,2,5,-54,73,209,99,-10,-37,48,-100,-25,-15,-52,-23,-130,185130
63,13,-24,-19,-7,4,85,259,16,-50,-29,151,86,89,26,88,-2,1,-54,82,245,118,-13,-38,57,-58,-35,-12,-52,-18,-68,185131
104,21,-45,-16,5,4,151,162,-125,-83,113,28,180,101,1,122,-24,-36,-92,123,359,162,-30,-91,92,108,-85,-49,-86,-52,-231,185132
391,75,-83,10,69,61,436,239,-297,-58,276,36,17,219,45,349,-102,-119,-304,335,970,369,-97,-316,289,972,-304,-194,-253,-195,-773,185133
478,89,-59,11,100,104,471,80,-223,22,227,98,-9,149,67,409,-121,-137,-408,360,1155,415,-126,-391,293,1274,-365,-253,-330,-258,-744,185134
496,95,-59,-5,91,97,483,258,-120,38,290,76,75,56,61,430,-135,-147,-463,366,1235,420,-150,-429,276,1450,-390,-291,-379,-289,-773,185135
233,48,-36,-40,15,28,214,111,-16,-1,-146,82,23,36,-13,236,-97,-74,-302,176,756,207,-109,-265,71,841,-229,-189,-258,-195,-428,185136
3,10,-6,-42,-30,-17,-34,-42,135,-51,-91,18,-121,-29,31,47,-24,0,-103,6,220,11,-69,-59,-77,114,-36,-61,-99,-50,-56,185137
-22,1,-22,-45,-35,-32,-33,-145,34,-130,-63,-14,9,23,-11,27,0,8,-57,12,132,-15,-46,-30,-61,-7,-12,-24,-63,-18,35,185138
31,11,-18,-33,-18,-27,40,-52,-41,-26,16,73,-74,-119,46,78,2,3,-64,68,211,21,-23,-47,2,107,-43,-34,-68,-28,0,185139
45,24,-3,-3,-5,-15,48,2,-42,171,65,-6,4,-129,34,68,-16,-1,-69,46,174,-9,-43,-38,-25,47,-33,-51,-64,-25,32,185140
-23,13,11,-10,-13,-27,-14,24,-10,-87,-33,78,33,-25,-33,19,21,41,-4,6,24,-49,-21,32,-59,-157,36,9,-10,25,80,185141
191,52,-22,15,42,26,240,151,-53,-153,-106,187,28,72,53,219,8,4,-84,199,475,174,-4,-80,146,446,-84,-32,-71,-30,-316,185142
917,178,-178,30,165,141,1044,663,-221,-95,357,342,-142,479,134,835,-180,-243,-675,768,2167,782,-164,-699,659,2793,-683,-443,-550,-426,-1605,185143
1145,214,-210,-2,196,155,1244,602,-255,-114,729,350,-217,278,158,1052,-272,-343,-978,905,2866,967,-285,-964,724,3846,-912,-625,-786,-635,-1829,185144
963,190,-180,-51,144,103,1012,613,-186,-2,610,189,-145,84,101,939,-259,-287,-912,759,2621,839,-291,-861,517,3611,-806,-577,-743,-596,-1522,185145
380,78,-57,-100,5,6,366,203,13,-31,167,-148,-103,-203,14,463,-173,-120,-531,294,1431,365,-222,-447,32,2056,-397,-337,-462,-353,-416,185146
-165,-14,66,-101,-84,-67,-264,-310,98,-127,-363,-365,23,-215,-101,-32,-38,46,-47,-127,119,-85,-110,30,-345,253,54,-45,-80,-18,440,185147
-128,-16,63,-80,-45,-33,-265,-275,46,-26,-68,-291,-8,-245,-112,-47,-43,28,-2,-128,48,-78,-103,36,-278,117,56,-35,-44,8,266,185148
-126,-20,60,-64,-42,-25,-232,-112,102,-6,-74,-231,61,-197,-63,-32,11,60,75,-102,-9,-54,-42,89,-219,0,99,17,20,51,244,185149
-109,-10,59,-35,-43,-36,-166,-186,-92,10,-216,-57,67,-95,-31,8,61,99,106,-44,13,3,29,127,-135,-16,124,60,76,94,268,185150
-97,-24,40,-45,-50,-42,-167,-65,-97,-188,-131,-111,-46,-179,-66,-19,19,58,59,-67,2,-3,-7,69,-139,-36,69,15,19,58,138,185151
82,21,27,-19,1,9,13,119,45,67,80,-56,184,56,38,87,-72,-49,-80,32,329,90,-79,-92,-26,408,-92,-92,-108,-57,-285,185152
780,156,-94,33,161,117,809,648,-28,188,468,338,130,254,226,667,-229,-274,-626,571,1864,647,-223,-632,483,2562,-616,-439,-517,-410,-1365,185153
1035,208,-165,27,191,133,1106,684,-233,47,721,361,-45,140,251,928,-285,-325,-883,771,2603,872,-299,-873,617,3662,-826,-609,-712,-574,-1688,185154
986,214,-154,-5,154,108,1042,614,-208,74,790,241,-36,181,156,938,-275,-283,-862,747,2656,849,-314,-845,541,3815,-781,-588,-713,-565,-1414,185155
356,84,-44,-80,4,-17,329,159,-87,-33,198,-156,97,-185,-4,424,-171,-116,-486,244,1363,312,-246,-418,14,2148,-355,-329,-428,-319,-302,185156
-145,5,78,-68,-73,-64,-220,-159,20,-84,-97,-246,158,-217,-80,13,1,77,-15,-116,151,-103,-77,54,-294,479,75,-19,-38,8,401,185157
-188,3,81,-47,-61,-57,-262,-160,105,4,-82,-225,-70,-198,-72,-32,47,110,107,-127,-76,-160,-16,137,-268,136,151,55,69,90,461,185158
-131,6,77,-34,-41,-43,-209,-155,110,27,26,-134,6,-157,-37,-14,26,87,79,-103,-70,-144,-24,119,-213,126,128,37,53,79,335,185159
-135,-3,86,-28,-36,-31,-231,-279,127,-248,85,-157,-38,-183,14,-52,25,72,97,-130,-161,-181,-30,113,-223,-6,117,39,60,88,319,185160
-48,-1,65,-39,-11,-5,-162,-63,167,-68,-9,-296,145,-152,17,-10,-4,14,13,-76,-13,-126,-42,23,-173,197,28,-25,-13,12,139,185161
155,24,9,-21,22,33,64,178,86,-282,41,-64,129,-151,1,174,-30,-39,-100,96,430,62,-73,-108,5,792,-95,-100,-99,-66,-310,185162
959,187,-157,30,170,137,998,552,-198,-31,704,336,-85,332,167,885,-199,-261,-697,756,2306,787,-225,-735,628,3381,-699,-499,-577,-443,-1659,185163
1306,273,-208,31,232,165,1404,719,-261,32,1012,335,-196,412,210,1222,-300,-361,-1072,1015,3300,1100,-321,-1068,794,4844,-997,-724,-864,-686,-2004,185164
1082,249,-141,-5,169,123,1135,688,-216,39,680,246,-160,310,178,1094,-254,-266,-948,848,2988,940,-297,-904,553,4518,-834,-630,-771,-616,-1495,185165
315,90,4,-89,0,-15,248,82,65,-25,212,-77,87,-203,-22,441,-127,-57,-450,221,1365,306,-213,-350,-94,2364,-299,-299,-390,-289,-92,185166
-265,-29,102,-115,-115,-96,-388,-478,173,68,-254,-234,300,-496,-83,-89,-1,98,43,-252,-27,-179,-103,105,-486,427,132,-13,-17,30,586,185167
-230,-17,99,-76,-72,-67,-319,-299,143,87,-230,-166,294,-312,-26,-66,25,95,119,-208,-89,-134,-73,123,-383,288,141,18,40,75,482,185168
-184,-16,98,-51,-57,-67,-264,-94,148,-12,13,-164,113,-184,-108,-54,11,68,93,-173,-71,-103,-72,102,-316,276,108,3,38,56,432,185169
-172,-14,88,-40,-48,-57,-256,-131,103,52,-12,-146,93,-164,-67,-62,-2,48,86,-158,-76,-94,-68,79,-277,238,81,-3,45,52,347,185170
-119,-6,72,-37,-41,-41,-213,-78,37,-144,66,-250,-5,-125,-84,-14,-13,25,61,-118,15,-51,-59,39,-219,341,42,-19,21,33,214,185171
22,19,54,-26,-7,-4,-98,-31,-22,-81,21,-41,-51,-53,-7,106,-9,13,28,9,282,86,-39,-1,-82,677,1,-36,0,23,-27,185172
581,109,-86,-11,89,56,530,433,-149,-147,363,319,-161,148,114,601,-115,-140,-404,482,1568,562,-143,-437,369,2459,-410,-310,-324,-242,-948,185173
996,207,-157,4,165,102,1009,643,-229,-10,594,327,-113,364,187,978,-200,-255,-767,790,2618,915,-229,-790,633,3977,-739,-541,-614,-496,-1517,185174
1033,228,-149,6,161,92,1081,570,-224,25,755,328,-201,375,238,1032,-226,-269,-865,800,2837,933,-264,-863,600,4388,-799,-585,-704,-562,-1478,185175
335,98,-19,-65,4,-22,324,-70,-24,-101,202,-123,-79,-137,-5,441,-144,-95,-455,205,1377,295,-233,-403,-28,2485,-348,-317,-402,-316,-308,185176
-260,-15,100,-80,-107,-102,-328,-332,45,-38,-361,-379,26,-367,-166,-83,-11,78,58,-254,-59,-236,-89,95,-433,531,101,-8,0,16,572,185177
-200,-6,111,-45,-68,-57,-262,-162,-9,-72,-222,-286,119,-30,-111,-34,33,105,133,-179,-87,-197,-17,133,-299,469,139,33,74,84,455,185178
-169,-5,104,-30,-50,-49,-247,-186,-113,-144,-249,-228,-4,-12,-47,-12,59,114,146,-147,-111,-187,1,159,-252,405,159,58,113,115,433,185179
-138,-2,64,-30,-53,-68,-202,-149,-50,262,-137,-197,-72,68,-25,4,26,75,95,-128,-68,-170,-46,109,-222,463,105,26,75,87,253,185180
-109,-5,40,-35,-49,-57,-177,-82,-16,-67,-233,-222,8,135,-53,6,-7,39,89,-122,-40,-166,-53,67,-191,498,69,8,43,55,236,185181
82,30,22,-21,9,-8,20,46,7,101,5,-123,49,28,-4,155,-15,-3,-18,35,348,8,-39,-62,-26,1010,-52,-57,-36,-10,-179,185182
1260,255,-186,42,255,189,1333,865,-308,63,800,375,66,657,279,1175,-226,-330,-874,995,2999,1038,-228,-938,872,4646,-900,-615,-683,-553,-2169,185183
1873,373,-279,30,349,263,2029,1248,-488,-140,952,658,-92,826,421,1759,-400,-512,-1482,1462,4659,1583,-401,-1507,1207,7068,-1421,-981,-1182,-974,-2984,185184
1568,321,-212,-24,253,185,1676,822,-401,-2,1032,508,-105,542,228,1544,-406,-446,-1435,1172,4276,1337,-466,-1391,819,6709,-1276,-943,-1160,-952,-2332,185185
459,134,12,-97,16,5,393,44,-125,-203,221,-21,93,-150,-42,606,-201,-117,-662,267,1924,405,-309,-564,-111,3576,-482,-446,-567,-466,-383,185186
-411,-25,156,-118,-146,-133,-568,-534,132,-121,-393,-362,33,-501,-188,-156,24,154,128,-370,-141,-296,-105,193,-680,678,215,27,52,64,842,185187
-345,-13,148,-74,-108,-99,-447,-351,191,-89,-355,-297,1,-432,-103,-120,49,137,215,-283,-193,-217,-49,213,-521,538,224,59,121,136,664,185188
-253,-19,127,-66,-77,-76,-360,-338,127,-337,-204,-160,-27,-258,-127,-73,28,87,171,-227,-96,-149,-48,141,-413,617,158,29,86,103,516,185189
-277,-48,121,-74,-76,-83,-428,-226,140,-181,-292,-329,68,-214,-186,-141,12,73,160,-284,-257,-212,-66,150,-429,380,160,23,92,104,525,185190
-237,-31,134,-36,-59,-62,-340,-255,115,-36,-123,-326,186,-196,-168,-114,37,86,187,-240,-260,-176,-13,158,-368,344,169,53,131,111,480,185191
-119,-10,102,-22,-35,-44,-149,-282,58,-55,-178,-146,185,-173,-57,7,53,77,122,-109,6,-47,6,92,-222,668,98,20,100,78,175,185192
438,114,-5,16,84,55,512,193,-144,-34,242,228,-176,148,96,508,-29,-69,-264,353,1257,443,-71,-313,234,2377,-282,-218,-197,-164,-666,185193
804,187,-106,16,149,83,930,396,-278,-139,461,254,-170,255,128,842,-140,-202,-613,633,2204,745,-182,-659,474,3735,-614,-455,-489,-406,-1275,185194
1072,218,-172,-1,171,93,1178,687,-296,-48,569,160,-51,536,151,1089,-239,-296,-915,833,2950,961,-285,-928,619,4851,-865,-645,-733,-605,-1649,185195
297,61,-8,-101,-2,-36,249,373,-140,-115,42,-212,123,-72,-48,442,-127,-83,-430,180,1367,269,-212,-389,-67,2805,-334,-312,-385,-301,-189,185196
-317,-40,127,-110,-107,-114,-441,-412,86,-194,-451,-371,118,-370,-152,-90,35,126,148,-281,-128,-254,-60,167,-464,761,195,48,67,80,717,185197
-254,-23,120,-74,-84,-90,-368,-574,43,-48,-473,-290,157,-181,-74,-75,23,94,155,-246,-164,-250,-53,157,-371,682,167,34,84,93,490,185198
-275,-39,120,-53,-80,-82,-393,-458,158,72,-391,-387,241,-47,-118,-116,21,88,179,-288,-321,-295,-58,167,-370,450,186,51,104,102,495,185199
-255,-23,117,-31,-57,-55,-365,-235,208,-232,-365,-283,182,-215,-54,-129,23,80,169,-290,-361,-296,-58,158,-352,384,179,49,107,106,365,185200
-247,-22,120,-15,-57,-51,-352,-335,252,-173,-389,-223,262,-256,-48,-156,25,71,172,-292,-418,-311,-30,160,-338,278,177,45,114,109,442,185201
-43,26,75,8,-16,-25,-111,-138,69,125,65,-80,112,-54,11,16,20,29,72,-114,-8,-128,-14,41,-145,777,53,-13,43,58,97,185202
697,162,-93,36,124,73,756,385,-136,197,812,360,28,406,232,689,-115,-179,-467,523,1748,560,-126,-531,448,3168,-497,-356,-378,-300,-1185,185203
1076,223,-189,14,182,105,1180,583,-404,140,729,358,56,592,278,1049,-236,-303,-860,825,2801,915,-265,-891,658,4691,-850,-611,-704,-577,-1795,185204
1060,210,-177,-22,161,97,1111,514,-353,-136,562,291,30,506,130,1045,-284,-319,-961,775,2913,893,-346,-960,536,4979,-884,-665,-791,-642,-1584,185205
151,52,29,-110,-30,-35,51,-61,-57,-39,-144,-100,338,-90,-166,284,-122,-45,-305,27,986,123,-206,-277,-230,2399,-216,-245,-308,-246,81,185206
-440,-41,171,-96,-118,-108,-604,-549,75,162,-540,-292,192,-301,-164,-224,80,177,279,-408,-497,-357,-17,298,-597,289,314,131,168,167,871,185207
-383,-55,143,-65,-113,-94,-529,-414,110,82,-555,-291,92,-185,-98,-198,93,163,288,-337,-531,-313,-9,283,-470,181,289,132,206,196,711,185208
-292,-48,113,-50,-92,-74,-409,-228,1,66,-389,-157,77,-192,-148,-141,57,116,203,-270,-402,-245,-34,191,-381,337,208,69,154,143,526,185209
-251,-40,94,-52,-75,-60,-345,-388,84,-175,118,-171,-18,-277,-101,-137,23,53,167,-251,-328,-219,-44,140,-336,416,147,36,113,88,361,185210
-198,-26,80,-42,-47,-53,-245,-316,135,-81,-178,-199,-91,-63,-47,-82,33,43,149,-187,-207,-167,-23,116,-253,539,119,29,101,77,230,185211
-145,-18,58,-40,-37,-52,-167,-97,100,-136,-153,-169,-146,-108,0,-33,46,46,121,-140,-110,-114,-8,88,-190,657,100,20,91,70,161,185212
-80,-14,30,-44,-35,-42,-91,-44,49,-294,-128,-146,-41,65,-34,9,17,17,68,-97,31,-67,-30,20,-133,850,32,-27,26,25,69,185213
-37,2,25,-35,-29,-41,-25,-32,51,-320,24,-86,-9,54,-36,64,-10,3,19,-48,132,-29,-44,-14,-92,1002,-10,-45,-4,-6,13,185214
90,19,-9,-35,-7,-38,94,-116,-6,-194,207,-5,-148,1,-19,174,-43,-37,-100,33,434,66,-80,-126,-4,1398,-120,-111,-86,-84,-204,185215
-73,-10,34,-47,-40,-60,-131,-258,32,47,10,-108,44,-15,-73,47,5,22,28,-105,86,-67,-32,12,-139,926,17,-21,6,-2,197,185216
-228,-41,74,-55,-59,-73,-310,-238,33,99,-232,-81,78,-82,-89,-105,40,74,168,-244,-326,-208,0,155,-257,343,155,70,116,96,433,185217
-192,-42,63,-39,-60,-67,-273,-72,106,71,-123,-55,38,-151,-54,-108,11,40,131,-240,-293,-199,-25,113,-221,360,105,26,86,64,325,185218
-154,-29,50,-35,-37,-42,-223,-105,249,-13,-228,-144,144,-122,-63,-79,15,23,119,-185,-206,-156,-13,71,-176,476,77,7,68,48,197,185219
-136,-23,71,-45,-17,-13,-216,-212,186,101,-276,-121,179,-109,-94,-60,24,31,123,-167,-181,-131,-8,78,-165,510,79,20,73,51,159,185220
-191,-37,86,-44,-33,-26,-265,-181,87,-7,-204,-159,113,-104,-98,-118,14,35,132,-223,-305,-187,-16,109,-207,314,105,36,99,75,235,185221
-262,-43,70,-41,-51,-61,-316,-257,27,-94,-63,-342,162,-20,-86,-184,21,50,174,-274,-469,-254,3,155,-249,76,143,51,138,111,385,185222
-408,-57,97,-16,-66,-87,-449,-439,157,-105,-92,-269,154,-127,-61,-273,101,132,348,-361,-827,-346,83,328,-316,-453,320,195,287,223,724,185223
-688,-102,139,-27,-117,-118,-755,-678,191,117,-408,-242,94,-138,-169,-515,175,245,602,-557,-1494,-571,156,579,-499,-1428,568,363,479,382,1173,185224
-876,-163,171,-44,-163,-131,-979,-832,202,-134,-853,-292,81,-200,-268,-717,207,270,754,-701,-2024,-742,189,726,-610,-2219,692,449,599,484,1402,185225
-439,-97,72,-5,-62,-46,-507,-379,88,-190,-576,-137,68,34,-175,-387,136,131,483,-349,-1197,-388,136,427,-236,-1155,381,268,398,313,540,185226
-21,-19,-17,18,30,16,-16,114,27,-100,-27,71,-75,-3,-41,-19,40,-6,137,-16,-219,-33,60,77,61,173,52,51,115,78,-66,185227
-16,-14,-16,15,10,-4,-9,-79,52,-306,82,18,-100,-16,-100,-18,17,-12,70,-39,-159,-40,42,44,17,274,24,13,61,40,-21,185228
-41,-13,-9,11,-4,-23,-52,-191,9,84,8,93,-63,109,-61,-29,17,12,64,-54,-183,-57,34,52,-16,252,44,16,64,48,56,185229
-73,-8,7,-6,4,-1,-84,-186,0,-14,-6,-84,-57,-21,-11,-49,16,10,73,-66,-221,-85,30,67,-37,222,56,20,71,42,40,185230
-117,-35,17,-29,-19,-10,-129,-184,34,151,40,-65,104,-229,45,-103,5,3,87,-112,-306,-127,18,68,-81,115,50,18,63,16,113,185231
-216,-51,53,-25,-28,-18,-227,-81,133,19,-184,-51,133,-216,27,-180,53,67,175,-190,-519,-200,67,173,-150,-201,151,83,144,90,435,185232
-711,-140,137,-49,-135,-103,-765,-438,34,18,-374,-311,46,-337,-134,-596,156,210,543,-570,-1618,-603,154,546,-513,-1756,517,317,434,338,1163,185233
-990,-209,167,-68,-195,-144,-1093,-646,110,77,-588,-291,117,-325,-208,-858,208,264,788,-789,-2347,-853,205,776,-686,-2840,736,479,629,487,1575,185234
-1242,-254,223,-41,-212,-153,-1392,-819,198,-118,-1036,-354,131,-380,-214,-1109,303,366,1079,-987,-3094,-1076,312,1043,-820,-3970,996,673,869,693,1867,185235
-522,-118,69,53,-45,-30,-571,-381,79,-17,-457,9,-17,121,-52,-510,210,163,665,-376,-1651,-452,266,556,-161,-2090,506,385,550,438,518,185236
124,-4,-55,68,85,70,142,-80,-59,27,-123,219,-10,355,63,22,14,-56,77,93,-143,61,84,-3,262,-29,-24,12,83,51,-432,185237
83,-19,-57,16,40,39,77,-91,-9,-11,55,130,140,37,-6,-26,-31,-71,-32,20,-127,13,13,-47,135,34,-72,-40,5,-29,-322,185238
81,-1,-22,7,38,46,91,-14,-59,121,302,78,81,-4,-6,-8,-13,-59,-37,26,-66,20,33,-55,114,140,-58,-28,7,-23,-251,185239
26,-13,-23,-4,21,22,67,49,-115,258,197,80,154,109,-13,-21,-15,-46,-24,-9,-101,4,34,-38,77,105,-29,-22,10,-33,-73,185240
28,-13,-33,8,20,21,53,4,-79,-132,9,108,-23,53,15,-20,-42,-59,-53,-6,-65,-8,-2,-67,53,152,-64,-59,-23,-67,-121,185241
-354,-74,61,-13,-42,-24,-430,-332,127,-82,-278,-143,93,-253,-116,-383,7,46,184,-354,-944,-365,40,203,-311,-1023,200,100,157,84,623,185242
-1789,-343,328,-87,-334,-254,-1984,-1115,415,102,-1328,-716,116,-839,-385,-1600,348,503,1328,-1464,-4203,-1557,349,1380,-1338,-5566,1330,851,1055,843,3033,185243
-2437,-471,419,-60,-443,-338,-2637,-1492,568,8,-1503,-941,339,-1006,-514,-2181,568,716,2031,-1907,-5953,-2065,580,2018,-1618,-8183,1903,1286,1625,1323,3847,185244
-2130,-417,337,10,-340,-269,-2250,-1362,425,40,-1026,-688,302,-720,-301,-1966,570,637,1960,-1616,-5580,-1793,645,1880,-1206,-7936,1747,1243,1604,1297,3119,185245
-693,-159,39,130,-37,-35,-595,-303,52,237,-54,75,-169,274,73,-751,318,222,985,-434,-2506,-558,465,823,14,-3903,729,611,859,674,584,185246
386,21,-160,139,160,130,563,562,-158,-88,620,423,-246,664,221,169,14,-134,-19,359,54,317,185,-131,700,-323,-161,2,85,-2,-873,185247
328,33,-121,99,133,115,440,558,-254,-186,257,297,-67,383,146,115,-19,-132,-141,254,108,238,114,-162,497,-166,-189,-43,-13,-91,-641,185248
261,31,-89,88,112,108,360,468,-130,-289,-104,267,57,364,141,80,-21,-101,-125,189,91,191,94,-136,386,-151,-144,-47,-36,-86,-520,185249
198,24,-98,72,73,69,320,269,-168,-80,18,249,-109,409,116,60,-23,-89,-118,149,86,171,76,-126,302,-125,-135,-59,-52,-99,-503,185250
174,38,-87,63,72,59,287,-3,-7,44,-30,250,-16,383,105,32,-32,-83,-101,132,87,149,52,-102,253,-109,-118,-51,-54,-80,-359,185251
-33,-5,-31,41,30,51,14,22,125,29,-42,160,72,25,-48,-168,-24,-51,16,-76,-361,-66,35,24,27,-699,-3,24,17,-19,109,185252
-878,-177,147,-8,-131,-71,-966,-660,370,39,-563,-375,332,-451,-159,-894,158,213,656,-760,-2286,-791,206,684,-621,-3361,643,434,515,395,1527,185253
-1393,-285,242,-7,-223,-138,-1510,-775,402,155,-1004,-485,307,-678,-202,-1354,309,384,1137,-1125,-3603,-1221,361,1152,-910,-5294,1073,750,914,731,2206,185254
-1585,-316,263,29,-242,-155,-1667,-877,357,129,-1204,-427,173,-635,-264,-1532,393,458,1389,-1230,-4207,-1372,467,1367,-947,-6262,1268,902,1126,903,2433,185255
-514,-113,60,135,6,41,-467,-158,152,171,-125,132,73,-45,-25,-663,213,136,721,-363,-2040,-470,342,607,-33,-3424,526,445,611,462,364,185256
327,25,-111,137,152,160,456,358,-63,177,704,396,98,391,141,55,-11,-142,-55,272,-48,208,123,-133,517,-639,-165,-24,14,-49,-765,185257
279,30,-112,106,125,113,399,536,-43,192,398,370,-85,305,188,75,0,-91,-80,263,43,200,102,-110,415,-444,-125,4,-13,-55,-494,185258
266,38,-121,91,103,81,401,345,-92,323,501,461,-96,232,183,107,7,-64,-102,272,150,207,100,-110,391,-264,-121,-18,-36,-58,-451,185259
190,3,-109,60,59,53,303,174,-19,136,459,323,-96,104,25,38,4,-69,-104,208,58,122,94,-101,307,-338,-114,-30,-46,-68,-317,185260
125,3,-70,48,44,62,233,122,1,292,416,213,-192,115,48,6,21,-42,-66,167,-39,78,97,-58,238,-430,-61,0,-15,-50,-262,185261
-120,-40,-1,25,-3,40,-47,-95,96,334,-172,86,-17,-35,4,-200,27,9,76,-55,-566,-150,88,100,-10,-1132,96,85,69,28,185,185262
-1393,-291,237,-53,-253,-156,-1532,-911,395,118,-952,-501,203,-814,-393,-1365,226,329,975,-1149,-3489,-1293,258,1035,-1023,-5166,988,653,745,586,2399,185263
-2037,-413,354,-23,-344,-219,-2244,-1107,584,226,-1182,-748,502,-1047,-399,-1981,416,531,1632,-1645,-5242,-1836,463,1642,-1370,-7768,1544,1062,1290,1042,3283,185264
-1780,-368,288,43,-259,-167,-1888,-705,498,162,-1034,-524,291,-678,-183,-1789,443,491,1602,-1390,-4923,-1577,526,1562,-993,-7557,1442,1036,1305,1050,2580,185265
-488,-143,17,147,7,22,-397,94,100,115,-35,143,4,167,104,-691,216,114,709,-321,-2142,-429,355,603,102,-3892,509,455,621,489,302,185266
501,35,-178,156,179,165,711,620,-139,114,504,507,-18,591,239,185,-36,-194,-159,427,291,417,141,-256,762,-535,-297,-84,-66,-108,-1116,185267
429,32,-166,112,142,123,607,620,-133,338,424,394,-38,420,215,155,-75,-188,-263,345,398,371,67,-283,581,-311,-296,-129,-161,-189,-880,185268
302,24,-150,88,105,81,454,327,-46,411,534,272,-22,329,175,74,-60,-136,-216,253,253,280,42,-205,425,-463,-215,-84,-137,-151,-608,185269
296,25,-140,79,89,81,442,365,-44,343,298,322,185,361,88,119,-25,-92,-175,276,349,315,68,-185,418,-331,-189,-53,-110,-120,-548,185270
225,16,-132,56,64,60,354,289,-154,80,176,245,42,215,111,76,-37,-81,-163,207,256,258,50,-152,334,-399,-145,-46,-111,-94,-484,185271
93,3,-93,49,49,50,176,-106,-183,131,142,149,-30,289,77,-28,-9,-33,-63,88,-27,138,72,-44,208,-773,-35,20,-39,-35,-211,185272
-403,-100,10,9,-48,-22,-422,-402,67,97,-249,-178,111,-248,-76,-490,53,61,268,-339,-1160,-325,121,297,-221,-2314,282,222,204,152,635,185273
-829,-171,101,11,-128,-82,-898,-576,75,131,-309,-295,-48,-441,-139,-878,171,201,660,-662,-2226,-698,225,680,-510,-3815,645,464,514,412,1312,185274
-987,-204,113,13,-155,-94,-1028,-649,148,20,-518,-309,-94,-325,-139,-1008,241,260,860,-729,-2689,-818,305,853,-536,-4516,796,586,689,559,1495,185275
-259,-70,-35,108,8,27,-150,-38,-65,9,-173,96,-275,142,116,-386,121,71,385,-108,-1181,-193,217,348,109,-2531,294,284,347,276,203,185276
285,38,-165,105,99,85,495,481,-200,129,478,292,-324,402,144,116,-12,-95,-110,337,183,268,99,-146,496,-618,-163,-15,-46,-71,-618,185277
248,38,-146,79,80,68,451,362,-95,85,277,299,-209,313,75,117,-18,-80,-142,313,221,230,77,-151,405,-493,-146,-33,-87,-92,-503,185278
267,52,-131,69,86,79,434,228,-205,-52,82,332,-281,231,155,140,-38,-87,-197,312,298,226,41,-178,372,-336,-164,-64,-120,-119,-463,185279
115,8,-109,36,40,28,211,97,-216,-49,151,218,-159,200,113,0,-16,-54,-93,178,-15,74,67,-69,227,-733,-69,-7,-60,-65,-152,185280
195,34,-116,40,63,42,269,218,-176,-24,283,227,-210,351,102,106,20,-39,-89,265,173,171,91,-85,312,-465,-86,5,-51,-56,-226,185281
108,-6,-107,-2,19,7,134,170,-48,46,131,299,-396,251,67,34,-2,-47,-98,176,37,95,56,-74,217,-603,-63,-10,-45,-64,-156,185282
-442,-119,14,-41,-98,-73,-513,-321,98,-114,-486,11,-207,-240,-59,-471,56,86,267,-296,-1168,-384,109,298,-231,-2265,289,207,210,157,753,185283
-658,-154,87,-12,-114,-70,-702,-215,194,-52,-385,-123,24,-266,-30,-672,146,168,543,-455,-1762,-544,201,535,-335,-3158,508,379,423,347,1004,185284
-516,-127,62,25,-70,-38,-500,-100,95,268,-167,-23,208,-162,17,-590,134,116,483,-354,-1564,-433,195,465,-189,-2972,422,344,389,309,657,185285
30,-8,-23,103,62,64,135,297,-32,387,182,159,-78,34,247,-131,54,-15,117,85,-405,35,119,88,255,-1426,61,114,126,91,-292,185286
347,47,-87,96,111,107,471,587,-150,271,508,187,-54,340,179,148,-52,-109,-204,300,393,306,7,-225,431,-291,-207,-94,-131,-128,-643,185287
265,42,-72,62,82,104,391,248,-23,279,396,276,61,96,175,106,-54,-101,-192,234,358,254,7,-208,331,-317,-188,-98,-151,-141,-414,185288
207,34,-65,51,72,90,321,172,-73,55,276,105,84,-131,122,76,-39,-83,-144,188,284,214,51,-158,282,-404,-156,-59,-117,-114,-342,185289
205,29,-62,47,56,84,308,340,-81,145,-12,132,-71,62,92,75,-45,-83,-158,178,292,201,28,-158,246,-375,-154,-55,-133,-116,-288,185290
197,34,-58,47,58,85,271,368,-175,57,90,178,-85,153,72,74,-52,-70,-160,179,284,195,15,-149,227,-353,-139,-52,-127,-108,-212,185291
165,30,-69,43,47,43,241,185,-80,166,225,82,2,151,46,46,-57,-68,-149,156,231,160,-15,-130,183,-410,-114,-57,-120,-85,-170,185292
-4,14,-39,42,6,-2,67,-7,131,223,12,19,-9,-57,62,-79,-19,-15,-24,20,-125,24,15,6,56,-873,11,30,-22,-4,94,185293
-71,-5,-19,48,-6,-8,-12,91,158,187,-71,25,-114,-145,23,-149,12,12,62,-26,-306,-37,47,68,22,-1114,68,77,33,45,100,185294
-10,6,-22,52,26,28,42,175,104,147,37,52,43,-31,5,-102,14,11,28,21,-221,13,65,31,80,-1011,43,65,17,35,102,185295
102,24,-30,56,46,54,171,338,120,-10,196,184,-99,51,78,-5,1,-3,-49,122,2,105,43,-23,158,-697,-23,23,-28,-6,-1,185296
177,27,-67,47,33,39,257,231,74,-237,268,138,47,23,88,62,-35,-56,-131,188,209,156,10,-122,195,-380,-110,-49,-95,-88,-210,185297
153,21,-64,43,53,35,230,249,-24,-103,269,42,3,85,88,48,-45,-69,-129,161,175,125,1,-126,153,-394,-106,-53,-102,-92,-315,185298
154,12,-70,33,40,25,219,248,-136,-167,155,35,-25,91,46,36,-79,-86,-167,143,197,107,-38,-153,140,-366,-149,-74,-138,-117,-287,185299
204,31,-81,33,41,34,285,220,-189,-247,4,20,-161,132,96,100,-63,-67,-169,223,345,170,-17,-151,201,-159,-151,-57,-139,-96,-321,185300
220,42,-81,42,27,27,344,318,-162,170,45,127,30,116,130,154,-37,-45,-148,262,420,208,4,-142,237,-24,-135,-55,-121,-85,-306,185301
185,40,-62,46,27,23,326,302,-92,172,63,200,65,7,60,145,3,-8,-97,244,370,210,31,-88,217,-98,-77,-8,-75,-47,-175,185302
343,58,-91,33,66,53,470,275,-164,-79,157,223,-92,234,10,271,-44,-76,-247,362,731,337,-27,-243,315,419,-217,-112,-194,-133,-550,185303
541,91,-109,37,104,90,642,296,-103,-98,213,265,-207,288,115,435,-94,-146,-434,489,1186,485,-90,-419,427,1108,-392,-239,-346,-257,-845,185304
596,102,-123,38,108,89,679,378,-102,68,507,199,-201,232,128,488,-118,-174,-490,505,1384,524,-114,-481,432,1424,-442,-293,-398,-318,-867,185305
293,67,-45,9,60,53,324,171,-150,40,213,33,-26,68,54,233,-79,-92,-273,243,750,256,-74,-259,162,612,-226,-145,-241,-191,-385,185306
39,21,8,-8,2,16,32,8,-109,152,-3,-44,5,-127,-34,-2,-45,-28,-94,37,151,25,-66,-78,-18,-193,-54,-49,-99,-73,-56,185307
82,30,-6,10,21,38,114,-51,-51,201,73,0,29,115,22,75,-19,-7,-85,118,264,103,-23,-74,81,-58,-56,-36,-74,-51,-98,185308
71,17,-16,-3,10,28,109,-140,20,201,113,-48,45,-40,73,63,-14,-22,-61,110,264,100,-21,-73,81,-69,-74,-28,-66,-52,-86,185309
97,6,-24,2,17,6,110,28,110,-126,9,43,-117,-179,10,64,-28,-25,-72,105,254,99,-30,-78,88,-69,-65,-35,-74,-42,-82,185310
83,19,-33,7,5,-11,109,175,-84,-101,70,-21,-137,93,72,97,24,19,-47,122,240,115,3,-31,113,-91,-17,-1,-28,3,-21,185311
143,38,-55,19,16,0,198,213,-184,-54,51,43,-284,204,70,179,30,8,-86,203,401,186,8,-72,177,149,-58,-29,-50,-25,-176,185312
508,105,-118,37,104,75,616,338,-140,-5,395,293,-309,465,136,495,-40,-83,-340,497,1228,499,-38,-341,455,1296,-324,-180,-260,-193,-726,185313
750,155,-137,34,149,117,875,440,-79,-117,642,207,-477,409,147,700,-122,-167,-560,666,1830,695,-114,-559,598,2186,-533,-324,-443,-341,-1154,185314
903,193,-163,18,161,122,1024,483,-152,-79,829,410,-124,288,238,820,-204,-252,-756,762,2254,800,-219,-727,634,2869,-686,-464,-601,-470,-1401,185315
440,113,-64,-39,56,36,482,315,-99,-55,199,91,-27,233,56,448,-128,-101,-472,390,1335,415,-163,-400,206,1680,-352,-275,-376,-281,-482,185316
0,9,24,-55,-36,-38,-40,27,66,-50,-132,-166,42,170,-45,66,-10,36,-93,57,305,54,-62,-38,-107,267,-7,-49,-82,-32,186,185317
-2,3,41,-33,-21,-15,-61,-76,66,-27,-304,-110,-76,47,-19,35,-11,19,-17,32,199,36,-44,-19,-78,91,-5,-23,-52,-14,121,185318
7,-3,30,-29,-14,-12,-45,162,157,85,-369,-72,-30,26,-32,14,-58,-36,-32,16,168,17,-82,-58,-82,51,-57,-55,-93,-63,-5,185319
34,18,35,4,3,-1,-4,9,103,-102,-82,-7,-5,-159,43,19,-64,-31,-90,26,181,10,-107,-78,-84,50,-58,-85,-101,-55,-47,185320
6,19,24,3,-3,-16,-9,14,78,54,161,0,55,-102,60,-8,-42,-10,-78,3,99,-10,-90,-38,-91,-73,-26,-58,-71,-21,11,185321
222,47,-16,20,39,27,256,309,-64,-141,492,0,-8,126,130,179,-72,-85,-221,187,567,188,-110,-205,104,586,-199,-160,-181,-124,-440,185322
1160,237,-176,77,239,187,1284,927,-290,121,989,409,-124,653,307,1012,-238,-324,-881,949,2678,996,-242,-892,819,3512,-856,-576,-680,-547,-1895,185323
1558,313,-281,36,268,208,1702,999,-363,-65,1003,644,-392,828,344,1408,-348,-431,-1282,1257,3821,1342,-362,-1267,1034,5211,-1186,-818,-1025,-828,-2459,185324
1349,290,-216,-2,216,167,1437,828,-300,-145,722,528,-339,518,222,1298,-299,-342,-1157,1100,3593,1197,-337,-1126,811,5050,-1035,-728,-957,-751,-1944,185325
439,115,-35,-94,27,20,363,86,-77,-282,-19,-7,74,-71,22,524,-146,-86,-570,345,1650,410,-237,-475,50,2506,-408,-347,-503,-366,-343,185326
-243,-8,91,-95,-103,-85,-382,-316,157,-212,-517,-249,44,-364,-122,-77,29,127,35,-190,-17,-170,-87,127,-407,194,152,34,-22,45,583,185327
-209,-6,74,-62,-83,-84,-295,-53,71,-86,-311,-181,-83,-151,-117,-54,57,132,135,-128,-97,-142,-32,168,-290,34,190,75,73,116,501,185328
-138,11,69,-44,-65,-63,-199,-86,-83,289,-103,-211,-132,-163,-94,-16,51,107,105,-75,-39,-95,-37,131,-205,85,141,55,63,98,341,185329
-107,4,66,-45,-42,-36,-191,-98,-21,281,73,-267,-66,-237,-6,-21,37,85,87,-73,-58,-93,-44,106,-177,32,105,37,54,83,328,185330
-60,-3,60,-33,-24,-19,-151,97,50,179,51,-175,-15,-349,-128,17,40,71,86,-27,16,-45,-26,70,-119,105,66,29,43,57,126,185331
117,23,25,-25,8,14,66,274,-30,-59,83,-123,-57,-214,-56,171,3,20,-49,142,431,120,-39,-66,54,674,-62,-55,-46,-19,-260,185332
720,128,-104,-4,116,97,741,563,-237,7,420,262,-156,93,106,687,-145,-185,-536,622,1813,627,-182,-554,506,2603,-533,-375,-426,-333,-1270,185333
998,193,-166,-16,165,126,1039,571,-262,-51,521,436,5,559,105,944,-233,-274,-819,810,2574,864,-265,-817,640,3730,-765,-545,-662,-523,-1596,185334
1016,209,-131,-16,174,135,1029,653,-104,-54,673,344,37,448,142,947,-271,-300,-899,777,2684,847,-318,-883,557,3994,-810,-603,-750,-585,-1481,185335
358,87,15,-72,25,28,273,90,8,29,124,11,115,-36,47,404,-164,-112,-476,219,1321,281,-244,-424,-18,2200,-357,-329,-430,-319,-238,185336
-163,-2,117,-76,-75,-56,-295,-293,133,6,-366,-170,-4,-409,-50,-15,7,98,27,-158,89,-125,-89,71,-343,454,108,-5,-23,40,442,185337
-166,0,110,-48,-65,-49,-262,-219,84,-10,-23,-238,-68,-397,-69,-16,36,113,100,-131,-9,-113,-51,106,-277,278,132,33,45,96,386,185338
-192,-16,86,-48,-69,-59,-285,-208,95,-53,-165,-281,-71,-84,-95,-59,51,111,141,-130,-130,-129,-25,141,-267,83,153,67,81,118,360,185339
-108,5,73,-24,-41,-32,-180,-26,48,69,-93,-114,-9,-67,-62,14,62,97,134,-48,13,-36,-4,109,-165,220,119,68,72,106,237,185340
-156,-14,69,-29,-45,-43,-210,6,60,40,-328,-210,158,-351,-85,-36,43,96,145,-91,-86,-81,-17,120,-183,62,132,80,74,106,274,185341
24,18,21,-14,-13,-29,25,12,9,-6,44,-98,113,-92,2,122,26,53,41,71,298,76,-27,6,7,557,21,6,4,49,-98,185342
521,119,-71,10,79,47,624,401,-205,28,201,171,-104,247,153,572,-72,-92,-376,474,1428,514,-122,-390,385,2149,-345,-245,-295,-199,-983,185343
720,166,-88,1,117,81,771,513,-266,-94,289,272,-247,295,102,728,-152,-166,-606,578,1915,641,-202,-591,450,2902,-529,-394,-468,-360,-1140,185344
612,136,-65,-34,78,62,586,273,-201,-92,433,127,-157,198,35,627,-155,-146,-561,469,1727,526,-210,-544,295,2740,-478,-370,-464,-352,-751,185345
118,51,37,-74,-16,-16,40,-99,-11,-129,-51,-111,21,-64,-86,224,-47,13,-196,72,662,108,-117,-153,-89,1319,-115,-124,-183,-132,22,185346
-205,7,101,-51,-58,-56,-316,-309,117,-175,-285,-248,168,-324,-121,-54,56,132,129,-163,-143,-152,-10,154,-276,191,176,91,78,97,488,185347
-150,7,78,-25,-28,-42,-279,-312,76,-201,-145,-227,28,-199,-102,-40,29,85,115,-127,-123,-140,-31,110,-205,182,123,51,64,89,306,185348
-112,7,90,-11,-29,-18,-245,-80,45,-141,-248,-51,-166,-44,-76,-47,14,59,93,-116,-117,-139,-41,91,-179,181,91,26,53,67,209,185349
-72,12,88,7,-12,-15,-179,-274,1,-248,4,-51,-3,-57,-60,-19,4,42,77,-86,-73,-110,-48,74,-145,232,83,9,39,51,192,185350
-78,2,77,-7,-16,-11,-156,-228,49,-57,-81,-117,107,-6,-88,-32,11,40,87,-80,-79,-107,-32,66,-146,208,73,15,50,48,210,185351
-59,-2,47,-21,-34,-17,-110,-95,3,-43,-75,-35,116,-177,-100,-3,-10,16,43,-51,-20,-70,-56,30,-114,307,34,-11,27,19,68,185352
160,53,5,-1,14,-3,170,180,-65,-25,73,186,126,48,54,214,-13,-12,-80,156,490,151,-60,-103,87,997,-91,-84,-63,-47,-377,185353
365,89,-21,3,62,31,399,360,-25,-31,193,276,253,251,104,411,-41,-54,-244,313,975,321,-84,-263,222,1670,-233,-182,-193,-150,-560,185354
389,91,-30,-19,55,32,401,263,11,66,248,148,70,207,14,444,-61,-58,-306,329,1115,345,-98,-300,215,1873,-272,-219,-249,-193,-678,185355
141,31,8,-67,-8,-7,73,-89,58,44,25,-92,157,-239,-53,203,-50,-18,-157,97,596,119,-100,-140,-29,1195,-134,-135,-142,-115,-200,185356
-13,12,72,-46,-8,3,-119,8,35,101,-163,-188,30,-187,-53,29,-31,2,-30,-58,166,-42,-81,-9,-162,600,-21,-60,-44,-19,-6,185357
-13,8,70,-43,-2,19,-127,50,-19,-84,137,-170,93,-77,-73,32,-24,15,-9,-54,137,-36,-72,10,-146,540,-6,-35,-25,9,48,185358
-96,2,93,-27,-9,9,-206,-117,105,-85,160,-134,176,-193,-76,-27,43,81,122,-108,-73,-88,5,137,-178,226,116,54,84,99,228,185359
-59,18,82,-5,-6,2,-120,-3,138,113,-201,11,74,-139,-92,28,67,87,129,-58,10,-23,26,125,-101,317,115,65,99,101,98,185360
-30,10,60,-13,-9,-2,-75,-261,133,-32,-127,34,94,92,-121,24,13,31,41,-53,56,-24,-36,43,-99,393,41,4,25,40,8,185361
-95,18,80,6,-5,2,-112,-222,53,-136,-89,-70,38,-2,-79,-22,29,59,93,-98,-87,-86,-25,95,-147,187,81,43,61,74,187,185362
153,68,19,27,44,38,194,155,-11,-37,5,-24,63,64,46,200,-8,-8,-65,126,460,135,-46,-70,82,917,-90,-58,-58,-26,-323,185363
363,88,-59,13,64,33,406,241,-125,-106,299,62,-121,31,41,388,-75,-89,-279,295,984,320,-105,-272,224,1673,-281,-202,-222,-175,-602,185364
301,83,-39,-16,45,20,315,272,-18,-47,72,20,-152,60,-60,349,-83,-57,-253,241,910,272,-120,-249,149,1624,-240,-191,-217,-168,-406,185365
16,9,4,-49,-31,-27,-13,-19,115,6,-33,-52,-15,-27,-143,97,-58,-13,-94,-4,292,11,-105,-76,-89,818,-65,-92,-100,-68,76,185366
-115,-7,37,-31,-50,-50,-159,-290,52,4,-158,-119,-22,-99,-88,-35,15,50,66,-87,-74,-103,-30,85,-166,290,71,13,39,53,306,185367
-117,-9,43,-17,-32,-49,-165,-184,39,-132,-183,-102,12,4,-96,-46,18,60,111,-96,-154,-112,-16,121,-160,170,98,46,79,73,233,185368
-94,-1,44,-13,-21,-37,-152,14,80,-70,-182,-58,70,84,-90,-37,12,49,89,-88,-156,-105,-37,102,-139,172,90,31,65,55,192,185369
-86,13,49,-6,-15,-29,-137,67,109,-55,-164,-86,255,84,-30,-14,52,76,121,-62,-129,-76,6,129,-102,178,118,59,96,82,222,185370
-87,9,42,1,-19,-36,-107,-171,182,8,10,-96,165,57,-1,3,50,66,116,-50,-114,-61,6,117,-83,188,110,56,94,81,115,185371
-18,16,25,-1,-3,-11,-29,-106,120,63,-62,-41,69,151,-10,66,29,45,65,18,57,14,-3,51,-17,408,26,21,52,40,5,185372
0,10,45,-9,6,21,-51,148,-35,21,-1,-49,119,197,-90,32,10,28,34,-10,43,-9,-19,22,-51,388,5,-11,27,8,2,185373
22,-1,44,-14,17,31,-67,84,-67,-52,-112,-114,325,59,-73,26,-24,-11,-10,-18,63,-16,-51,-7,-75,408,-30,-43,-9,-25,-53,185374
-13,-19,32,-37,-11,-3,-106,23,-67,28,-145,-83,231,-94,-58,-5,-35,-20,1,-46,30,-43,-71,-10,-91,371,-27,-39,-12,-24,-56,185375
-86,-27,29,-38,-36,-46,-169,-36,-20,58,69,-124,187,-7,-26,-21,19,28,83,-79,-75,-81,-15,69,-102,213,57,34,45,36,2,185376
-103,-5,46,-26,-23,-26,-203,42,-55,143,49,-86,103,-56,-7,-22,58,69,148,-81,-135,-73,26,133,-97,103,115,97,93,90,152,185377
-94,-6,56,-32,-23,-6,-212,-123,-70,27,63,5,152,-40,-66,-32,39,60,102,-88,-138,-85,-3,109,-109,69,93,65,83,71,218,185378
-100,-28,59,-27,-28,5,-186,-223,-76,4,-47,11,66,15,-85,-47,57,64,95,-104,-192,-102,4,114,-121,-4,107,50,93,85,223,185379
-25,-11,36,-12,-1,4,-35,-39,18,105,29,-40,27,94,-56,5,25,15,32,-58,-44,-42,-22,40,-73,216,22,-5,29,26,51,185380
-49,8,48,10,10,9,-39,-54,104,-79,79,-92,-48,-203,-87,2,56,47,79,-60,-72,-46,21,89,-84,155,69,42,64,53,155,185381
-93,-1,38,-1,-4,-1,-87,-156,55,-43,-253,-43,-27,76,-70,-13,77,79,143,-63,-149,-62,47,138,-80,40,121,90,109,99,259,185382
-111,-19,25,-15,-20,-17,-123,-247,68,-5,-111,-53,-23,-67,-55,-47,46,42,121,-92,-190,-86,18,111,-92,-7,91,68,87,70,303,185383
-127,-31,49,-7,-16,-9,-174,-202,45,-52,-41,-138,126,-169,-14,-123,-3,10,102,-156,-313,-157,-25,97,-160,-184,77,43,73,44,267,185384
-101,-11,57,17,0,-5,-139,-122,53,-38,-150,-141,107,-192,-92,-122,-6,13,68,-156,-325,-162,-35,85,-149,-204,68,22,61,37,97,185385
-101,-17,37,27,-19,-25,-93,-168,166,-6,-61,-43,-132,-110,-49,-86,18,28,67,-109,-272,-125,-19,92,-117,-159,67,18,64,47,210,185386
-70,-2,40,27,-5,-14,-35,-84,65,-47,71,46,-93,59,61,-31,42,37,99,-42,-159,-47,32,96,-59,-34,67,49,77,53,245,185387
-39,-19,11,-8,-30,-25,-16,-127,-109,44,12,72,-130,-120,-12,-14,30,14,65,-8,-79,-10,8,53,-33,85,21,27,36,20,66,185388
18,-8,-16,-15,-8,-12,37,36,-32,-272,11,25,-18,-64,-13,51,15,1,19,55,77,58,4,14,21,300,-9,2,3,8,-69,185389
-9,6,6,-21,-4,2,-13,147,29,-116,-234,-21,137,137,7,33,34,7,39,26,42,43,12,41,3,244,16,16,17,23,32,185390
-21,-3,23,-17,0,7,-71,-73,182,-20,-409,118,66,87,-23,-5,20,20,77,-10,-47,0,7,77,-35,121,53,41,43,42,122,185391
-67,-27,29,-33,-23,-27,-124,-120,198,69,-293,111,82,77,-50,-67,10,12,83,-66,-159,-54,-1,82,-82,-32,65,42,46,41,205,185392
-7,0,12,2,-13,-27,-27,-31,66,-7,-167,-43,62,44,29,-4,20,6,49,-7,-35,7,4,48,-26,123,32,22,36,31,128,185393
-18,-2,14,20,-11,-16,-23,-55,-33,-17,-86,8,72,-97,55,-23,11,4,28,-27,-58,-25,-5,32,-53,96,16,2,27,1,79,185394
-51,-15,17,15,-7,-4,-46,-175,-79,8,-1,-186,-230,-98,-49,-48,-14,-22,-1,-71,-117,-65,-34,9,-89,20,-18,-12,10,-32,32,185395
-39,1,28,22,15,20,-10,-85,-34,-106,150,-77,-90,-138,-56,-47,-5,-20,17,-59,-115,-51,-32,33,-69,25,-4,0,11,-13,105,185396
-3,27,11,42,23,27,80,-92,42,-140,-60,-24,-24,-156,18,14,36,28,55,11,-15,0,12,65,-1,156,27,37,40,29,129,185397
6,30,-8,41,12,2,98,-324,32,-66,-45,17,60,65,34,34,37,32,37,22,0,-15,17,68,2,204,40,42,38,36,60,185398
-14,18,-11,17,1,-11,34,-293,52,-177,105,24,-68,-65,-3,8,22,22,24,-11,-37,-51,8,54,-24,172,33,34,31,25,85,185399
-107,-28,14,-19,-20,-18,-125,-119,-12,-415,26,-194,47,-60,-42,-80,33,40,116,-104,-275,-139,33,123,-93,-137,95,82,79,63,201,185400
-108,-32,33,-20,-13,-1,-141,-166,-73,-214,-21,-114,76,176,-41,-89,29,26,117,-114,-298,-149,33,120,-90,-180,96,71,85,62,231,185401
1,-16,5,-10,8,16,-32,-196,67,1,-197,23,6,62,-48,-5,6,-13,43,-20,-78,-63,10,36,3,112,22,21,27,13,3,185402
113,17,-2,11,37,37,85,-19,107,-67,155,18,-5,75,-32,87,0,-24,-34,65,169,40,4,-38,74,438,-57,-33,-32,-29,-177,185403
159,39,-7,22,46,34,164,207,116,-17,33,-19,66,82,-111,158,13,-13,-71,139,340,127,7,-52,125,653,-78,-49,-46,-34,-177,185404
108,31,-13,16,25,10,140,-2,62,-8,-203,-9,102,100,33,123,10,-11,-69,117,289,114,-2,-38,84,586,-65,-41,-45,-38,-175,185405
43,18,0,8,3,-6,60,215,20,96,31,4,-219,132,35,57,6,-4,-24,59,152,61,-5,3,19,393,-20,-9,-19,-17,-29,185406
-34,-10,5,-23,-24,-15,-24,-8,2,-6,47,-18,-97,118,-51,-7,-8,-3,16,-2,-10,-2,-20,23,-40,195,1,-6,-7,-4,43,185407
-77,-19,15,-32,-37,-15,-76,-64,123,94,44,-19,211,75,-117,-46,7,2,38,-39,-93,-21,-13,46,-59,66,28,18,14,20,41,185408
-115,-25,9,-28,-31,-14,-110,-19,112,-162,204,58,107,100,-52,-73,37,32,80,-65,-176,-33,23,83,-75,-92,73,63,59,47,118,185409
-93,-11,21,-9,-19,0,-85,-148,66,-132,-45,55,-37,0,24,-51,38,33,80,-37,-149,-12,31,84,-52,-69,80,62,69,51,91,185410
-75,-23,8,-9,-13,1,-88,-164,-51,-118,-271,23,-193,-130,114,-76,0,-7,29,-59,-153,-38,-14,41,-68,-76,28,19,21,8,99,185411
-50,-13,28,15,16,15,-80,-147,2,-49,-5,16,-104,95,84,-95,-11,-21,17,-79,-167,-59,-8,31,-79,-120,24,5,3,-4,87,185412
-173,-37,54,11,-12,-2,-217,-317,179,-120,-157,-56,16,87,-3,-193,12,5,95,-174,-439,-161,4,122,-171,-490,107,55,61,60,283,185413
-240,-55,52,-1,-40,-29,-283,-318,140,-32,36,-189,-44,-159,38,-253,22,30,178,-210,-586,-221,18,185,-197,-707,152,93,125,98,346,185414
-221,-43,49,10,-39,-33,-216,-279,6,-50,-148,-94,-53,-81,25,-198,71,65,232,-151,-542,-173,70,223,-141,-679,193,139,180,141,355,185415
-168,-30,12,-2,-39,-47,-105,-289,-60,-120,-125,-62,-119,232,-35,-103,110,85,214,-61,-413,-106,110,224,-44,-497,193,164,192,152,262,185416
-130,-17,-1,4,-27,-39,-24,-300,-112,-90,162,172,41,279,-25,-40,128,99,195,6,-304,-62,134,204,18,-336,182,179,190,150,230,185417
-87,-10,-13,-5,-21,-35,26,-62,-25,24,-226,134,-56,223,6,-1,124,90,171,33,-203,-35,141,174,59,-191,161,171,163,131,159,185418
2,-8,-26,1,-1,-2,68,-49,-80,-27,-209,-24,-15,75,18,14,29,-3,21,32,-60,-39,53,30,53,54,11,44,31,10,-19,185419
28,-14,3,5,24,41,-14,-119,22,-256,-146,-123,147,-102,-1,-51,-45,-63,-54,-37,-114,-105,-26,-28,-19,24,-41,-42,-42,-46,-83,185420
94,-4,5,-15,45,57,7,68,-72,-139,24,3,-22,-50,24,-16,-86,-99,-89,2,4,-69,-51,-85,3,204,-88,-83,-78,-73,-234,185421
-47,-24,33,-24,-4,17,-138,140,-12,59,-35,-91,-93,-147,-6,-103,-27,-24,25,-85,-248,-139,0,43,-93,-141,36,15,14,5,105,185422
-457,-95,91,-30,-90,-63,-573,-178,95,79,-85,-185,77,-313,-142,-442,82,112,349,-388,-1156,-464,89,377,-384,-1428,339,233,278,217,783,185423
-606,-132,124,-12,-108,-73,-711,-338,211,186,-189,-177,283,-218,-107,-590,111,136,489,-501,-1566,-581,136,490,-457,-2054,441,310,376,300,947,185424
-571,-131,111,2,-92,-62,-638,-323,184,133,-208,-66,281,-281,23,-561,122,132,495,-458,-1536,-529,147,485,-369,-2119,431,317,389,309,844,185425
-198,-63,24,32,-14,-11,-220,35,53,105,8,29,142,-249,52,-244,53,25,251,-142,-742,-190,99,202,-63,-1088,170,145,208,147,209,185426
81,-12,-35,29,34,35,106,239,-51,173,4,156,166,-26,43,10,-21,-77,-13,72,-33,61,29,-46,124,-123,-69,-33,-2,-26,-293,185427
114,3,-13,37,45,56,135,62,-77,-20,159,82,264,-71,54,30,-30,-77,-76,90,81,89,9,-78,112,46,-85,-61,-46,-60,-240,185428
92,-11,-18,22,32,39,107,-150,-151,86,112,-21,389,-40,26,12,-40,-83,-96,73,88,76,-2,-86,77,56,-89,-75,-64,-69,-176,185429
62,-12,-17,18,27,32,75,-33,-48,150,182,19,-107,-61,-2,4,-29,-53,-60,73,49,69,27,-53,73,12,-73,-45,-36,-51,-160,185430
54,4,-24,24,17,11,87,162,-51,206,162,123,-182,-122,-29,16,-10,-33,-49,73,59,80,39,-26,85,30,-52,-29,-22,-31,-79,185431
-101,-26,-4,6,-23,-29,-92,55,20,-83,-75,-51,-85,-272,55,-122,10,13,34,-69,-263,-68,54,71,-60,-421,52,21,39,17,118,185432
-651,-143,120,-42,-133,-102,-730,-346,124,-140,-384,-378,78,-497,-103,-596,105,160,451,-510,-1515,-543,153,484,-481,-2159,446,288,364,269,1100,185433
-896,-181,166,-22,-164,-122,-994,-652,212,-3,-544,-380,126,-522,-169,-801,224,281,757,-672,-2200,-728,267,762,-574,-3164,707,485,609,492,1514,185434
-808,-168,129,19,-130,-97,-858,-559,225,18,-574,-181,58,-369,-100,-742,217,251,741,-595,-2132,-659,271,728,-451,-3142,670,473,615,501,1319,185435
-266,-46,46,84,-2,14,-228,21,110,141,-384,68,-58,70,55,-326,97,74,361,-181,-1040,-238,181,318,-21,-1719,274,221,325,253,253,185436
138,9,-51,75,62,54,221,278,-3,73,188,126,-96,230,91,4,-35,-84,-42,101,-77,64,57,-72,221,-356,-89,-42,-5,-37,-379,185437
118,-5,-65,53,42,24,200,304,-44,69,197,133,-33,-89,69,-24,-64,-116,-90,57,-39,17,10,-106,138,-249,-118,-93,-61,-92,-293,185438
137,16,-58,53,42,17,224,312,-57,46,179,195,6,43,95,25,-63,-86,-96,87,73,53,-5,-106,154,-59,-100,-95,-68,-75,-275,185439
100,17,-38,43,31,19,148,37,-13,273,215,212,22,162,67,44,-29,-32,-50,87,49,46,38,-46,130,-85,-35,-39,-19,-22,-42,185440
42,14,-31,28,20,10,79,290,93,167,116,97,-20,83,37,1,-8,-11,2,49,-61,14,57,8,101,-215,10,4,28,12,-43,185441
-52,-21,-18,12,-1,-12,-49,97,-38,67,-96,88,12,-108,12,-100,-24,-13,27,-51,-256,-76,36,49,2,-471,41,-1,37,3,47,185442
-525,-126,78,-29,-101,-86,-590,-349,100,-57,-351,-93,97,-247,-105,-520,61,111,362,-435,-1322,-485,107,399,-365,-1980,376,207,296,223,805,185443
-700,-151,121,-17,-107,-67,-759,-458,166,7,-603,-227,196,-166,-151,-661,136,174,552,-540,-1768,-596,188,575,-421,-2671,539,334,452,362,1028,185444
-528,-120,91,15,-64,-14,-587,-239,62,-133,-230,-186,115,-68,-23,-553,131,125,485,-389,-1514,-454,205,475,-260,-2396,433,288,415,324,822,185445
-69,-25,-6,46,30,44,-46,34,-96,-43,31,85,-28,28,35,-146,74,27,188,1,-509,-45,174,150,119,-1070,117,107,186,135,34,185446
151,3,-72,46,48,45,213,147,-48,85,104,148,-163,59,106,78,3,-42,-51,181,96,145,104,-69,257,-218,-80,-21,1,-18,-273,185447
100,1,-61,33,35,24,157,105,6,149,29,115,-151,134,186,59,14,-14,-39,140,72,106,94,-41,200,-237,-48,-16,3,-19,-171,185448
83,15,-34,40,42,37,137,125,3,-120,109,143,-211,18,143,41,12,-5,-24,119,48,83,90,-25,161,-276,-26,-2,19,-10,-144,185449
68,-6,-42,29,23,17,125,-86,-44,-25,169,76,-244,-64,30,-1,-34,-40,-49,85,4,51,51,-58,102,-303,-52,-34,-12,-42,-186,185450
80,4,-42,20,28,26,145,28,-45,103,388,34,13,-72,-11,28,-32,-38,-79,111,64,77,51,-72,113,-192,-78,-51,-30,-55,-148,185451
42,-2,-25,7,16,25,91,96,-121,-18,223,45,-12,-61,-45,13,2,-8,-31,82,-5,55,61,-27,85,-278,-20,-15,-3,-28,-31,185452
-89,-20,-30,-2,-15,-14,-80,-58,1,-27,133,1,-112,-137,-37,-102,1,17,32,-27,-265,-65,66,46,-21,-614,43,21,38,15,107,185453
-212,-41,-5,5,-36,-35,-211,-160,17,-13,-172,1,-178,-10,-97,-197,39,58,147,-107,-542,-149,97,156,-80,-1009,154,102,127,101,346,185454
-171,-31,-7,21,-22,-24,-148,44,-37,-119,-222,17,-135,160,-38,-158,68,84,179,-64,-506,-109,127,180,-24,-983,175,128,149,131,306,185455
-21,-12,-18,39,12,15,16,81,-2,-46,-85,54,3,-90,-10,-60,17,15,64,21,-229,-7,83,49,69,-615,47,37,62,48,42,185456
78,-8,-47,28,23,14,106,233,-12,-34,61,7,66,-247,-63,-12,-61,-75,-96,47,6,48,4,-94,95,-272,-90,-80,-67,-65,-164,185457
54,-3,-51,24,10,-3,101,241,10,34,-81,-42,-26,4,88,1,-35,-61,-80,50,31,61,24,-73,87,-235,-72,-68,-55,-53,-186,185458
33,9,-44,26,10,-2,97,184,-12,73,84,11,-65,101,147,29,12,-3,-14,75,71,110,78,-21,116,-211,-12,-7,-4,-11,-93,185459
-18,-7,-44,6,-14,-11,45,92,168,-134,32,41,-115,166,103,22,39,38,11,66,46,113,87,13,107,-252,16,15,31,29,-63,185460
-15,-2,-26,10,-9,-13,29,-60,81,-53,-128,81,-6,133,86,29,52,47,39,88,57,132,98,47,129,-250,35,46,52,55,-8,185461
101,20,-35,0,22,16,114,63,-91,-95,226,113,5,37,54,75,-20,-32,-61,127,244,164,33,-60,164,28,-66,-47,-46,-25,-178,185462
79,12,-25,8,12,17,58,-66,-81,47,-77,81,-41,107,71,28,-31,-35,-46,72,153,105,17,-66,103,-46,-51,-53,-57,-35,-66,185463
-15,8,-6,17,-6,-3,-13,-252,-66,149,-49,141,-149,87,32,-23,33,25,52,21,-55,25,66,42,47,-324,58,19,41,53,68,185464
-26,-5,-21,6,-12,-9,-16,-216,-44,51,-43,110,-1,230,-79,-22,33,34,48,20,-86,7,66,41,38,-354,51,36,51,54,46,185465
34,2,-22,7,12,19,40,-161,-189,-37,94,76,221,228,-99,13,12,3,-9,52,5,32,47,-17,69,-197,-14,-4,-2,-7,-142,185466
61,-2,-17,-3,23,33,31,99,-113,-133,243,7,237,11,-36,-4,-18,-32,-56,48,21,2,3,-48,47,-173,-48,-43,-45,-39,-179,185467
50,10,-6,15,31,36,28,221,19,27,10,21,-152,94,43,-14,-29,-33,-49,35,-23,-30,10,-44,27,-206,-40,-43,-45,-35,-96,185468
51,13,-18,14,17,11,47,227,5,485,-1,26,-240,31,30,-7,-42,-34,-64,27,-25,-39,2,-64,20,-178,-53,-59,-60,-43,-69,185469
57,15,-29,27,16,7,79,62,-47,375,156,85,7,-82,28,-1,-57,-44,-89,38,14,-39,-25,-85,24,-103,-81,-72,-78,-60,-123,185470
73,8,-33,17,12,15,91,-56,-21,42,254,-21,125,7,-41,6,-66,-67,-127,46,49,-32,-46,-120,5,-27,-110,-104,-113,-91,-184,185471
38,16,0,25,17,22,49,-125,-111,-24,95,-60,46,-106,-69,6,-24,-28,-64,26,-27,-44,-17,-65,-8,-123,-53,-57,-61,-37,-24,185472
6,3,-14,2,2,2,32,42,-69,60,-45,34,121,-1,-88,11,15,12,-13,34,-49,-36,33,-11,10,-175,1,-7,-13,-1,-40,185473
-17,-8,-25,-19,-16,-10,17,103,5,49,-24,57,25,150,6,9,10,-3,-6,30,-43,-22,29,-14,14,-184,-5,2,-14,-4,-48,185474
-17,-1,-15,-4,-15,-15,-16,159,3,69,59,75,214,-31,9,-31,-1,-14,18,-4,-90,-33,17,-1,-4,-261,5,-1,-14,1,21,185475
51,8,-25,18,7,5,35,118,15,151,92,98,168,-116,-21,4,-19,-36,-45,34,40,31,4,-62,22,-114,-48,-48,-55,-38,-219,185476
72,-7,-26,3,7,15,20,158,45,105,-165,-4,34,5,-30,-6,-59,-67,-109,16,100,59,-35,-115,20,-58,-101,-105,-104,-80,-217,185477
104,-14,-17,-2,28,45,26,266,-7,28,-128,11,55,-104,9,5,-71,-81,-133,31,176,102,-44,-137,39,15,-127,-129,-123,-94,-214,185478
84,-8,-8,-2,22,38,25,195,-31,-89,-21,54,18,-112,5,15,-43,-51,-80,44,169,124,-13,-83,52,-24,-76,-74,-75,-54,-124,185479
70,6,-29,-3,13,3,72,-22,-123,307,-111,130,-100,107,-1,35,-31,-41,-72,72,211,156,-14,-75,77,10,-76,-61,-66,-43,-133,185480
148,25,-56,21,18,3,170,67,-133,198,131,164,-72,217,65,117,-16,-34,-108,132,384,231,-7,-111,139,262,-107,-82,-97,-62,-332,185481
74,22,-47,16,0,-17,90,7,-52,36,211,9,-94,121,49,62,-11,-20,-78,59,240,146,-2,-74,55,79,-72,-62,-67,-47,-183,185482
-17,-3,-38,-2,-12,-36,1,-117,26,-37,-66,23,50,-46,32,-1,6,-1,-8,2,46,55,16,-9,10,-156,2,0,-13,-6,-7,185483
-41,-10,-38,-14,-20,-30,-11,-138,-36,113,60,-14,-27,-217,67,-24,18,10,44,-17,-23,23,18,12,12,-213,26,18,6,18,46,185484
15,-11,-42,-8,-8,-13,47,136,-7,-9,85,6,-188,-207,20,12,-17,-20,-20,14,73,35,-25,-28,49,-56,-24,-37,-30,-5,-34,185485
43,-8,-33,-15,-3,-3,55,6,-18,-111,168,38,6,-149,64,39,-29,-36,-67,37,129,25,-43,-56,57,48,-49,-64,-54,-31,-156,185486
28,-13,-14,-14,3,1,-6,21,83,28,33,42,-18,35,25,41,14,11,-28,36,80,-1,13,-8,55,-5,3,-19,-9,2,-53,185487
9,-16,-22,-20,-2,-4,-70,228,29,-67,-68,-22,-211,51,11,23,9,4,-14,6,22,-29,23,-8,34,-46,-19,-18,-14,-3,13,185488
30,-8,-21,-30,-9,-11,-86,115,38,181,-115,-47,-98,-40,10,9,-25,-39,-29,-5,13,-52,-12,-41,25,-5,-51,-41,-51,-29,-59,185489
21,-10,-8,-31,-7,-7,-95,168,55,-77,-103,4,-5,104,-62,12,0,-25,-26,-16,-17,-75,-24,-22,20,-43,-29,-31,-50,-26,-42,185490
23,3,7,-23,-5,-10,-26,215,12,-298,32,70,85,280,-61,57,60,47,19,30,16,-30,37,20,62,-27,39,22,10,29,-4,185491
37,11,-32,-16,-15,-27,97,48,60,-71,127,39,72,144,11,86,39,29,-9,71,118,18,16,-9,91,105,-3,-3,-14,10,-18,185492
125,34,-51,3,9,-9,245,111,-52,-42,155,6,-107,203,-53,159,6,-2,-67,148,330,113,-5,-76,161,403,-66,-40,-59,-33,-266,185493
242,58,-78,13,31,22,359,307,-36,29,87,114,-66,204,-74,250,-25,-53,-169,233,595,211,-32,-176,227,774,-164,-96,-139,-97,-397,185494
226,53,-68,-6,28,21,293,217,27,33,15,32,66,114,3,217,-44,-73,-223,197,588,185,-65,-203,167,777,-185,-128,-176,-128,-325,185495
122,21,-53,-24,-3,-4,148,67,-117,-31,-10,1,-27,-128,67,122,-65,-69,-203,84,413,104,-79,-182,64,537,-165,-143,-178,-131,-130,185496
46,-4,-12,-30,-11,7,35,-207,25,-82,-201,-72,-81,6,-6,33,-72,-64,-148,5,216,42,-77,-138,-19,262,-122,-122,-141,-107,-61,185497
71,16,23,3,19,43,45,-155,24,-4,139,38,-99,-85,-58,51,-63,-60,-135,27,228,80,-69,-116,1,251,-111,-108,-124,-86,-97,185498
22,16,14,-15,-5,-3,25,-89,-31,67,98,32,93,-6,-75,47,-17,-8,-52,30,157,83,-23,-30,7,94,-36,-41,-47,-22,3,185499
14,10,-25,-11,-21,-39,73,142,-129,-118,50,-21,-84,108,-15,65,19,12,-16,61,189,113,1,-21,41,116,-9,0,-20,-1,-6,185500
11,-4,-39,-6,-29,-35,55,-89,-63,-76,104,-84,-195,-86,30,44,5,-4,-39,49,192,95,-19,-41,23,103,-39,-26,-44,-23,-29,185501
58,7,-16,4,12,12,56,51,25,-81,102,30,-16,40,15,42,-20,-32,-92,56,223,94,-40,-76,33,158,-75,-69,-71,-41,-138,185502
369,75,-47,14,86,96,389,399,-70,-74,251,71,-13,254,101,295,-92,-124,-335,278,868,322,-110,-316,249,1109,-295,-234,-263,-197,-571,185503
449,78,-82,-19,76,60,495,277,-90,-165,145,74,-115,244,110,406,-107,-136,-410,356,1137,390,-126,-385,297,1547,-367,-273,-328,-255,-671,185504
363,68,-84,-19,37,11,427,110,-146,-81,185,68,-110,356,39,380,-68,-91,-315,310,1043,343,-89,-299,251,1480,-283,-198,-271,-202,-588,185505
65,24,-15,-40,-15,-26,94,-8,17,13,18,-31,-51,164,-19,101,-45,-37,-125,29,377,46,-82,-93,-3,613,-80,-82,-133,-86,-45,185506
-94,8,43,-27,-19,-21,-111,-66,37,9,-104,-98,-158,-31,-96,-73,-2,32,32,-131,-105,-120,-42,59,-123,-46,66,20,2,17,230,185507
-80,1,33,-12,-16,-25,-65,46,95,45,-150,-51,4,16,-67,-59,13,43,45,-103,-130,-99,-13,66,-91,-91,61,28,24,35,177,185508
-7,20,31,18,-9,-8,50,15,216,47,-29,-43,214,129,-14,25,42,50,33,-12,26,-15,11,53,0,112,34,32,24,32,139,185509
-2,17,11,3,-20,-23,60,134,-15,-19,-73,33,184,-95,56,43,36,39,7,-14,74,-8,-11,27,6,160,13,8,-3,16,139,185510
-16,8,-3,-12,-19,-25,13,100,-62,-62,-13,-10,12,-109,87,12,0,-2,-9,-46,44,-25,-37,-5,-30,125,-12,-8,-28,-10,51,185511
54,19,-14,0,0,-5,52,74,27,1,162,69,66,64,6,70,5,-22,-23,20,164,37,-18,-29,25,299,-49,-12,-33,-17,-50,185512
419,89,-78,32,78,53,468,133,-103,174,402,281,-78,185,115,392,-48,-100,-281,316,974,350,-78,-285,302,1401,-284,-168,-226,-173,-580,185513
605,122,-117,7,99,77,673,267,-156,-2,410,204,-42,307,120,546,-131,-183,-520,439,1481,494,-154,-495,391,2140,-471,-321,-410,-325,-964,185514
543,123,-73,-13,95,82,564,343,-163,-20,396,54,92,262,60,502,-119,-152,-496,385,1397,444,-140,-460,293,2079,-423,-294,-395,-327,-766,185515
187,41,-9,-58,13,17,152,103,-52,-221,133,-71,30,174,-57,230,-41,-34,-232,119,671,167,-84,-189,0,1129,-163,-127,-201,-164,-142,185516
-71,-1,34,-62,-44,-30,-103,-201,20,-152,34,-44,125,-24,-39,41,53,83,44,-41,83,-18,1,76,-145,291,84,48,40,44,221,185517
-75,1,32,-47,-37,-17,-110,-231,50,-160,-126,-65,-109,174,-125,23,45,79,60,-37,32,-15,1,75,-114,181,83,66,51,62,227,185518
-31,9,48,-14,-6,22,-78,-15,19,78,-82,-88,-53,28,-80,12,9,19,10,-32,32,-27,-43,16,-103,171,18,29,12,14,91,185519
-70,-8,46,-21,-26,9,-108,-115,-66,338,178,-88,12,-335,-71,-56,-29,-19,-21,-96,-85,-96,-70,3,-150,13,-7,-9,-18,-28,31,185520
-156,-27,58,-25,-39,-13,-193,-187,-27,59,76,-85,37,-204,-28,-103,23,39,73,-160,-275,-154,-13,84,-195,-273,81,55,54,38,240,185521
22,6,19,6,-11,12,15,-32,41,44,89,-77,40,12,30,50,23,11,4,-4,74,12,1,-4,-22,167,-7,26,4,10,-10,185522
473,108,-73,43,82,73,539,402,-67,7,449,202,31,161,97,452,-60,-100,-352,363,1122,405,-86,-352,328,1624,-336,-191,-257,-218,-764,185523
590,126,-114,17,80,60,654,528,-211,-48,509,286,-129,189,93,564,-114,-145,-504,450,1479,508,-139,-487,374,2190,-457,-276,-374,-323,-948,185524
515,104,-98,-19,64,43,542,312,-154,35,323,180,-164,40,86,509,-141,-152,-512,368,1396,426,-164,-479,265,2144,-447,-302,-409,-343,-782,185525
74,19,12,-56,-19,-13,36,-84,-25,-100,-268,-186,-103,-28,-4,125,-93,-48,-224,-9,456,39,-137,-180,-98,904,-147,-133,-195,-173,28,185526
-261,-26,80,-45,-81,-72,-316,-284,3,-1,-350,-221,57,-91,-96,-165,-3,62,94,-265,-359,-226,-56,130,-299,-223,141,74,52,48,428,185527
-259,-32,62,-33,-77,-78,-268,-301,50,-131,-201,-191,239,-121,-99,-149,51,81,167,-233,-421,-200,-12,186,-232,-355,181,133,126,105,390,185528
-195,-26,59,-20,-48,-56,-176,-352,14,-195,-191,-199,100,-145,-11,-94,65,83,149,-171,-330,-140,5,162,-146,-259,153,123,125,98,334,185529
-137,-15,48,-13,-41,-38,-124,-215,68,118,-19,-83,-73,-74,23,-71,45,56,98,-143,-244,-115,3,114,-107,-150,106,86,84,55,282,185530
-144,-17,36,-2,-36,-41,-164,-65,-22,13,-223,-50,-45,-54,15,-108,14,26,88,-163,-276,-146,-13,99,-123,-217,88,70,75,38,229,185531
22,14,24,19,22,-4,-30,40,33,48,-60,-109,-6,-51,19,9,-9,-11,1,-38,18,-24,-22,-1,4,182,-15,9,4,-16,-125,185532
647,114,-81,47,148,111,652,467,-205,38,337,158,74,367,162,536,-141,-206,-458,447,1393,501,-142,-484,450,2085,-480,-299,-365,-319,-1157,185533
970,178,-137,40,194,161,1015,536,-338,47,656,252,32,299,249,844,-224,-283,-798,696,2268,784,-237,-778,621,3363,-740,-509,-617,-525,-1563,185534
980,191,-144,14,181,146,1021,436,-234,77,615,291,-50,353,169,903,-237,-274,-861,716,2468,813,-265,-812,576,3724,-776,-543,-668,-566,-1474,185535
266,68,-20,-63,18,4,224,0,-38,62,75,-115,-27,42,7,325,-116,-76,-390,144,1027,221,-176,-316,-30,1836,-290,-230,-327,-288,-217,185536
-319,-34,92,-70,-98,-102,-410,-395,74,-34,-232,-128,41,-210,-63,-182,16,104,105,-298,-364,-279,-62,176,-434,-102,182,81,67,44,582,185537
-257,-22,84,-37,-73,-77,-339,-402,31,26,-12,-134,170,-236,-88,-144,50,118,163,-223,-377,-218,-12,193,-322,-174,199,122,118,99,436,185538
-243,-36,79,-36,-61,-70,-324,-235,225,190,-238,-146,254,-347,-93,-126,64,110,191,-203,-420,-208,10,211,-290,-272,201,146,151,125,403,185539
-188,-29,67,-26,-44,-56,-261,-55,116,-25,-219,25,220,-239,-76,-112,45,68,161,-181,-364,-190,-4,167,-241,-219,149,116,115,88,302,185540
-142,-31,36,-39,-46,-47,-200,-31,76,-48,-241,-42,179,-136,-33,-102,0,26,75,-168,-291,-171,-42,85,-213,-123,78,49,46,34,240,185541
-37,-12,-4,-16,-29,-48,-34,106,119,68,-238,26,157,-20,3,30,12,26,32,-28,-16,-19,-20,36,-67,228,29,26,30,27,42,185542
880,181,-152,56,171,106,1013,586,-126,58,763,376,-66,402,157,848,-134,-216,-594,741,2066,789,-141,-623,680,3059,-617,-360,-453,-366,-1524,185543
1335,271,-209,48,249,193,1455,915,-390,-38,1077,553,17,527,304,1231,-302,-372,-1069,1042,3245,1132,-310,-1066,888,4794,-1024,-671,-856,-710,-2132,185544
1054,238,-139,-4,184,138,1109,672,-274,-7,713,336,20,354,235,1013,-284,-303,-937,788,2810,893,-313,-900,572,4333,-844,-587,-782,-645,-1582,185545
233,94,5,-55,3,-10,229,43,77,-58,-76,-81,59,-87,39,365,-96,-36,-321,159,1111,236,-175,-264,-51,2078,-224,-186,-313,-244,-87,185546
-273,-10,70,-66,-113,-97,-284,-416,170,-186,-389,-259,-26,-309,32,-64,10,100,105,-214,-87,-163,-78,143,-356,434,151,57,23,52,555,185547
-245,-15,63,-60,-90,-72,-248,-481,56,-209,-60,-237,81,-330,-83,-72,8,70,74,-187,-116,-154,-66,113,-283,342,120,28,29,50,347,185548
-241,-31,61,-60,-78,-57,-241,-420,-55,-422,-189,-198,-79,-236,-194,-79,11,60,90,-176,-162,-156,-63,129,-252,244,136,41,54,63,295,185549
-216,-37,71,-51,-58,-33,-245,-255,-39,-44,-488,-259,9,-267,-112,-101,7,55,121,-179,-231,-153,-36,140,-231,155,141,64,82,78,267,185550
-195,-37,77,-38,-50,-15,-266,-220,39,-32,-499,-219,-101,-160,-15,-118,-10,44,123,-200,-282,-170,-38,141,-216,62,127,64,80,76,254,185551
-32,-3,59,-23,-7,14,-115,103,64,13,-203,-47,51,-62,85,24,16,39,66,-45,22,-22,-6,75,-46,441,56,37,46,44,-62,185552
385,81,-16,1,82,78,345,396,-61,55,294,199,116,-71,148,368,-83,-90,-258,279,939,325,-102,-255,254,1714,-263,-168,-201,-154,-671,185553
582,115,-71,-5,103,71,591,535,-115,-35,478,296,8,52,138,555,-165,-169,-479,432,1501,488,-191,-468,358,2539,-444,-320,-392,-309,-963,185554
617,122,-71,-8,107,68,606,372,-96,-8,491,233,-125,145,195,598,-201,-198,-588,445,1684,513,-238,-550,329,2846,-517,-393,-479,-381,-990,185555
164,28,16,-58,16,-3,41,-120,113,12,64,-129,-55,-129,-5,199,-131,-78,-291,45,702,89,-196,-226,-78,1554,-201,-186,-253,-202,-127,185556
-185,-14,86,-47,-49,-60,-303,-300,78,131,-159,-206,-161,-217,-4,-57,29,82,119,-166,-112,-149,-42,144,-272,396,147,88,62,74,403,185557
-197,-13,76,-27,-65,-64,-282,-144,67,48,-218,-106,15,-214,27,-86,50,110,179,-168,-221,-150,-6,184,-259,193,180,119,115,111,431,185558
-182,-28,69,-35,-63,-54,-275,-365,127,120,-298,-169,69,-54,-18,-109,23,72,132,-186,-257,-172,-32,131,-268,138,126,72,75,80,341,185559
-189,-27,67,-28,-55,-50,-266,-242,102,108,-195,-158,133,-219,-37,-101,23,69,136,-173,-283,-166,-22,143,-246,71,143,81,94,85,338,185560
-140,-7,58,-25,-31,-37,-168,-199,84,-123,-250,-72,-1,-229,-35,-46,25,56,106,-105,-161,-96,-12,105,-170,213,115,68,86,78,338,185561
-15,9,26,-11,-14,-28,-26,-242,-33,-43,-13,-8,98,57,-42,53,20,28,47,7,100,11,-10,27,-54,569,29,37,34,30,62,185562
751,155,-125,42,141,87,818,440,-343,40,410,299,-174,453,133,712,-129,-190,-491,620,1804,672,-124,-534,536,2911,-529,-313,-393,-319,-1266,185563
998,209,-156,35,179,122,1049,748,-235,2,642,372,-149,513,231,928,-230,-271,-778,768,2470,840,-218,-778,608,3911,-743,-486,-628,-510,-1512,185564
754,161,-102,-10,111,74,755,394,-91,89,444,182,3,239,119,751,-202,-199,-698,559,2075,640,-230,-660,366,3474,-604,-428,-558,-462,-1079,185565
138,48,25,-54,-12,-21,50,110,63,-4,-81,-74,232,22,-48,254,-70,14,-249,75,769,141,-118,-180,-113,1738,-147,-125,-210,-162,75,185566
-279,-30,93,-63,-88,-95,-384,-373,181,-150,-200,-233,153,-222,-117,-128,31,114,140,-235,-251,-218,-43,185,-378,315,178,100,80,96,571,185567
-188,-8,85,-36,-63,-59,-252,-398,47,-101,-194,-165,16,-230,-59,-80,25,85,150,-161,-192,-160,-37,166,-255,360,160,93,98,108,382,185568
-174,-16,81,-31,-52,-45,-215,-137,-26,-236,-293,-165,-46,-68,36,-61,12,81,135,-141,-165,-135,-16,144,-201,360,146,79,101,106,326,185569
-190,-28,62,-20,-50,-49,-226,-83,44,-244,-22,-48,14,122,-35,-86,15,77,150,-150,-224,-139,8,146,-179,269,154,85,122,116,266,185570
-150,-11,61,-11,-37,-40,-190,-278,115,41,-98,-76,123,-161,-109,-65,13,63,140,-119,-184,-117,7,133,-137,315,135,73,113,99,167,185571
-84,-11,55,-16,-28,-19,-146,-147,50,200,-231,-47,142,-91,-80,-29,-7,19,89,-85,-89,-79,-26,80,-89,433,76,42,68,65,61,185572
53,21,37,-11,5,9,-37,11,41,81,-90,-9,72,-131,-26,87,-21,-7,-18,5,191,18,-28,-24,12,809,-22,-22,-15,2,-23,185573
-38,9,67,-17,-6,-6,-133,-36,-8,4,-111,-150,-88,-199,-1,17,9,37,57,-71,14,-51,0,50,-73,552,50,27,42,38,144,185574
-183,-38,69,-34,-45,-37,-255,-216,-52,-43,-68,-168,-100,-301,-71,-110,20,53,158,-184,-286,-166,8,144,-175,126,135,85,108,91,222,185575
-169,-29,75,-22,-40,-35,-224,-152,164,47,5,-37,-39,-135,-45,-106,31,59,164,-149,-296,-153,3,150,-140,95,140,102,127,112,230,185576
-60,1,48,-8,-13,-20,-114,87,2,82,-148,-13,28,-139,18,-29,6,24,68,-64,-60,-58,-20,58,-56,395,45,47,51,46,108,185577
-134,-32,29,-45,-42,-52,-191,-63,29,-85,-360,-123,126,-126,-13,-84,-8,20,97,-124,-190,-125,-19,84,-123,206,67,44,62,54,160,185578
-123,-40,15,-32,-38,-42,-183,-125,26,-386,-156,-101,-71,0,10,-78,8,19,110,-114,-185,-107,-2,86,-118,204,75,47,65,58,130,185579
-49,0,44,4,-3,-3,-121,-117,62,-352,73,-77,-63,65,31,-3,49,64,151,-45,-82,-23,40,120,-54,324,105,83,97,102,174,185580
-103,-15,64,1,-17,-10,-155,-30,107,44,-172,-96,-12,75,-105,-52,51,66,149,-87,-173,-68,28,139,-96,184,120,90,114,104,275,185581
-163,-33,41,-20,-40,-43,-177,-179,37,-221,-270,-42,-152,-81,-33,-89,39,58,128,-128,-245,-122,10,118,-141,82,108,81,98,88,242,185582
-722,-140,125,-51,-159,-148,-793,-530,95,-111,-577,-260,-21,-192,-162,-561,148,223,551,-570,-1507,-583,128,540,-565,-1666,530,357,425,350,1158,185583
-913,-162,175,-15,-160,-126,-983,-618,200,53,-689,-397,134,-186,-255,-751,225,300,794,-711,-2098,-742,212,773,-641,-2573,741,522,631,516,1486,185584
-773,-139,169,13,-112,-79,-834,-509,206,-44,-474,-222,246,-299,-163,-669,218,260,728,-589,-1933,-651,224,705,-487,-2433,660,483,603,490,1259,185585
-253,-70,57,38,-13,3,-281,-165,40,-34,-47,28,38,-130,-29,-276,91,69,329,-195,-885,-240,118,281,-97,-1020,239,201,295,229,258,185586
125,-8,-6,39,62,72,94,53,-155,-35,99,141,163,-18,30,11,-44,-92,-47,52,-14,21,-9,-88,113,193,-110,-47,-19,-42,-267,185587
101,-16,-10,23,34,56,40,-30,-174,167,-24,90,18,-247,-18,-13,-77,-93,-70,4,8,-9,-39,-97,51,263,-110,-63,-59,-66,-256,185588
25,-20,-21,0,7,6,-26,82,-74,84,-33,133,-42,-114,-12,-26,-17,-18,25,-14,-94,-30,24,-3,25,141,5,21,23,13,-113,185589
16,10,-19,16,17,1,-1,34,34,-209,122,137,-123,97,15,36,53,44,83,40,-40,22,90,75,74,202,70,84,92,82,-76,185590
33,-3,-10,9,26,10,-10,-196,-26,-103,112,65,5,120,-22,49,40,39,53,44,4,26,65,47,86,279,38,63,65,55,-54,185591
-121,-44,16,-27,-15,-10,-208,-228,-79,56,-376,51,14,127,-61,-105,-9,18,58,-111,-288,-136,5,77,-79,-112,72,50,61,43,194,185592
-697,-140,145,-58,-128,-86,-867,-477,230,12,-694,-235,-91,-78,-115,-609,125,190,514,-571,-1602,-622,130,535,-503,-1951,518,345,421,336,1119,185593
-948,-190,200,-36,-149,-113,-1127,-651,330,100,-554,-277,-28,-277,-184,-850,230,303,840,-751,-2334,-837,250,818,-614,-3048,767,548,667,544,1529,185594
-941,-214,178,0,-157,-116,-1042,-612,338,47,-653,-190,-5,-403,-173,-867,246,293,880,-741,-2450,-826,268,841,-545,-3308,767,571,700,583,1404,185595
-316,-95,46,61,-18,4,-301,-263,-21,69,-44,95,-97,-54,-39,-395,107,72,441,-265,-1193,-319,159,363,-33,-1662,305,258,366,294,296,185596
173,0,-62,74,72,71,222,258,-39,0,109,167,-64,249,18,-6,-43,-119,-22,83,-50,73,28,-89,264,-77,-125,-37,-9,-40,-400,185597
149,13,-58,68,66,38,205,225,-41,136,213,154,-111,236,41,20,-23,-78,-34,82,31,95,34,-71,211,52,-94,-25,-12,-49,-278,185598
103,11,-57,56,44,8,167,201,-187,-168,214,84,-89,246,30,9,-11,-49,-20,58,35,89,55,-47,182,75,-60,-5,-5,-32,-191,185599
126,17,-59,42,50,19,153,162,-49,-4,-67,-6,63,410,56,38,-17,-46,-62,76,132,116,34,-77,179,219,-80,-32,-23,-45,-205,185600
94,11,-45,30,35,18,80,212,-97,-77,77,59,110,215,-46,5,-22,-36,-38,54,64,77,33,-45,124,151,-51,-21,-10,-34,-251,185601
-176,-41,26,5,-13,-5,-225,-196,29,140,-104,-13,138,-106,-59,-204,25,51,163,-166,-511,-146,75,157,-94,-616,150,116,135,83,282,185602
-1318,-264,256,-65,-243,-177,-1490,-1170,335,32,-1115,-599,259,-663,-246,-1198,253,383,1024,-1078,-3106,-1119,277,1050,-965,-4207,1002,667,807,652,2189,185603
-1744,-352,321,-41,-302,-229,-1922,-1276,510,-92,-1395,-668,85,-945,-373,-1625,382,489,1450,-1402,-4340,-1515,399,1441,-1183,-6054,1356,920,1169,946,2711,185604
-1453,-300,262,35,-221,-148,-1571,-959,372,25,-1019,-461,8,-597,-367,-1425,360,400,1322,-1158,-3957,-1292,406,1280,-856,-5694,1170,838,1097,877,2111,185605
-378,-85,38,138,15,30,-330,-52,108,329,85,170,2,98,-66,-513,186,108,601,-264,-1680,-367,298,517,27,-2698,419,388,560,431,247,185606
413,66,-113,147,165,138,549,582,-101,307,527,370,-217,321,156,201,12,-114,-71,350,257,305,141,-153,551,-30,-193,-22,30,-27,-758,185607
333,43,-101,86,115,105,417,390,-71,57,323,356,-242,284,153,134,-30,-114,-132,250,274,213,72,-183,369,51,-199,-68,-63,-96,-498,185608
252,25,-85,68,85,89,288,159,2,117,243,388,21,171,13,44,-67,-138,-141,145,148,120,16,-173,232,-56,-187,-71,-93,-113,-436,185609
220,23,-70,59,76,75,254,123,-6,-54,226,131,152,160,-20,53,-66,-105,-135,143,157,103,3,-157,198,-26,-173,-74,-91,-108,-391,185610
197,39,-51,63,67,59,280,104,-34,134,337,99,-103,86,96,84,-11,-51,-96,162,182,124,42,-106,189,5,-113,-35,-50,-48,-307,185611
-28,-3,-28,43,10,22,65,-6,-37,-95,137,14,-276,68,-7,-92,16,13,26,-33,-252,-60,73,33,2,-566,34,49,49,33,126,185612
-949,-172,150,-14,-181,-132,-962,-763,195,-92,-635,-281,-108,-303,-219,-882,201,282,712,-759,-2304,-831,219,745,-689,-3413,718,489,582,468,1654,185613
-1295,-248,218,17,-219,-152,-1352,-811,255,-3,-1056,-487,-36,-391,-244,-1237,302,368,1100,-1030,-3317,-1134,330,1085,-859,-4912,1008,720,888,713,2100,185614
-1250,-248,189,46,-196,-131,-1271,-532,268,-7,-987,-488,4,-384,-204,-1223,313,343,1157,-966,-3376,-1086,370,1095,-719,-5110,1015,746,929,745,1856,185615
-347,-73,12,125,-13,10,-217,147,-21,25,-219,206,73,70,1,-437,193,119,575,-185,-1445,-275,297,479,86,-2578,412,379,502,406,322,185616
355,42,-130,112,113,120,527,540,-143,12,537,435,-57,411,100,162,-23,-132,-126,318,238,289,82,-188,531,-204,-204,-63,-40,-61,-712,185617
298,25,-108,65,101,99,421,476,-61,-6,403,246,-147,451,40,107,-59,-144,-206,230,261,222,16,-219,399,-89,-226,-115,-110,-135,-575,185618
311,37,-109,60,99,102,434,377,-213,153,337,203,-174,284,42,123,-85,-138,-258,233,369,223,-20,-243,369,124,-242,-140,-150,-162,-577,185619
252,42,-101,55,82,73,370,273,-146,361,274,181,-181,145,94,89,-71,-110,-229,185,298,183,-6,-213,293,66,-209,-116,-131,-144,-398,185620
220,36,-90,55,62,50,318,249,-87,233,238,142,-151,47,96,93,-29,-74,-148,176,257,173,29,-147,268,34,-164,-69,-81,-106,-316,185621
-98,-20,-3,22,5,31,-71,3,-17,57,-73,-38,-68,-28,32,-163,47,50,73,-82,-426,-100,89,112,-5,-888,101,89,102,47,308,185622
-1197,-242,191,-64,-224,-143,-1299,-738,237,25,-984,-577,-31,-561,-185,-1117,241,351,864,-963,-2888,-1039,251,927,-834,-4295,884,587,719,550,2009,185623
-1572,-323,237,-52,-288,-207,-1664,-1167,297,-78,-1188,-675,-13,-487,-257,-1457,365,444,1280,-1211,-3930,-1323,392,1284,-978,-5861,1196,840,1051,840,2406,185624
-1223,-257,157,17,-201,-146,-1236,-725,205,-130,-911,-307,4,-214,-192,-1190,333,344,1120,-895,-3349,-1033,395,1076,-614,-5221,982,728,933,755,1801,185625
-277,-87,-28,90,2,9,-181,-168,-94,-74,-155,73,-168,124,-35,-418,159,61,447,-151,-1343,-239,259,366,124,-2587,305,300,417,317,143,185626
320,28,-125,93,117,112,475,479,-174,91,397,259,-127,448,41,117,-4,-121,-97,301,145,272,120,-160,499,-538,-173,-18,-1,-59,-757,185627
280,31,-93,75,109,99,411,431,-88,151,233,169,81,472,71,114,-14,-102,-102,261,221,252,83,-154,402,-398,-161,-12,-31,-77,-568,185628
272,36,-67,73,105,102,373,363,-39,217,254,184,137,254,134,97,-18,-92,-133,226,248,232,48,-161,322,-339,-172,-41,-69,-91,-507,185629
246,26,-97,40,74,61,339,108,-106,116,207,202,138,193,46,88,-36,-104,-190,197,276,209,2,-198,246,-268,-189,-80,-121,-123,-400,185630
213,30,-98,48,57,44,321,403,-108,79,185,110,93,193,-5,83,-14,-78,-171,189,276,197,27,-173,215,-263,-151,-51,-103,-102,-247,185631
86,3,-60,43,32,32,180,168,27,-28,391,72,-44,16,-65,-55,-39,-70,-109,46,-16,49,3,-107,62,-619,-89,-32,-72,-77,-43,185632
-283,-74,11,33,-47,-36,-245,-348,190,22,-31,-120,44,-82,-117,-381,17,16,161,-275,-864,-279,53,163,-231,-1775,166,127,130,82,455,185633
-403,-72,36,49,-55,-36,-368,-439,231,76,-237,-79,139,-29,-27,-469,73,71,300,-334,-1181,-357,104,300,-249,-2241,285,225,252,187,587,185634
-376,-58,29,52,-45,-37,-337,-154,180,120,-215,-10,110,17,-18,-436,112,106,339,-275,-1166,-316,158,334,-156,-2247,316,260,307,229,588,185635
-19,0,-50,70,22,14,89,275,-72,147,264,103,195,230,104,-87,97,55,149,67,-355,34,162,122,195,-1161,106,138,178,125,22,185636
217,33,-102,68,69,48,357,264,-162,127,468,157,111,219,61,146,38,-5,-48,261,238,231,101,-67,364,-287,-79,19,12,-16,-260,185637
217,53,-80,72,75,56,346,156,-22,135,419,252,52,32,117,157,40,-7,-70,252,279,211,88,-86,358,-160,-78,12,-17,-41,-274,185638
178,54,-64,63,75,45,297,271,10,541,356,335,-77,116,105,125,42,6,-75,217,208,169,90,-71,319,-206,-64,6,-11,-43,-223,185639
207,44,-66,35,65,44,289,210,6,273,325,221,-151,58,21,113,1,-45,-131,198,251,154,41,-126,282,-87,-129,-53,-64,-92,-219,185640
123,26,-54,28,49,37,165,80,-125,212,105,74,-62,-56,34,28,-22,-51,-108,93,52,52,8,-95,176,-319,-98,-39,-49,-88,-178,185641
156,42,-44,48,65,65,198,305,-126,90,203,39,12,7,-10,40,-40,-75,-119,113,109,67,-8,-114,190,-260,-116,-56,-69,-100,-260,185642
-85,-6,16,27,10,43,-80,137,67,-16,64,-108,122,-181,-123,-169,2,-7,30,-87,-376,-135,1,44,-21,-937,44,23,38,-1,260,185643
-208,-45,39,16,-7,16,-225,-110,77,4,-121,-131,148,-264,-55,-288,28,28,137,-183,-676,-234,32,140,-101,-1386,132,81,122,80,301,185644
-88,-42,1,14,6,16,-97,-50,-13,107,9,-52,-102,-228,67,-203,5,-17,84,-92,-449,-122,32,56,-15,-1111,57,47,69,35,99,185645
80,0,-55,32,25,17,138,55,37,90,138,15,-98,-109,119,-24,-3,-44,-21,66,-13,66,29,-55,139,-565,-49,-13,-4,-30,-212,185646
163,37,-64,50,30,21,252,141,63,143,231,158,-99,221,115,94,16,-17,-66,159,236,185,43,-89,215,-238,-70,-20,-33,-38,-307,185647
144,32,-62,41,30,4,207,338,-51,166,264,175,-21,299,93,92,25,-17,-84,141,230,173,49,-89,177,-239,-70,-18,-47,-43,-193,185648
88,13,-52,18,19,10,134,122,-144,222,266,74,28,144,14,34,16,-28,-89,78,134,106,22,-85,98,-366,-75,-32,-61,-48,-93,185649
105,21,-33,12,28,18,155,18,-91,332,128,-63,21,215,75,36,-17,-48,-103,88,185,117,3,-106,108,-309,-103,-45,-81,-65,-152,185650
70,8,-33,2,7,7,133,168,-40,188,73,18,-90,341,88,7,-28,-55,-76,56,136,89,-20,-100,76,-368,-81,-42,-80,-59,-97,185651
108,27,-49,17,14,11,216,281,-33,4,348,11,-44,120,111,72,-21,-40,-87,117,245,140,-10,-112,118,-210,-90,-47,-75,-59,-162,185652
314,64,-96,33,61,45,461,219,-51,-68,346,23,4,90,146,249,-67,-95,-250,286,733,318,-53,-281,278,490,-258,-141,-198,-161,-468,185653
368,64,-130,2,53,42,480,147,-81,-202,134,175,32,158,85,293,-121,-142,-367,307,897,339,-118,-369,285,789,-338,-229,-298,-235,-588,185654
400,91,-109,19,69,51,461,124,-135,-134,134,201,-89,298,66,323,-86,-112,-349,325,935,356,-89,-344,286,895,-305,-211,-274,-216,-472,185655
183,44,-70,-5,14,-2,199,21,-109,-45,-18,9,-101,181,25,173,-23,-25,-176,173,507,191,-19,-162,133,342,-129,-92,-138,-110,-183,185656
0,17,-5,-5,-6,-1,3,-135,17,26,-103,-90,-123,-44,49,41,47,54,28,55,78,46,58,33,56,-239,47,39,22,22,63,185657
33,15,-17,-1,-3,8,44,-55,-71,-49,-192,-86,61,-25,-3,51,33,17,-11,88,112,59,39,-15,99,-150,1,13,-6,-2,5,185658
34,27,-2,3,1,12,50,16,58,-104,-185,-79,230,-235,-26,51,53,46,35,93,81,47,56,14,118,-186,18,34,21,17,86,185659
16,20,-9,5,-6,3,46,-76,67,-34,-191,-44,54,-274,-29,44,36,36,34,90,52,28,45,8,126,-211,23,25,11,8,-1,185660
106,45,-27,15,25,14,159,-154,18,-65,94,-56,28,-130,-18,115,22,0,-21,162,230,107,31,-55,193,45,-35,-5,-33,-37,-112,185661
213,50,-42,22,44,35,256,59,-83,95,294,-164,136,31,28,180,-39,-59,-146,214,443,176,-26,-165,243,367,-146,-98,-130,-117,-321,185662
571,94,-113,23,114,85,636,484,-34,88,633,225,2,53,146,460,-154,-201,-497,456,1270,454,-144,-495,470,1518,-468,-333,-394,-335,-976,185663
696,128,-115,6,120,92,764,605,-134,134,714,241,-107,216,172,599,-194,-223,-615,550,1682,585,-177,-620,526,2124,-581,-402,-503,-420,-1100,185664
594,104,-99,-26,81,61,621,470,-54,-7,461,111,-176,205,130,521,-186,-199,-561,455,1550,507,-187,-562,390,1983,-512,-368,-474,-384,-964,185665
218,47,-34,-48,18,8,175,35,-115,-20,44,-5,-128,-13,51,201,-121,-87,-304,132,768,191,-144,-293,78,938,-238,-202,-282,-220,-346,185666
-41,-6,13,-49,-33,-25,-112,-91,11,-79,-253,-167,78,-96,-13,4,-38,-8,-86,-48,173,0,-76,-68,-90,107,-28,-60,-104,-52,104,185667
-30,13,23,-12,-16,-15,-60,-39,77,-85,-166,-144,-51,-34,-10,29,23,42,-22,-9,129,32,-12,-2,-45,-1,29,-6,-17,10,180,185668
22,27,26,14,1,5,19,93,-17,-393,20,-66,-109,92,25,60,18,24,-37,26,211,71,-5,-27,5,84,-11,-16,-36,-10,88,185669
-1,18,26,6,-11,-6,-1,174,-55,-117,-46,20,-23,45,-29,18,-16,-13,-33,-18,141,31,-19,-52,-30,-5,-30,-32,-62,-39,83,185670
-26,7,9,-14,-30,-20,4,140,20,-21,-87,35,-9,-59,-31,12,0,4,-15,-18,109,33,-20,-21,-30,-66,-7,-15,-31,-12,77,185671
64,32,-8,-2,-3,-7,115,-220,-120,-124,-11,-9,-82,-44,96,111,29,17,-23,98,297,137,6,-37,77,185,-29,-14,-26,6,-59,185672
467,101,-99,20,87,48,575,225,-243,-108,385,144,-142,87,112,478,-46,-96,-327,428,1213,489,-45,-346,394,1463,-332,-206,-259,-193,-750,185673
721,137,-149,9,115,75,807,450,-154,-90,694,257,-67,150,39,683,-144,-199,-603,590,1839,673,-130,-604,503,2392,-563,-378,-471,-383,-1182,185674
761,136,-140,-29,114,82,773,299,-277,-70,756,183,50,172,54,690,-206,-253,-718,581,1989,659,-207,-712,449,2708,-660,-466,-577,-469,-1236,185675
278,74,-19,-55,29,13,226,159,-82,26,41,-59,23,-78,40,298,-123,-110,-402,182,990,231,-154,-358,33,1414,-307,-259,-347,-273,-333,185676
-164,8,75,-40,-40,-52,-233,-29,129,82,-376,-150,81,-301,-16,-59,24,90,40,-107,-56,-112,-14,68,-215,-14,107,28,4,36,351,185677
-127,-7,50,-31,-46,-39,-199,-88,83,-63,-303,-188,18,-154,-34,-48,6,56,54,-72,-99,-107,0,60,-140,-56,72,25,17,38,243,185678
-94,-7,52,-20,-32,-10,-161,-154,62,-159,-104,-122,25,-156,23,-27,21,38,55,-40,-85,-95,5,60,-95,-70,56,25,31,25,149,185679
-39,-1,60,-9,-10,22,-84,-234,-54,-179,-2,-26,102,10,80,16,13,25,32,-1,-9,-64,8,27,-44,44,27,19,10,9,-9,185680
-1,5,55,-13,4,27,-35,-220,40,-137,-57,62,113,-18,74,27,8,21,-10,11,31,-55,-5,-2,-27,96,13,-6,-9,-3,45,185681
166,42,-7,-4,35,22,180,147,-109,-87,-60,96,-75,66,66,176,-26,-43,-121,164,430,116,-28,-136,128,626,-118,-88,-109,-83,-303,185682
1120,233,-194,65,220,148,1249,878,-320,16,879,510,-145,670,291,1004,-220,-324,-828,927,2601,940,-192,-879,843,3632,-838,-551,-670,-549,-1859,185683
1496,304,-277,42,263,179,1648,1024,-380,51,1178,524,-14,734,301,1377,-344,-446,-1263,1191,3715,1279,-326,-1263,1017,5268,-1181,-816,-1020,-837,-2341,185684
1230,275,-194,2,201,139,1332,851,-318,-111,825,429,54,501,236,1213,-283,-310,-1095,970,3341,1102,-288,-1051,738,4862,-964,-681,-899,-713,-1715,185685
321,95,6,-92,3,-6,299,169,-160,-257,96,17,134,-23,51,455,-117,-31,-446,232,1427,342,-161,-366,5,2301,-293,-259,-410,-294,-126,185686
-254,-14,108,-100,-102,-97,-344,-346,112,-174,-253,-145,22,-360,-69,-64,31,136,75,-205,7,-142,-40,131,-372,331,169,53,-9,58,629,185687
-222,-5,96,-69,-71,-70,-303,-308,196,-30,-115,-162,-36,-210,-23,-67,27,105,93,-187,-78,-124,-25,134,-288,174,152,52,34,86,428,185688
-223,-25,63,-72,-72,-82,-278,-269,123,7,-148,-225,-224,9,27,-71,18,80,82,-169,-96,-117,-26,106,-248,114,116,34,31,70,318,185689
-197,-18,61,-51,-55,-53,-232,-229,93,-97,-177,-197,-143,-48,14,-72,30,64,84,-166,-118,-108,-13,98,-220,49,106,35,40,77,320,185690
-145,-5,63,-35,-24,-12,-241,-129,165,-120,9,-146,74,-135,-24,-98,-20,9,44,-193,-127,-119,-40,44,-206,35,48,-4,1,32,189,185691
44,8,41,-36,32,39,-98,143,52,11,-168,-70,-30,-165,24,29,-57,-46,-60,-56,204,13,-61,-77,-70,487,-86,-80,-96,-64,-136,185692
556,90,-53,-14,125,122,468,631,-288,59,42,117,-14,116,76,473,-146,-189,-443,364,1344,440,-140,-463,319,2069,-454,-322,-378,-301,-933,185693
760,142,-112,-15,127,99,757,637,-275,77,528,260,-108,313,61,727,-159,-209,-619,578,1981,660,-151,-623,480,3005,-580,-405,-511,-397,-1159,185694
655,132,-102,-32,81,51,667,303,-134,60,535,243,-146,182,74,694,-140,-147,-577,517,1901,602,-149,-563,377,2952,-520,-364,-482,-368,-931,185695
155,53,12,-54,-6,-27,112,-116,64,-21,-175,-33,14,-48,3,260,-81,-27,-267,95,803,148,-121,-224,-52,1528,-186,-164,-246,-175,-122,185696
-182,-9,80,-57,-65,-82,-249,-307,67,-125,-260,-171,82,-37,-52,-50,8,67,28,-161,-28,-146,-28,69,-259,378,85,16,-6,31,285,185697
-137,-18,56,-57,-64,-72,-220,-71,1,-60,74,-87,28,-39,-29,-40,7,42,45,-125,-47,-122,-12,70,-204,331,62,16,9,37,224,185698
-159,-23,43,-54,-64,-61,-240,-47,105,-411,-178,-120,6,-108,-103,-65,-5,27,61,-143,-123,-142,-29,64,-207,214,59,11,10,28,212,185699
-157,-38,41,-48,-52,-40,-219,-151,52,-451,-420,-163,80,8,-154,-53,0,38,69,-119,-138,-128,-13,73,-173,169,71,27,31,35,150,185700
-110,-23,63,-26,-31,-8,-182,-83,46,-203,-194,-84,82,269,-59,-37,-3,35,43,-88,-102,-109,-19,57,-138,197,61,16,16,39,131,185701
48,9,33,-20,-1,5,11,189,25,-74,-49,94,-172,47,-69,94,-37,-19,-66,31,245,23,-45,-70,-1,654,-67,-62,-77,-34,-44,185702
264,49,-29,-10,34,13,253,158,-43,-76,246,193,-98,14,22,301,-68,-72,-215,208,764,223,-58,-232,156,1360,-224,-151,-201,-133,-400,185703
363,74,-55,-8,50,21,372,224,-50,-76,392,224,14,-18,-20,407,-80,-99,-321,297,1066,337,-81,-314,216,1795,-295,-206,-281,-203,-539,185704
260,66,-16,-4,42,6,256,87,-4,15,288,-14,129,-57,-22,329,-63,-49,-252,196,861,252,-66,-230,108,1555,-209,-161,-228,-158,-387,185705
22,29,25,-26,-13,-34,0,91,109,54,49,-38,137,-13,-67,145,-5,40,-52,21,351,55,-10,-30,-66,859,-15,-35,-74,-31,99,185706
-152,-14,34,-37,-62,-78,-187,-188,21,-26,-270,-107,287,-138,-53,-31,25,81,103,-124,-86,-104,26,119,-190,254,120,54,48,77,379,185707
-120,-2,33,-20,-42,-63,-166,-291,69,-342,-28,-35,196,-214,-72,-9,41,92,102,-81,-66,-65,35,111,-140,256,110,57,64,83,275,185708
-97,5,33,-18,-29,-48,-154,-132,154,74,-189,54,66,-249,-40,15,46,91,107,-52,-56,-37,50,117,-99,267,120,73,80,90,195,185709
-119,-28,46,-35,-36,-34,-210,-81,125,369,-45,-8,19,-273,-114,-42,17,68,102,-102,-140,-94,40,103,-130,150,95,56,63,65,171,185710
-99,-29,66,-32,-28,-19,-235,-180,78,68,-205,23,-47,-253,-16,-48,-15,18,69,-101,-124,-98,21,65,-117,171,31,23,31,24,59,185711
-112,-13,54,-13,-22,-38,-230,-125,141,39,-98,50,52,106,49,-25,38,58,125,-68,-129,-70,60,117,-82,138,90,74,80,75,150,185712
-122,-8,43,-19,-32,-53,-218,136,117,70,-17,67,30,186,88,-18,48,70,139,-58,-131,-64,60,133,-66,132,116,93,88,95,209,185713
