73,-8,-47,14,21,35,75,82,-57,-192,87,55,-90,180,10,-52,-61,-68,-107,44,-129,39,-38,-118,44,-156,-110,-69,-71,-124,-164,44632
-210,-66,-10,-17,-58,-54,-195,-236,8,80,-192,17,-137,99,-44,-221,19,50,100,-121,-607,-131,32,112,-130,-814,113,84,76,37,304,44633
-376,-93,15,-20,-92,-94,-357,-307,8,2,-44,103,-335,-133,-2,-319,93,141,268,-214,-940,-215,118,274,-211,-1302,266,197,210,168,549,44634
-324,-71,-7,-5,-75,-79,-296,-267,-13,-88,69,25,-515,-128,13,-279,105,124,256,-183,-865,-172,129,235,-141,-1238,239,190,208,166,425,44635
-189,-43,-23,-5,-33,-33,-144,-143,-81,42,52,31,-163,46,-8,-197,69,74,156,-105,-593,-82,100,128,-26,-925,134,126,137,90,173,44636
8,-18,-35,9,18,35,36,-77,44,-92,165,94,-244,206,-6,-74,8,-9,29,-1,-235,28,54,-24,76,-458,-25,50,25,-9,-204,44637
46,-10,-22,9,31,60,41,200,12,-109,-43,88,-231,42,-22,-62,-13,-19,-15,10,-149,35,32,-57,68,-341,-45,23,-11,-34,-126,44638
15,-8,-9,12,24,50,7,66,29,-62,-21,101,-129,95,-36,-90,14,5,-12,-17,-186,13,23,-30,36,-407,-4,21,3,-13,-58,44639
40,0,-19,22,32,45,33,-89,108,8,8,55,-20,112,24,-44,31,11,-19,4,-131,43,30,-58,63,-328,-13,28,2,-10,-3,44640
52,11,-11,40,36,39,45,11,39,115,21,124,-61,-88,2,-38,24,9,-5,14,-102,39,33,-63,72,-290,-19,28,8,-15,-28,44641
135,31,-24,60,51,56,144,246,106,184,127,118,-100,71,81,4,-9,-28,-61,72,74,103,5,-132,134,-49,-82,-6,-33,-51,-194,44642
302,58,-78,60,80,74,365,320,22,227,281,168,-299,199,94,170,-23,-60,-163,224,466,246,-8,-247,276,480,-192,-72,-105,-113,-464,44643
354,75,-82,52,88,89,438,282,-78,47,128,194,-242,326,126,252,-8,-49,-188,280,634,311,-6,-276,312,747,-200,-86,-127,-125,-470,44644
353,86,-69,50,94,100,427,314,-62,61,-20,88,-81,174,114,257,-16,-53,-205,284,657,301,-17,-273,300,817,-192,-100,-141,-140,-434,44645
337,83,-64,49,80,73,412,259,-43,39,184,117,15,67,86,255,-30,-56,-231,271,632,275,-39,-283,258,849,-193,-114,-161,-151,-315,44646
64,16,-18,1,3,0,86,183,-44,-51,70,24,60,-142,-25,44,11,9,-88,84,113,70,-12,-114,37,187,-47,-30,-52,-61,76,44647
-21,-8,-8,-18,0,18,-45,67,-122,-5,-133,-75,-81,71,-47,-31,8,12,-28,29,-72,10,-11,-64,-8,-63,-14,3,-29,-39,49,44648
26,13,-12,-7,18,20,-26,7,-42,-88,137,-80,-47,80,6,-1,12,1,-23,67,-33,47,0,-68,32,6,-27,5,-25,-43,33,44649
77,23,-36,1,12,1,21,72,-79,-63,255,57,18,89,63,32,26,6,-21,111,44,90,9,-73,81,101,-33,2,-13,-42,-22,44650
50,6,-27,-7,4,3,14,95,-55,15,139,91,44,61,68,28,21,10,-14,88,-3,84,6,-65,50,48,-15,9,-7,-33,-8,44651
-19,-1,5,2,1,-1,-28,175,11,7,186,4,26,-116,52,-29,41,30,58,27,-161,26,34,6,-2,-147,33,57,29,12,44,44652
251,54,-60,41,55,47,325,413,52,-1,275,105,74,26,84,159,-27,-68,-171,208,366,203,-44,-223,201,569,-193,-89,-116,-131,-419,44653
427,101,-87,60,97,91,544,337,-99,73,347,256,-145,167,58,326,-52,-100,-312,338,776,339,-69,-354,326,1136,-294,-162,-203,-219,-598,44654
403,102,-83,47,93,100,520,366,-59,60,200,154,-294,138,76,326,-61,-103,-321,322,803,322,-62,-361,297,1202,-295,-162,-225,-223,-529,44655
215,57,-30,4,49,67,265,237,14,-73,122,41,-61,-83,107,156,-50,-68,-222,138,435,150,-59,-237,104,734,-173,-113,-178,-155,-174,44656
-86,-39,24,-51,-25,14,-107,-60,4,-209,-105,-45,-297,-226,-23,-84,-3,8,-16,-89,-179,-89,-30,-33,-133,-95,31,-11,-33,-27,219,44657
-106,-42,23,-31,-11,25,-142,-171,25,-183,-165,-67,-130,-23,-123,-94,50,66,98,-85,-271,-92,31,64,-108,-275,115,65,58,48,279,44658
-98,-13,14,-9,-20,1,-93,-46,45,-118,-199,23,404,-45,-46,-75,74,83,132,-62,-255,-57,58,96,-60,-291,126,87,85,71,266,44659
-33,4,-24,0,-24,-25,16,38,57,-15,-145,-107,42,45,35,-12,52,48,56,13,-78,14,40,33,18,-89,61,53,47,48,125,44660
34,10,-42,-6,-6,-4,82,132,74,-152,-135,36,98,24,32,26,17,6,-25,56,83,69,12,-39,65,113,-31,2,-15,7,-22,44661
3,-6,-5,-9,-9,20,9,99,76,-83,-29,-34,357,-126,-20,-21,7,-1,-18,9,-5,30,-4,-25,21,24,-22,1,-15,11,2,44662
165,43,-1,31,38,59,193,44,29,47,219,55,172,67,25,117,24,-10,-65,141,274,152,9,-75,156,395,-74,-14,-29,-17,-181,44663
439,113,-56,66,113,112,530,248,-6,154,476,291,42,231,136,344,-16,-73,-233,347,832,361,-35,-253,363,1165,-242,-109,-148,-132,-549,44664
484,119,-75,59,117,119,571,205,-50,18,423,348,-36,159,140,372,-84,-135,-348,353,962,362,-106,-355,338,1412,-323,-200,-250,-232,-608,44665
370,81,-49,35,84,114,396,266,24,-93,290,77,-52,134,71,264,-75,-116,-316,241,731,245,-84,-296,187,1156,-277,-188,-237,-211,-379,44666
10,-16,6,-28,-7,19,-9,56,-12,-233,-15,-39,-41,-117,1,-20,-36,-29,-102,-29,35,-36,-50,-73,-93,248,-47,-63,-92,-80,143,44667
-62,-21,7,-23,-28,-21,-48,27,-22,-133,-60,-63,55,-97,-9,-68,-8,5,0,-51,-110,-61,-30,16,-100,24,22,-4,-19,-13,177,44668
20,15,2,22,12,1,96,42,80,120,-14,-80,29,190,79,11,9,11,-10,38,51,29,-17,-13,0,212,-17,-10,-19,-16,4,44669
37,29,5,34,15,2,102,-90,28,103,67,-50,-114,227,53,23,8,8,-24,39,66,43,-6,-19,6,221,-12,-14,-25,-22,14,44670
18,20,10,20,6,-1,68,-27,41,93,25,67,-16,117,39,4,-4,3,-21,33,44,32,-10,-23,3,185,-7,-15,-26,-23,8,44671
74,27,11,19,15,31,102,-5,52,108,-42,152,-73,142,29,47,-14,-8,-47,85,153,72,-11,-59,53,333,-56,-25,-48,-36,-52,44672
222,58,-10,43,63,78,241,331,7,52,125,91,1,-62,76,158,-37,-50,-135,192,437,173,-32,-149,164,710,-145,-89,-109,-105,-305,44673
408,101,-41,57,103,115,441,575,-135,31,390,103,116,181,133,309,-63,-100,-273,310,816,302,-54,-281,289,1245,-262,-158,-190,-185,-508,44674
367,81,-46,36,78,99,386,351,-168,-60,258,103,41,125,126,284,-72,-92,-281,261,775,261,-75,-281,215,1227,-253,-166,-207,-187,-459,44675
211,57,-18,10,46,61,208,252,-76,-170,199,43,-36,47,121,168,-38,-41,-156,136,483,140,-44,-156,91,862,-125,-98,-133,-110,-209,44676
-11,12,25,-16,-12,2,-16,102,-16,-1,29,39,-105,-25,-2,15,26,41,7,-1,60,-4,18,24,-40,312,42,2,-6,5,171,44677
-51,-5,17,-10,-25,-21,-46,100,69,84,123,5,-8,13,56,-9,42,57,48,-6,-46,-17,33,66,-40,162,74,26,32,40,208,44678
-60,-12,22,-21,-25,-11,-84,-24,69,-87,-25,-28,-119,1,23,-48,5,19,24,-37,-113,-55,-4,48,-68,68,46,9,8,22,151,44679
-67,-13,32,-24,-21,4,-102,100,-34,-125,-152,-91,261,-57,-36,-98,-49,-37,-6,-77,-159,-100,-51,3,-103,12,2,-33,-35,-22,52,44680
-54,-30,35,-21,-8,15,-104,-94,40,-165,-127,-133,51,-141,2,-125,-77,-72,-55,-109,-185,-117,-81,-34,-127,-6,-35,-73,-83,-60,59,44681
-60,-30,30,-18,-13,32,-90,-95,41,-46,-42,-74,-2,-135,77,-99,-37,-22,-27,-87,-193,-87,-38,0,-99,-12,1,-34,-34,-15,74,44682
18,-6,-6,-12,-6,26,37,-116,-56,-186,73,-8,-128,74,81,15,19,5,-19,32,7,25,8,7,20,238,-9,-9,-9,5,-50,44683
276,75,-53,39,66,73,332,108,-111,-76,268,56,-273,258,29,243,13,-23,-123,236,508,238,15,-108,246,897,-133,-58,-71,-59,-364,44684
397,81,-86,26,77,64,474,224,-45,-8,392,71,-263,42,11,337,-50,-90,-256,305,796,306,-61,-247,299,1319,-257,-146,-182,-164,-559,44685
268,41,-54,-11,32,36,312,37,-158,-27,-22,8,-114,-79,18,228,-82,-97,-249,188,597,181,-90,-234,158,1106,-234,-151,-200,-180,-352,44686
-70,-30,2,-56,-49,-35,-69,-139,-103,-30,-261,-141,-259,-168,7,-37,-21,-1,-25,-60,-51,-71,-38,5,-114,217,16,-14,-52,-39,199,44687
-109,-37,19,-50,-51,-23,-122,-123,142,48,-4,-186,-91,-94,27,-89,5,15,66,-81,-164,-95,3,76,-117,3,67,23,13,14,233,44688
-18,-24,10,-29,-28,-2,-8,36,20,116,-309,19,45,-18,25,-8,5,8,16,-11,23,-20,-4,27,-21,210,15,5,-17,0,62,44689
-76,-14,12,-10,-46,-12,-36,-11,64,126,-166,26,26,-135,76,-16,53,49,81,-15,-45,-34,30,95,-25,73,77,67,42,56,161,44690
-19,-1,14,9,-5,8,14,-1,48,125,251,-34,-131,-134,93,9,37,23,47,4,58,-1,13,45,4,163,38,26,8,30,40,44691
50,-9,-6,-3,8,25,33,119,29,25,147,-22,-53,-210,11,10,-27,-44,-66,-7,150,7,-43,-68,-7,306,-69,-66,-84,-64,-146,44692
168,34,-1,15,47,63,158,172,-45,-55,71,-1,44,-118,5,110,-44,-72,-120,92,368,89,-50,-141,93,626,-136,-93,-122,-104,-299,44693
493,117,-60,54,118,119,539,487,-164,66,399,132,115,194,111,379,-97,-147,-332,344,1013,336,-109,-355,338,1530,-340,-209,-258,-242,-700,44694
482,121,-75,57,98,88,564,495,-119,0,685,101,521,290,109,423,-64,-102,-330,364,1071,359,-88,-325,326,1666,-298,-188,-242,-221,-581,44695
307,81,-63,22,41,34,385,147,-60,6,344,62,-73,52,90,308,-30,-47,-216,255,762,242,-53,-199,192,1325,-185,-120,-181,-146,-298,44696
-16,2,-1,-29,-35,-34,-2,-205,51,-9,192,-53,-62,-188,80,28,-7,4,-49,-5,94,-24,-42,-8,-73,484,-12,-35,-72,-37,169,44697
-129,-29,25,-45,-51,-57,-161,-108,110,127,-5,-77,179,-149,53,-67,36,45,48,-84,-205,-107,-6,98,-145,78,80,31,20,33,286,44698
-156,-39,33,-34,-50,-51,-198,-158,26,245,-164,-90,-137,-262,70,-96,40,47,100,-100,-318,-131,22,133,-141,-72,112,56,58,62,310,44699
-152,-54,28,-39,-62,-40,-187,-109,50,153,-17,-88,71,-192,32,-120,5,0,67,-116,-335,-149,-1,94,-143,-99,71,10,25,35,240,44700
-144,-29,46,-18,-44,-15,-185,-92,91,46,84,-123,266,-42,8,-110,35,34,104,-101,-376,-128,25,134,-126,-157,116,55,65,72,266,44701
-127,-32,25,-18,-35,-26,-140,-330,-38,-22,-121,-64,144,-155,-61,-78,44,44,129,-73,-357,-93,46,143,-84,-133,113,70,91,75,224,44702
125,25,-15,22,36,43,140,-76,-127,5,22,52,43,-95,20,113,5,-19,-9,110,116,99,4,-7,114,481,-50,-18,-2,-23,-207,44703
413,93,-50,51,99,117,449,283,-92,75,187,179,-13,130,108,320,-78,-117,-263,292,704,288,-65,-255,294,1292,-286,-171,-181,-197,-614,44704
463,81,-64,27,88,111,503,367,-60,64,213,255,104,284,47,343,-139,-167,-395,292,851,290,-134,-364,265,1538,-379,-251,-285,-286,-725,44705
302,61,-20,19,69,71,323,231,-28,48,460,62,123,165,55,228,-95,-97,-280,169,589,171,-114,-226,129,1186,-245,-180,-210,-213,-431,44706
-85,-20,31,-29,-40,-20,-101,-144,38,-18,141,-52,109,-44,29,-44,13,40,15,-88,-107,-90,-9,87,-131,198,61,13,-6,-1,249,44707
-151,-43,18,-40,-57,-35,-176,-292,91,-6,-22,-50,185,-144,-73,-94,46,68,94,-121,-235,-128,28,150,-134,-43,113,59,63,63,292,44708
-105,-28,17,-28,-40,-19,-109,-178,65,38,20,-96,-97,-18,-29,-64,55,75,102,-71,-127,-81,39,138,-84,27,107,65,67,70,197,44709
-112,-15,20,-14,-32,-16,-86,-100,5,46,-72,-47,-64,35,-24,-65,42,57,98,-86,-114,-89,33,131,-84,-4,101,58,68,69,151,44710
-172,-38,-4,-24,-55,-51,-128,-124,-22,28,-316,-89,34,46,-23,-123,14,25,103,-138,-194,-135,2,121,-116,-127,99,57,53,54,182,44711
-139,-19,3,0,-36,-39,-115,-81,-142,46,-79,-2,229,-26,36,-75,42,56,114,-106,-149,-85,31,129,-81,-100,105,73,73,65,146,44712
81,25,-6,19,29,36,75,20,-143,-54,161,149,36,83,51,75,2,-1,-11,35,208,59,2,-2,64,399,-31,-12,-10,-26,-148,44713
187,26,-11,18,53,71,156,184,-2,2,111,15,185,175,12,103,-69,-81,-145,77,376,87,-75,-132,84,674,-164,-112,-124,-142,-352,44714
228,36,18,28,74,88,190,187,-72,139,50,37,415,123,-8,110,-87,-92,-194,83,400,82,-97,-157,70,763,-191,-140,-156,-172,-349,44715
150,13,6,4,32,37,123,20,-122,96,72,40,48,32,-44,77,-65,-69,-140,47,257,43,-68,-106,16,635,-142,-103,-126,-132,-152,44716
-155,-30,34,-22,-42,-39,-172,-212,-35,102,-74,-159,314,46,-36,-104,43,73,79,-116,-309,-130,29,155,-166,-100,111,53,59,46,363,44717
-237,-51,30,-24,-74,-62,-238,-419,42,31,-7,-133,65,18,-49,-163,42,71,133,-165,-495,-182,26,198,-190,-343,153,72,106,80,332,44718
-177,-55,10,-26,-60,-54,-180,-303,46,4,47,-126,-50,-72,-67,-134,10,24,104,-126,-420,-148,4,132,-149,-244,83,41,62,37,179,44719
-143,-39,31,-17,-28,-19,-152,-209,-45,-18,121,18,61,-226,-65,-92,34,52,118,-90,-389,-98,43,156,-109,-198,105,67,85,57,144,44720
-178,-51,16,-35,-48,-26,-190,-258,71,23,102,-43,-223,-112,-45,-116,45,64,114,-114,-464,-130,36,174,-133,-287,134,78,99,50,187,44721
-200,-44,28,-21,-45,-26,-201,-38,-50,2,44,-65,-526,42,8,-119,73,89,157,-118,-521,-138,65,216,-136,-391,171,115,132,77,291,44722
90,29,-22,28,36,42,127,228,-26,55,249,84,-176,317,79,86,14,-6,-23,80,12,69,19,2,91,305,-49,-11,4,-58,-246,44723
477,97,-84,52,116,108,532,479,-135,-92,366,292,-26,296,71,350,-123,-165,-359,313,790,299,-111,-347,313,1388,-384,-238,-255,-309,-848,44724
699,159,-97,80,172,164,766,518,-250,-153,585,394,-26,525,126,525,-153,-193,-512,465,1265,449,-134,-487,434,2066,-515,-316,-360,-401,-1030,44725
532,113,-74,27,112,113,581,441,-236,-101,454,201,-131,336,56,405,-163,-173,-479,313,1043,301,-161,-429,253,1818,-428,-302,-354,-389,-713,44726
-209,-49,38,-66,-79,-61,-228,-49,44,-7,-267,-149,-59,-82,-96,-137,-31,36,-12,-215,-304,-221,-55,83,-299,-13,75,-16,-37,-64,365,44727
-297,-45,62,-28,-93,-86,-285,-232,115,-58,-253,-91,-93,-51,-27,-171,94,157,218,-217,-509,-215,78,286,-257,-412,252,148,161,126,529,44728
-301,-74,34,-43,-103,-97,-292,-140,12,-117,-234,-154,-7,30,-109,-201,60,117,175,-235,-539,-236,37,241,-262,-497,216,114,148,112,455,44729
-285,-79,45,-39,-73,-53,-303,-59,-2,-42,-202,-270,-62,-107,-103,-233,18,68,141,-257,-567,-260,24,194,-257,-565,160,72,104,74,349,44730
-279,-70,52,-20,-58,-49,-301,-163,134,39,-334,-174,47,-169,-87,-239,42,82,164,-251,-585,-256,48,222,-247,-626,177,97,115,91,398,44731
-220,-48,29,-16,-48,-48,-227,-148,121,122,-119,-128,-36,-42,-64,-175,66,82,159,-171,-454,-176,62,210,-154,-491,160,107,131,99,289,44732
513,105,-104,77,138,123,561,361,-57,245,396,342,-105,375,167,389,-47,-112,-254,368,926,375,-22,-264,413,1333,-318,-154,-150,-200,-932,44733
1490,335,-221,206,378,346,1628,979,-283,189,934,717,-205,811,321,1160,-222,-344,-922,1039,2852,1060,-205,-952,1063,4048,-978,-542,-628,-655,-2199,44734
1447,339,-196,156,336,306,1562,696,-280,141,1180,560,-564,586,261,1160,-250,-338,-1024,988,2939,997,-272,-995,919,4346,-992,-596,-719,-740,-1951,44735
955,231,-103,74,198,173,1018,469,-222,14,645,279,-126,291,136,812,-187,-181,-743,635,2089,617,-225,-677,483,3320,-659,-443,-546,-563,-1113,44736
-214,-26,68,-87,-104,-115,-259,-211,122,-5,-382,-199,334,-390,-79,-105,-38,78,-55,-211,-133,-244,-99,76,-407,387,79,-36,-81,-99,593,44737
-455,-88,94,-97,-152,-151,-500,-302,132,-88,-484,-246,630,-437,-47,-309,22,112,163,-361,-697,-385,-39,267,-484,-435,237,76,90,70,724,44738
-406,-105,77,-91,-130,-129,-459,-311,114,-100,-358,-281,-148,-175,-84,-270,30,106,167,-311,-680,-333,-14,251,-397,-459,218,83,119,85,577,44739
-383,-98,85,-69,-106,-102,-459,-124,19,-73,-262,-208,-28,-142,-53,-259,71,137,229,-281,-730,-308,45,293,-352,-566,247,135,166,119,580,44740
-346,-89,70,-52,-89,-91,-406,-100,-8,-7,-47,-138,68,-73,-69,-246,69,116,254,-260,-713,-279,51,263,-302,-569,231,142,174,117,511,44741
-284,-74,48,-49,-65,-78,-317,-118,27,-105,-95,-90,-223,-106,-59,-210,36,84,187,-225,-619,-251,24,202,-256,-473,171,90,134,75,367,44742
-72,-19,0,-20,-6,-23,-79,57,32,-73,-17,-26,-61,-88,-76,-57,-7,19,51,-77,-232,-87,-22,56,-91,16,24,12,43,-16,-18,44743
51,-6,-9,-4,19,10,30,190,-49,-61,76,-29,88,89,-32,34,-25,-2,-39,10,14,-4,-30,-34,-13,350,-60,-33,-22,-83,-137,44744
271,38,-25,29,65,53,260,299,-63,70,230,125,126,192,15,212,-33,-36,-170,173,450,164,-24,-164,153,924,-198,-100,-115,-165,-415,44745
345,69,-19,48,83,70,357,137,-4,0,201,234,209,193,21,306,-28,-20,-219,232,641,223,-36,-203,198,1200,-202,-108,-143,-185,-400,44746
-193,-43,61,-29,-52,-58,-234,-359,104,-29,-240,-97,257,-152,-39,-142,4,63,37,-195,-368,-201,-22,103,-250,-119,106,27,23,-8,345,44747
-299,-71,59,-45,-70,-78,-365,-328,73,-61,-382,-174,-36,-197,-53,-267,1,45,106,-290,-636,-296,-20,164,-320,-513,145,48,72,39,360,44748
-259,-44,47,-48,-58,-61,-341,-159,-7,-85,55,32,98,-236,-52,-191,40,78,161,-223,-556,-225,38,199,-222,-449,165,92,117,79,360,44749
-218,-51,36,-55,-50,-58,-328,-173,24,5,9,0,62,-293,-40,-152,59,82,176,-173,-490,-177,47,200,-170,-365,151,104,132,87,300,44750
-229,-63,34,-51,-57,-52,-360,-118,36,2,-294,-41,33,-116,-61,-188,17,48,123,-208,-552,-213,9,166,-200,-425,130,66,96,68,296,44751
-242,-73,35,-50,-57,-57,-351,-170,70,46,-329,-107,125,-20,2,-216,8,50,112,-227,-609,-231,-14,178,-218,-529,140,61,91,73,303,44752
39,-6,-29,3,5,-1,40,-18,-63,83,-68,26,-72,120,44,20,5,1,0,16,-56,18,-6,26,52,174,-23,9,22,-5,-170,44753
404,94,-78,72,107,86,505,128,-201,-29,87,257,-176,237,89,326,-36,-86,-214,295,703,292,-17,-222,313,1214,-256,-121,-137,-178,-623,44754
308,69,-55,35,82,70,380,23,-69,-14,95,228,-109,244,39,266,-65,-81,-210,217,594,199,-42,-213,194,1115,-226,-124,-155,-198,-461,44755
88,-2,-17,-13,16,31,90,1,67,-88,-9,-52,126,-57,-76,90,-34,-25,-114,44,188,20,-45,-86,4,569,-97,-64,-78,-117,-74,44756
-184,-51,27,-37,-51,-40,-198,-156,22,-139,-394,-144,0,-204,-106,-130,3,44,42,-153,-349,-173,-22,99,-205,-143,82,24,39,-4,270,44757
-229,-55,33,-40,-62,-56,-246,-179,-118,-144,-100,-54,-110,-314,-143,-176,8,36,98,-183,-462,-201,7,132,-218,-338,107,54,78,30,280,44758
-196,-60,17,-35,-51,-56,-207,-16,36,-46,-87,-63,-57,-114,-86,-161,10,16,90,-156,-426,-170,6,105,-187,-299,90,43,76,16,234,44759
-140,-32,14,-6,-28,-37,-144,-103,222,-162,-153,-27,-176,-33,5,-109,34,40,111,-101,-336,-107,27,115,-116,-209,92,59,94,37,184,44760
-158,-33,25,-11,-24,-28,-164,-58,68,-156,-362,-1,42,14,-13,-93,73,79,172,-95,-359,-96,67,175,-96,-272,136,105,141,79,229,44761
-148,-44,24,-18,-18,-19,-179,76,58,-28,-195,-45,69,-41,-90,-144,13,11,85,-123,-373,-143,7,104,-136,-310,80,38,74,17,112,44762
-153,-52,38,-24,-18,-8,-202,67,88,-50,-128,-148,135,-190,-102,-180,-23,-22,46,-150,-408,-172,-13,60,-161,-342,46,4,36,-12,150,44763
-322,-98,54,-51,-70,-67,-362,-275,288,-29,-230,-204,65,-327,-81,-303,8,20,155,-264,-721,-286,4,176,-276,-777,153,79,110,63,387,44764
-459,-97,81,-23,-93,-89,-494,-432,166,98,-192,-177,157,-237,-28,-374,95,119,329,-325,-996,-342,92,362,-321,-1218,327,199,253,198,669,44765
-391,-88,59,4,-62,-60,-443,-309,153,11,-220,-132,190,-163,-42,-338,120,133,354,-269,-957,-280,131,372,-242,-1204,327,223,280,220,542,44766
-48,-14,17,41,17,20,-84,96,109,84,75,7,199,96,1,-99,44,17,120,-44,-348,-43,74,112,10,-373,65,75,117,66,-52,44767
-5,-3,2,31,15,3,-12,132,74,176,71,163,89,121,66,-67,-16,-48,-8,-29,-219,-27,7,5,0,-149,-18,-7,20,-12,-109,44768
-106,-21,1,24,-13,-36,-82,21,76,128,-252,66,63,-174,11,-140,-28,-48,20,-115,-396,-110,-17,35,-89,-343,18,-5,25,-3,55,44769
-139,-38,1,10,-20,-41,-114,119,-27,57,-118,33,-33,-111,-14,-183,-36,-43,32,-157,-484,-144,-11,61,-132,-425,31,-5,27,-9,119,44770
-60,-17,-22,10,-10,-19,-11,42,-28,79,-127,-8,-36,159,-26,-91,4,-19,46,-57,-332,-53,50,61,-32,-224,24,22,63,6,37,44771
-118,-25,2,17,-26,-21,-73,-38,97,27,-99,-36,64,215,-30,-128,27,18,102,-78,-443,-85,71,128,-61,-380,98,69,102,66,181,44772
-204,-40,36,11,-34,-38,-185,-101,123,50,-119,-68,28,42,-21,-190,33,34,148,-138,-599,-147,45,185,-128,-611,161,101,132,111,318,44773
-273,-68,26,-24,-52,-45,-276,-282,72,-30,-157,24,24,28,14,-216,76,65,226,-156,-690,-165,97,248,-129,-785,219,148,187,168,367,44774
-196,-42,16,-10,-29,-25,-195,-250,69,-16,-244,80,28,81,-24,-173,51,37,163,-105,-556,-113,77,182,-85,-629,154,101,141,121,239,44775
-226,-47,4,3,-45,-54,-207,-141,48,-39,-277,29,89,114,-69,-210,28,21,127,-137,-588,-150,32,158,-119,-702,140,83,124,93,204,44776
-83,-27,-33,12,-16,-30,-46,192,-70,-101,-289,150,-169,235,-8,-101,-9,-36,21,-48,-283,-47,13,21,-11,-329,18,11,32,-1,-19,44777
3,-7,-35,15,14,7,37,111,-96,-56,-40,54,-284,232,1,-26,-12,-46,-15,12,-95,16,26,-16,49,-93,-24,3,-2,-30,-72,44778
4,18,3,32,32,33,19,76,-105,54,101,-42,164,179,-70,-24,33,3,42,22,-101,22,51,42,48,-119,36,56,50,14,16,44779
-27,-11,-18,6,7,7,-20,56,19,31,26,5,-9,135,-89,-71,-3,-30,2,-12,-146,-14,14,2,-1,-159,10,16,20,-16,1,44780
-43,-22,-2,1,-16,-10,-25,169,-19,26,-138,62,-37,-60,-43,-77,2,-26,23,-32,-162,-24,37,10,-22,-201,19,13,21,-12,6,44781
-44,-5,15,25,-8,-9,-12,33,120,45,4,59,483,-87,20,-73,34,16,80,-12,-167,-9,67,61,-11,-211,66,68,55,33,77,44782
-234,-61,34,-19,-64,-63,-222,-269,59,106,-108,-10,229,-51,4,-186,67,66,176,-141,-510,-134,76,183,-142,-660,193,133,130,116,407,44783
-436,-102,50,-40,-110,-109,-453,-344,-41,66,-286,-59,-4,-102,-76,-336,123,146,336,-263,-936,-267,131,357,-259,-1261,356,238,260,246,701,44784
-533,-132,55,-50,-133,-117,-579,-394,76,70,-481,-125,-47,-407,-18,-433,134,142,412,-338,-1167,-345,138,409,-314,-1607,386,269,307,279,773,44785
-382,-108,52,-22,-72,-44,-449,-276,143,-18,-493,-174,-110,-289,-18,-362,89,70,324,-259,-971,-259,109,305,-221,-1371,268,192,235,212,488,44786
18,-8,-4,32,40,54,19,-40,68,48,46,-80,-104,-8,-47,-63,16,-38,65,36,-227,32,54,29,81,-360,5,33,61,37,-132,44787
79,15,-17,43,53,72,103,125,-64,-56,104,14,-114,-47,32,6,-16,-58,-12,70,-64,78,24,-42,106,-86,-47,-5,3,-17,-168,44788
12,-8,-25,31,22,26,62,20,43,33,-65,6,-78,-29,57,-25,-8,-39,26,33,-158,49,37,8,70,-166,3,22,28,14,-62,44789
-17,-14,-27,23,-1,-16,50,-62,137,141,2,39,86,31,53,-41,-1,-18,27,33,-202,36,44,24,51,-183,34,41,37,27,8,44790
-23,-8,-11,20,6,-9,33,31,24,75,485,45,91,22,73,-46,17,0,34,16,-217,35,53,48,49,-201,41,40,44,44,-5,44791
-38,-33,-27,-6,-8,-7,5,25,151,-71,239,67,-206,-33,-8,-61,-5,-10,25,-4,-236,6,26,27,29,-214,17,15,31,14,-2,44792
-277,-88,15,-44,-72,-59,-286,-138,165,-158,-179,-222,-1,-21,-70,-274,3,18,120,-206,-700,-205,35,135,-190,-826,139,66,88,78,405,44793
-722,-184,82,-101,-175,-169,-796,-550,242,-93,-422,-362,-85,-370,-198,-635,79,130,410,-532,-1593,-533,110,452,-517,-2093,446,237,295,281,1020,44794
-739,-187,72,-89,-168,-177,-784,-275,249,-11,-580,-246,-112,-376,-115,-604,155,186,534,-474,-1639,-482,193,537,-421,-2284,523,335,398,383,991,44795
-494,-109,31,-21,-102,-100,-485,-200,244,192,-311,-114,-61,-121,-4,-386,164,161,465,-253,-1178,-256,203,444,-167,-1762,423,320,369,344,621,44796
4,-9,-53,39,18,16,63,85,55,85,-69,113,-326,160,62,-22,53,3,159,87,-200,97,113,82,204,-492,73,120,137,104,-183,44797
139,25,-47,37,61,67,182,186,-60,11,7,101,-459,337,49,71,25,-9,49,171,84,179,82,-21,239,-74,-17,50,49,18,-271,44798
143,35,-32,35,61,67,174,41,-140,69,32,201,-81,239,126,82,38,4,-3,171,131,180,87,-29,214,13,-20,31,28,12,-177,44799
104,11,-44,23,30,49,139,-64,-75,150,-118,95,-101,147,23,39,-4,-43,-72,116,96,120,19,-84,154,-9,-69,-22,-19,-37,-172,44800
100,7,-29,30,33,47,115,62,-22,175,-172,92,157,101,39,3,-56,-87,-108,68,73,76,-32,-113,103,-22,-96,-64,-59,-67,-201,44801
95,-7,-33,28,25,30,77,60,-58,172,7,-26,259,84,43,-26,-81,-90,-132,43,48,54,-55,-132,64,-37,-109,-91,-89,-85,-194,44802
-170,-57,-7,-6,-55,-46,-204,-174,22,86,-186,-151,91,-245,6,-221,-31,-12,30,-143,-436,-149,-9,51,-148,-682,71,20,20,23,249,44803
-481,-105,35,-31,-123,-114,-498,-236,148,25,-192,-229,12,-275,-8,-422,73,104,309,-331,-1037,-322,107,325,-316,-1516,331,206,228,216,698,44804
-712,-158,63,-63,-175,-170,-729,-262,124,18,-275,-317,50,-262,-114,-585,128,169,497,-470,-1492,-458,150,499,-422,-2181,496,311,352,343,949,44805
-677,-151,42,-52,-157,-154,-678,-263,138,81,-334,-180,13,-200,-119,-542,169,193,541,-396,-1464,-395,199,523,-316,-2209,498,340,405,396,778,44806
87,21,-67,63,51,46,171,207,-36,8,227,255,-84,325,33,47,81,28,104,190,-38,190,132,48,299,-319,24,90,129,110,-277,44807
246,43,-61,58,98,104,304,290,-72,-136,203,137,38,66,24,136,-4,-59,-112,238,270,241,28,-143,306,182,-146,-47,-48,-58,-412,44808
198,32,-26,48,90,105,226,154,-67,-68,60,5,-132,18,56,73,-19,-67,-99,163,161,182,13,-121,213,99,-117,-43,-66,-69,-304,44809
171,20,-42,36,56,83,224,59,-109,39,53,174,-63,78,75,88,-13,-56,-80,159,169,181,25,-113,202,127,-92,-32,-59,-51,-269,44810
158,14,-54,15,43,71,219,190,-114,-26,271,158,60,-154,93,78,-49,-75,-121,142,170,151,-20,-141,167,169,-128,-66,-83,-90,-291,44811
92,7,-40,12,24,46,143,182,-145,-23,116,53,128,-210,51,19,-54,-72,-97,73,57,90,-34,-109,95,32,-91,-57,-65,-75,-179,44812
-525,-126,75,-65,-124,-103,-556,-312,66,-120,-87,-237,124,-425,-107,-455,49,98,271,-367,-1115,-371,68,305,-379,-1530,327,166,189,194,838,44813
-1053,-242,160,-115,-248,-214,-1145,-668,289,27,-495,-427,33,-520,-193,-874,180,265,692,-715,-2217,-721,191,738,-701,-3105,730,416,495,496,1541,44814
-959,-233,124,-89,-209,-181,-1028,-655,246,-44,-584,-403,-134,-249,-178,-816,190,232,701,-639,-2128,-626,220,711,-553,-3109,680,416,516,503,1248,44815
-620,-169,56,-43,-116,-92,-643,-477,149,39,-465,-11,-170,-86,-160,-558,146,132,517,-377,-1497,-362,190,486,-251,-2347,444,316,389,382,654,44816
129,5,-56,69,81,98,177,253,-27,46,281,248,-296,259,51,20,36,-43,53,163,-65,185,104,-4,310,-452,-40,54,73,73,-422,44817
270,41,-81,76,93,93,316,431,-158,70,341,165,-473,207,90,114,-41,-90,-136,213,264,241,19,-164,324,53,-177,-68,-73,-69,-534,44818
237,52,-62,75,86,81,282,228,-88,-31,247,240,4,170,95,88,-55,-93,-141,178,247,189,-17,-158,254,56,-163,-78,-91,-87,-477,44819
203,49,-66,52,76,74,266,160,-154,9,206,151,114,157,6,62,-80,-105,-161,147,257,154,-44,-181,203,86,-166,-103,-127,-107,-414,44820
181,39,-64,44,60,59,239,128,-93,192,197,115,-167,31,36,63,-63,-80,-162,143,247,154,-32,-157,179,80,-134,-91,-116,-91,-311,44821
159,40,-55,42,38,54,214,51,47,144,173,197,-191,63,87,102,7,-16,-82,172,247,178,32,-73,205,83,-67,-23,-41,-23,-211,44822
-69,-11,-28,13,-11,-6,-32,6,-60,25,-163,93,-118,-17,36,-64,46,50,65,9,-157,17,74,86,33,-449,84,75,55,72,173,44823
-186,-41,5,-5,-30,-22,-183,-235,-20,48,-280,-20,-82,-142,-30,-188,39,57,148,-105,-450,-90,73,164,-72,-845,161,109,102,118,301,44824
-295,-59,22,-34,-48,-22,-288,-147,26,-153,-375,-72,-233,-37,-97,-284,42,67,195,-183,-666,-175,74,197,-142,-1129,206,118,139,148,379,44825
-362,-81,-9,-39,-92,-65,-319,-96,-19,-49,-43,-84,-80,153,-76,-311,64,68,243,-197,-759,-192,97,234,-144,-1282,232,148,180,187,350,44826
37,7,-67,23,6,21,136,164,-254,-71,230,143,-235,287,32,42,56,21,81,122,-4,146,102,38,205,-292,34,77,79,75,-159,44827
166,21,-74,28,45,62,259,20,-286,-60,192,196,-108,319,39,143,30,-4,-23,217,253,235,54,-53,274,94,-60,16,9,6,-296,44828
168,12,-37,19,61,97,232,160,-78,-102,472,76,21,291,-24,105,0,-15,-78,192,219,202,15,-87,218,96,-87,-29,-31,-27,-239,44829
171,21,-33,22,71,105,221,34,33,-228,250,10,53,212,-13,95,-19,-27,-99,177,216,186,-10,-103,201,118,-107,-42,-48,-53,-258,44830
193,33,-28,41,66,99,242,24,-72,-126,365,8,-97,82,-26,116,-12,-22,-95,197,269,203,0,-110,207,202,-114,-40,-50,-61,-274,44831
223,44,-40,27,69,93,271,27,-137,-121,332,-59,-174,115,-32,160,-9,-36,-107,236,370,239,17,-138,238,357,-136,-51,-67,-78,-323,44832
-68,-28,-6,-25,-6,12,-58,-209,-5,-136,-77,-121,-4,-111,-96,-68,15,29,43,7,-159,16,41,42,-7,-322,41,27,18,20,158,44833
-389,-115,33,-60,-97,-64,-422,-248,154,-11,-242,-258,-57,-238,-111,-342,45,95,219,-250,-809,-238,47,241,-244,-1224,231,125,151,158,548,44834
-304,-79,34,-17,-63,-35,-328,81,83,107,-258,-181,-119,-173,-84,-278,71,102,235,-164,-688,-150,79,248,-129,-1142,228,153,185,188,414,44835
-32,-10,-8,19,2,13,-11,144,-115,93,40,-3,-91,-5,50,-77,10,2,55,27,-166,50,33,52,84,-448,36,36,62,65,-72,44836
165,25,-46,43,48,40,211,60,71,120,474,20,160,74,89,94,-6,-28,-39,181,259,199,21,-71,236,108,-69,-14,-22,7,-286,44837
169,32,-63,39,43,38,237,137,110,63,221,182,127,226,87,112,-5,-26,-68,185,325,205,0,-84,222,210,-78,-34,-45,-5,-259,44838
205,33,-70,35,44,54,280,98,-26,4,183,185,0,35,81,134,-51,-58,-127,200,441,220,-27,-143,231,383,-140,-82,-96,-50,-379,44839
287,57,-44,40,80,86,335,116,-115,132,211,75,39,112,68,198,-42,-54,-156,247,600,265,-23,-168,277,602,-162,-91,-119,-70,-430,44840
248,50,-60,28,64,52,295,175,-110,123,333,77,98,123,77,166,-70,-72,-191,212,555,213,-57,-188,217,586,-180,-120,-155,-86,-384,44841
226,42,-94,20,32,16,310,252,-35,-58,182,221,-85,150,55,201,-37,-40,-160,240,592,237,-28,-164,243,660,-151,-86,-126,-53,-321,44842
135,34,-69,11,15,-8,216,93,-37,9,73,182,-134,184,45,132,-17,-9,-108,161,429,166,-18,-95,166,447,-80,-52,-88,-16,-191,44843
127,41,-42,26,38,25,170,9,-82,-50,58,68,103,180,55,121,19,15,-52,162,377,169,12,-52,156,381,-47,-24,-44,19,-135,44844
148,29,-26,6,45,49,167,46,10,-9,23,42,-107,142,85,105,-15,-16,-81,161,371,162,-13,-87,149,429,-85,-49,-72,-8,-179,44845
110,12,-31,-6,19,22,144,-35,23,140,139,130,-300,251,41,81,-36,-28,-89,133,318,134,-42,-86,121,383,-75,-54,-70,-14,-149,44846
126,14,-45,-1,20,13,181,189,-124,49,87,68,-283,156,61,113,-27,-32,-101,159,385,158,-47,-108,141,485,-86,-59,-77,-27,-184,44847
147,14,-47,2,19,14,190,122,-78,104,18,-11,-24,63,22,131,-16,-17,-94,178,416,174,-31,-115,157,520,-100,-60,-76,-34,-230,44848
226,50,-40,17,42,47,251,90,-77,32,41,57,148,46,60,191,-26,-20,-131,246,559,227,-32,-147,203,718,-147,-85,-105,-66,-328,44849
251,56,-38,17,51,64,271,177,-73,-62,149,-32,71,125,16,199,-36,-45,-148,266,615,242,-65,-155,225,810,-156,-102,-105,-67,-381,44850
238,43,-43,0,46,54,241,15,-109,-208,33,4,50,-2,-6,168,-89,-89,-222,231,599,193,-134,-221,163,819,-205,-171,-179,-123,-368,44851
247,53,-42,7,67,48,267,67,-156,-133,69,35,-137,64,16,208,-44,-50,-195,262,639,231,-79,-190,202,883,-176,-135,-151,-94,-326,44852
184,56,-42,5,34,18,227,124,-86,32,29,108,-55,93,36,225,47,44,-61,262,574,252,15,-61,212,793,-61,-17,-34,-1,-136,44853
-55,11,4,6,-38,-41,-7,33,-59,-20,95,-27,123,-114,21,42,73,103,88,86,107,78,22,98,28,171,109,73,67,113,205,44854
-132,-28,5,-13,-53,-48,-130,-109,-181,-30,50,-98,-67,-160,-65,-58,44,69,97,-15,-98,-16,-3,101,-34,-87,112,52,66,117,202,44855
-28,-12,-1,-14,-10,12,-76,-52,-74,-48,67,-83,-20,-33,25,-10,2,5,48,23,52,32,-10,27,30,116,27,6,24,63,0,44856
198,29,-28,5,52,74,126,100,-81,138,449,27,52,-36,6,155,-40,-46,-97,191,461,175,-56,-122,172,664,-120,-77,-77,-23,-297,44857
250,41,-35,3,54,68,178,169,34,144,388,151,200,-88,19,215,-38,-36,-165,238,605,227,-76,-157,211,873,-152,-104,-110,-47,-329,44858
198,31,-39,-1,23,40,191,260,-18,-64,198,97,-30,-11,44,210,-34,-15,-132,209,579,217,-55,-117,187,832,-114,-85,-87,-22,-243,44859
169,31,-47,10,20,20,220,153,-59,9,80,11,-83,-4,70,209,-1,22,-79,198,547,207,-29,-70,185,789,-65,-47,-51,18,-189,44860
189,47,-50,20,52,26,272,112,-92,-224,317,12,-283,35,43,211,-4,14,-96,224,602,219,-30,-80,195,868,-93,-49,-58,-4,-189,44861
161,38,-39,-3,36,40,224,25,-39,-182,230,-76,-307,-34,-44,173,-35,-31,-129,171,545,172,-52,-126,144,823,-125,-95,-99,-40,-183,44862
105,34,-11,4,30,47,144,-28,45,-136,133,-75,-64,154,-26,111,-35,-22,-93,123,419,115,-69,-86,88,668,-81,-86,-83,-20,-128,44863
44,-1,-11,-13,3,11,77,115,-44,-32,86,-66,-58,-89,-15,59,-41,-22,-69,72,312,56,-83,-62,42,525,-59,-78,-68,-12,-109,44864
31,15,1,5,9,-1,67,159,-17,-27,66,-93,34,-52,-36,56,-30,-9,-41,59,282,66,-46,-30,30,472,-29,-53,-37,15,-64,44865
-9,0,2,3,-9,-19,23,-65,-90,-46,52,-46,31,-107,7,18,-19,14,17,46,190,46,-40,22,17,346,20,-13,8,61,24,44866
168,37,-40,41,34,25,214,58,-12,1,139,76,152,128,102,161,-37,-31,-87,190,519,194,-63,-98,168,805,-103,-75,-65,4,-290,44867
174,36,-42,15,25,6,214,165,24,157,252,89,24,269,57,176,-46,-37,-121,193,537,181,-63,-114,154,859,-111,-94,-96,-23,-258,44868
165,35,-49,8,21,4,197,146,-117,104,313,165,89,101,16,177,-41,-36,-139,190,538,166,-71,-137,139,887,-131,-104,-110,-50,-276,44869
216,58,-20,26,50,46,236,99,-80,-118,177,182,-13,-40,-1,215,-32,-32,-159,207,608,191,-63,-156,163,975,-154,-114,-114,-68,-311,44870
239,66,-30,19,43,53,283,-8,-12,-77,-20,111,-41,116,-1,265,-12,-10,-147,258,677,233,-34,-151,191,1071,-138,-94,-93,-57,-257,44871
224,75,-29,23,36,36,279,25,-98,86,82,24,28,134,7,271,27,22,-99,260,664,236,1,-102,194,1078,-84,-55,-69,-25,-182,44872
-451,-91,65,-77,-136,-122,-465,-396,-73,140,-563,-220,-75,-255,-99,-265,96,162,255,-266,-634,-298,50,308,-354,-635,321,150,160,201,841,44873
-1159,-258,171,-153,-295,-259,-1272,-664,118,24,-1208,-408,83,-494,-219,-859,198,314,732,-788,-2105,-815,138,811,-840,-2702,776,430,511,529,1711,44874
-1100,-260,160,-111,-275,-229,-1225,-724,213,26,-796,-393,310,-460,-182,-912,156,245,742,-790,-2193,-804,122,773,-758,-2920,713,411,524,529,1460,44875
-674,-172,94,-43,-151,-130,-738,-363,111,-101,-73,-286,140,-241,-73,-625,105,138,520,-480,-1489,-481,100,502,-395,-2054,448,272,376,386,757,44876
226,35,-40,79,89,87,294,231,-132,-125,644,127,-45,264,101,112,3,-61,-11,198,250,225,10,-78,314,270,-112,-31,26,41,-562,44877
441,90,-75,84,130,121,539,236,-95,8,285,218,111,258,78,316,-55,-119,-231,339,797,356,-48,-276,414,1062,-291,-147,-152,-118,-683,44878
369,86,-72,63,106,96,459,140,-11,1,123,87,199,250,30,291,-50,-87,-223,291,743,308,-51,-234,336,1043,-248,-129,-153,-110,-515,44879
282,68,-57,41,70,62,347,124,-89,-55,267,160,-64,224,81,267,-5,-19,-131,259,633,272,-1,-142,274,919,-148,-62,-89,-39,-329,44880
298,85,-41,47,83,63,380,251,-136,-40,260,181,-208,278,75,319,37,13,-104,319,752,332,29,-110,322,1078,-125,-36,-61,-5,-345,44881
248,79,-34,25,63,40,333,44,-197,-106,-61,133,74,236,62,279,4,-5,-100,277,699,292,-12,-106,267,1037,-107,-43,-71,0,-256,44882
-202,-37,30,-47,-59,-61,-200,-243,-15,-145,-144,-102,-126,-71,-84,-103,20,59,103,-92,-181,-93,-6,127,-125,-96,141,57,46,120,412,44883
-657,-163,105,-99,-174,-142,-751,-450,108,-204,-459,-300,51,-297,-222,-500,100,168,406,-437,-1160,-455,65,447,-465,-1456,432,222,273,328,990,44884
-692,-191,87,-89,-182,-149,-798,-409,105,-184,-773,-295,90,-634,-221,-551,113,165,468,-453,-1321,-474,106,492,-443,-1753,461,263,343,375,921,44885
-366,-107,61,-35,-79,-58,-437,-165,-68,-122,-420,-75,-66,-386,-98,-317,77,93,329,-205,-773,-219,81,321,-162,-1082,286,187,260,288,401,44886
212,36,-39,34,65,58,212,18,-96,143,213,55,-17,120,55,122,-50,-94,-87,183,333,184,-41,-119,256,424,-139,-71,-39,-1,-487,44887
327,83,-51,64,86,80,361,210,-14,252,291,152,13,93,77,232,-74,-98,-193,252,621,259,-42,-211,293,849,-217,-121,-129,-97,-483,44888
276,70,-64,45,49,38,325,151,-50,105,-49,240,1,65,59,224,-52,-76,-170,244,615,235,-25,-189,250,868,-186,-113,-116,-90,-393,44889
245,69,-40,45,51,33,251,139,-43,24,254,101,84,83,65,199,-18,-26,-141,222,542,204,-13,-132,202,791,-128,-75,-84,-56,-254,44890
191,50,-29,35,44,16,190,229,16,65,297,56,-6,110,17,185,2,2,-67,193,473,175,10,-86,186,695,-81,-24,-42,-7,-173,44891
189,56,-6,37,45,41,209,45,-39,14,294,155,189,-4,46,161,-28,-26,-91,151,445,146,-36,-106,154,681,-105,-53,-69,-32,-163,44892
88,16,-7,3,5,22,83,29,-16,87,95,75,-27,9,24,47,-73,-58,-136,22,246,29,-98,-122,17,435,-111,-103,-105,-78,-96,44893
-97,-26,17,-27,-34,-23,-117,-4,19,-65,-153,107,-25,-45,29,-80,-10,8,14,-73,-93,-86,-27,17,-90,-21,26,-5,-10,20,150,44894
39,15,-16,3,3,8,68,-136,2,-117,205,246,104,-49,135,53,4,-6,-5,78,174,57,5,-24,57,318,-29,-6,5,18,-22,44895
232,73,-37,44,66,54,286,182,-37,121,243,110,67,135,90,196,-20,-30,-121,201,513,198,-17,-132,186,792,-130,-69,-74,-46,-238,44896
146,52,-28,23,34,25,199,251,-174,68,-14,-8,-3,82,-16,126,-16,-20,-92,115,356,120,-17,-100,109,631,-97,-54,-67,-46,-143,44897
167,52,-8,30,49,53,206,113,-60,-62,-18,-9,79,22,-14,137,-12,-32,-87,119,368,125,-20,-110,114,659,-101,-56,-69,-49,-156,44898
162,37,-15,11,40,52,178,111,-53,-99,85,-16,-150,14,-22,136,-15,-32,-111,119,369,117,-30,-127,105,670,-106,-74,-86,-59,-132,44899
120,30,-8,10,26,35,105,33,-70,-73,-7,124,-145,8,50,101,8,-8,-68,90,274,93,-13,-67,76,552,-65,-40,-51,-28,-22,44900
68,19,-4,-9,0,21,41,-35,85,-80,-102,-20,-106,5,36,71,10,1,-32,44,177,52,-22,-39,35,445,-33,-25,-27,-8,-21,44901
74,11,6,-7,10,27,37,-32,-133,34,-45,-43,-113,126,-33,65,-8,-9,-46,29,162,43,-36,-56,19,423,-41,-34,-31,-28,-38,44902
398,83,-41,37,88,103,381,281,-118,35,351,257,122,190,70,308,-54,-92,-240,271,772,285,-66,-267,267,1244,-260,-144,-156,-146,-555,44903
626,142,-97,59,137,131,679,584,-107,94,605,238,-186,263,182,495,-124,-174,-464,431,1283,442,-136,-493,398,1996,-463,-282,-318,-298,-871,44904
792,191,-130,89,156,137,874,418,-179,237,707,245,25,421,140,637,-148,-222,-598,533,1652,543,-193,-621,479,2547,-576,-357,-428,-396,-1076,44905
903,226,-116,95,197,173,969,528,-155,145,547,307,28,160,138,724,-189,-250,-694,588,1909,586,-229,-715,504,2957,-665,-422,-532,-496,-1089,44906
110,31,15,-44,-14,-6,59,-105,142,26,-111,-13,185,-380,-25,104,-95,-57,-243,-3,442,-22,-152,-211,-142,1019,-171,-169,-234,-203,90,44907
-99,-3,58,-41,-43,-30,-166,-149,132,-121,-282,-141,83,-377,-25,-41,-5,36,-6,-98,19,-123,-61,20,-205,365,45,-23,-44,-15,339,44908
-113,-8,48,-32,-46,-37,-178,-116,62,-5,-302,-149,-123,-184,-32,-52,26,55,40,-104,-53,-122,-26,56,-183,226,82,21,11,40,287,44909
-13,12,26,-10,-14,-28,-59,163,-11,148,-29,-57,-48,-138,-15,38,22,35,30,-25,124,-30,0,20,-71,428,42,19,0,27,149,44910
-67,-2,36,-20,-23,-40,-93,78,38,107,-39,20,-5,144,-41,13,40,56,83,-37,53,-45,15,77,-81,313,79,48,36,70,257,44911
-94,-12,14,-19,-51,-67,-117,149,-2,61,-254,33,3,76,-99,-25,17,31,57,-66,-11,-83,-23,60,-115,208,62,19,29,53,170,44912
525,138,-65,84,118,90,581,509,-87,-14,258,211,14,253,64,438,-84,-132,-303,378,1122,366,-94,-344,364,1734,-333,-187,-208,-179,-834,44913
1118,274,-183,111,256,205,1257,560,-197,-126,819,319,11,397,184,929,-188,-280,-736,809,2370,805,-185,-796,767,3516,-756,-441,-522,-493,-1612,44914
1014,264,-135,81,229,192,1144,447,-178,-192,670,213,259,465,199,884,-174,-226,-724,730,2275,717,-196,-753,618,3514,-673,-430,-529,-494,-1273,44915
606,155,-38,8,126,121,655,200,-90,-165,340,190,518,171,76,551,-143,-148,-538,384,1501,368,-201,-527,228,2559,-453,-335,-422,-385,-604,44916
-84,1,81,-71,-48,-27,-126,-215,19,-209,-477,-101,297,-198,-83,-10,-46,13,-134,-136,127,-153,-125,-54,-305,737,-24,-97,-128,-114,368,44917
-238,-64,84,-79,-91,-67,-308,-180,51,-173,-482,-330,37,-346,-131,-160,-20,35,30,-234,-274,-262,-76,72,-358,167,91,-13,-18,-10,435,44918
-223,-53,55,-80,-89,-88,-289,-88,151,-21,-357,-291,90,-308,-122,-154,-3,23,58,-216,-303,-248,-63,72,-306,82,86,8,7,15,356,44919
-193,-41,45,-57,-82,-85,-239,-54,186,-53,44,7,222,-67,-40,-123,-1,26,76,-172,-277,-200,-43,71,-241,98,76,24,36,23,277,44920
-146,-24,49,-27,-64,-61,-193,-179,116,98,-103,-14,144,-119,-41,-87,17,44,90,-131,-242,-153,-27,80,-190,127,89,35,57,43,241,44921
-124,-25,43,-23,-46,-43,-189,-180,5,220,-63,-48,162,-65,8,-95,-2,19,57,-144,-231,-155,-36,52,-191,111,52,12,31,14,169,44922
60,4,14,-5,3,0,24,15,-51,16,90,19,-199,-113,40,80,-3,-7,-13,31,151,24,-15,-48,-6,599,-58,-28,-9,-43,-94,44923
215,37,-10,3,37,34,219,116,21,134,204,117,18,-7,-2,204,-53,-57,-140,137,478,136,-64,-178,94,1064,-167,-102,-117,-128,-265,44924
64,18,22,-12,7,8,39,-213,16,68,166,5,41,59,-36,86,-19,-10,-70,10,178,-3,-55,-76,-64,669,-48,-54,-65,-63,36,44925
-156,-24,64,-31,-42,-27,-215,-85,36,15,51,-173,200,-218,-42,-103,24,40,64,-182,-274,-181,-13,65,-235,61,81,28,21,17,338,44926
-173,-44,49,-47,-52,-39,-242,-1,11,-41,-52,-147,339,-233,-41,-143,8,21,74,-197,-339,-206,-1,63,-236,-81,58,29,38,11,256,44927
-178,-34,37,-44,-47,-45,-213,-36,4,-57,103,-77,69,-110,-30,-113,45,56,116,-166,-316,-164,22,117,-193,-87,117,75,85,69,304,44928
-194,-39,45,-32,-57,-54,-224,-33,183,-75,436,-189,-113,-8,-1,-125,55,72,150,-191,-360,-171,30,152,-187,-194,153,100,121,109,334,44929
-198,-41,28,-30,-61,-65,-216,-162,184,50,108,-84,-57,34,6,-137,22,38,100,-202,-362,-188,-3,95,-207,-206,103,55,67,67,283,44930
-212,-45,27,-28,-57,-58,-236,-73,138,110,-303,-38,-86,-137,31,-144,58,68,140,-194,-394,-178,44,128,-192,-277,136,91,101,89,331,44931
-150,-32,42,-23,-31,-10,-200,-7,224,41,-274,-37,27,-183,70,-124,21,39,106,-168,-316,-158,19,68,-167,-178,86,66,75,54,198,44932
-415,-102,83,-71,-101,-74,-510,-302,203,-134,-508,-200,75,-246,-33,-352,25,67,225,-380,-841,-383,2,208,-399,-892,224,125,135,121,627,44933
-851,-212,145,-127,-207,-188,-980,-640,215,12,-847,-391,81,-394,-224,-692,109,167,528,-683,-1718,-684,101,524,-686,-2108,509,301,341,318,1216,44934
-941,-228,157,-128,-220,-204,-1068,-414,292,76,-690,-325,136,-314,-173,-762,167,226,656,-722,-1985,-720,169,648,-684,-2541,609,385,448,413,1289,44935
-781,-183,124,-81,-172,-168,-877,-223,253,80,-636,-289,184,-271,-160,-645,183,209,603,-583,-1778,-578,191,583,-514,-2341,527,367,452,396,1008,44936
-121,-27,32,25,14,16,-123,-47,93,59,-327,44,488,110,46,-151,61,15,186,-123,-537,-92,97,127,-12,-710,83,107,162,105,-24,44937
29,6,-3,28,44,55,57,-36,6,1,-102,61,216,53,94,-40,-11,-54,6,-39,-198,-12,35,-44,52,-203,-54,4,17,-22,-183,44938
-13,-13,-19,13,12,7,-5,-12,-78,107,66,14,-125,42,9,-77,-6,-35,14,-57,-260,-50,27,-31,6,-233,-26,16,9,-31,-74,44939
-56,-10,-7,16,0,-7,-61,35,48,-29,-62,-59,-1,55,-69,-95,7,-2,57,-73,-324,-65,46,13,-32,-305,15,42,31,-13,30,44940
-32,-3,-6,18,-3,2,-63,-65,71,-78,-188,14,270,-126,-28,-67,12,0,59,-57,-297,-51,47,15,-16,-279,27,49,46,-6,7,44941
-12,-6,-9,16,9,16,-36,88,124,-35,32,48,-61,-109,55,-70,-3,-21,21,-32,-235,-40,21,-1,-9,-204,1,21,22,-32,-62,44942
-359,-80,54,-38,-80,-73,-405,-175,172,74,-319,-156,36,-249,-47,-333,41,61,189,-298,-877,-305,64,204,-300,-1060,195,121,137,83,534,44943
-846,-195,129,-90,-195,-178,-937,-584,200,5,-748,-276,-72,-200,-168,-694,147,202,534,-633,-1846,-631,158,562,-621,-2407,540,338,382,331,1216,44944
-984,-225,147,-88,-213,-191,-1082,-809,251,-12,-613,-296,130,-93,-140,-807,210,262,726,-708,-2201,-711,219,729,-654,-2967,683,460,520,463,1397,44945
-850,-203,120,-54,-162,-140,-940,-507,273,24,-885,-239,261,-171,-103,-751,172,188,654,-645,-2050,-620,210,631,-528,-2851,579,398,476,412,1033,44946
-107,-39,12,45,35,54,-128,189,-22,-23,-266,121,-141,31,49,-213,47,-5,168,-131,-673,-102,101,117,21,-1070,85,106,153,93,-60,44947
123,2,-57,40,55,64,136,214,-49,-135,134,115,-108,134,50,-7,-12,-81,-52,30,-113,63,39,-92,162,-281,-102,-16,-11,-57,-325,44948
63,9,-50,32,31,16,97,-25,-27,-117,52,47,-205,-14,89,-15,-1,-42,-32,-5,-133,35,36,-49,108,-297,-49,16,9,-38,-138,44949
2,1,-37,24,10,-8,62,-72,46,113,-149,106,-178,217,103,-17,51,10,55,-3,-191,25,66,41,84,-373,36,88,72,31,10,44950
16,-1,-28,38,18,15,58,-5,-20,101,-70,186,-89,196,66,-15,50,10,70,-4,-154,35,85,40,85,-329,34,96,67,28,-63,44951
-48,-28,-19,2,-8,-5,-31,-14,-12,17,-39,131,-112,23,-2,-80,19,-4,30,-52,-248,-19,56,25,12,-451,10,53,33,5,-5,44952
-266,-72,23,-25,-60,-64,-294,-29,84,-33,-59,0,125,-207,-98,-269,29,39,154,-218,-654,-194,60,147,-165,-1004,131,100,99,79,353,44953
-585,-136,83,-42,-139,-114,-661,-344,200,42,-202,-251,111,-313,-143,-536,96,114,390,-454,-1344,-435,122,386,-404,-1945,374,238,262,237,832,44954
-620,-148,73,-33,-133,-113,-694,-289,164,165,-519,-340,-193,-257,-145,-570,107,126,458,-463,-1460,-442,141,442,-384,-2166,413,264,315,285,764,44955
-463,-127,24,-16,-103,-83,-515,-336,84,192,-395,-118,72,-145,-79,-426,99,99,385,-318,-1172,-299,141,351,-210,-1813,317,234,290,244,463,44956
0,-6,-44,51,15,15,17,-172,84,326,220,197,227,-15,70,-47,54,1,114,46,-269,64,110,63,167,-624,49,94,131,88,-104,44957
122,33,-66,64,37,33,172,10,15,248,548,228,138,193,173,53,16,-28,-16,138,25,157,79,-43,220,-188,-53,29,33,-14,-259,44958
136,28,-40,63,56,40,178,125,-66,136,415,205,-60,92,170,50,-9,-48,-56,120,64,145,33,-74,189,-89,-82,-9,-3,-56,-292,44959
141,22,-24,43,67,62,149,307,-107,80,131,110,237,7,53,46,-33,-73,-88,105,71,118,2,-108,158,-35,-102,-38,-42,-82,-252,44960
75,1,-30,4,36,44,31,128,-19,42,15,154,572,64,-35,-15,-46,-81,-86,37,-59,45,-11,-98,78,-168,-92,-44,-46,-93,-130,44961
26,-6,-8,-1,26,42,-69,215,111,-22,171,75,-81,-119,15,-52,-13,-42,-41,-6,-162,4,15,-46,32,-302,-37,-21,-16,-64,-71,44962
-50,-17,19,-2,0,25,-149,45,102,113,-66,27,-45,-186,26,-92,27,14,54,-51,-311,-31,50,50,-17,-521,53,45,58,-1,106,44963
-131,-19,31,-4,-15,4,-180,-202,60,70,-123,112,114,-103,27,-130,59,54,146,-85,-432,-59,97,139,-28,-714,133,115,112,62,225,44964
-251,-56,20,-20,-53,-45,-240,-110,155,-7,-262,131,4,45,15,-211,69,76,211,-160,-631,-132,104,209,-95,-990,181,146,159,110,374,44965
-312,-78,5,-18,-77,-67,-266,-290,196,-112,-250,-140,-101,147,19,-260,85,91,250,-193,-757,-159,119,245,-124,-1189,217,166,193,137,397,44966
-14,6,-25,44,2,25,72,76,71,-73,30,86,-91,195,25,-27,58,23,104,30,-211,75,96,74,121,-469,62,89,109,42,-16,44967
122,20,-45,41,39,48,198,76,-21,-76,-140,159,-53,230,6,42,-11,-49,-34,77,52,122,25,-66,163,-96,-72,-6,-19,-71,-238,44968
110,16,-27,35,56,70,133,257,-6,27,-44,70,-52,138,-86,-5,-33,-62,-68,27,0,70,-2,-82,97,-155,-87,-44,-58,-105,-207,44969
21,-21,-23,-4,21,51,26,99,-62,47,-214,-7,-51,-65,-120,-86,-53,-82,-81,-57,-139,-13,-27,-89,2,-316,-94,-71,-63,-121,-169,44970
47,11,-14,13,16,43,60,-23,13,-44,-511,21,102,19,45,-48,-25,-50,-79,-24,-102,15,-18,-57,35,-269,-57,-40,-41,-95,-122,44971
36,28,-17,26,17,23,81,-13,113,-5,-117,-39,-147,159,93,-7,24,6,6,25,-74,62,39,17,83,-240,21,28,17,-35,-46,44972
-130,-16,19,-4,-16,-7,-96,-216,85,146,-99,-97,-135,54,41,-124,47,42,103,-85,-377,-64,69,116,-57,-629,115,80,76,25,243,44973
-401,-93,58,-40,-83,-48,-453,-260,-21,121,-213,-238,-54,-122,-72,-384,41,76,222,-326,-951,-300,59,267,-292,-1422,248,134,163,104,573,44974
-478,-135,58,-50,-107,-69,-561,-206,0,-31,-321,-316,-273,-248,-171,-461,71,88,292,-393,-1163,-361,76,323,-326,-1745,298,175,211,149,624,44975
-363,-92,37,-11,-76,-55,-389,-215,109,-109,-192,-86,-597,-56,-56,-327,125,115,321,-246,-947,-209,147,329,-147,-1496,296,212,262,184,428,44976
4,-3,-28,44,14,8,49,178,50,77,192,154,-453,158,89,-19,69,38,136,69,-212,83,121,99,161,-532,82,114,134,59,-120,44977
65,15,-46,32,17,9,123,99,-181,43,110,6,-391,228,67,32,30,14,43,90,-57,120,76,21,165,-299,16,57,61,-10,-119,44978
63,9,-31,36,29,35,105,56,-71,-110,42,-31,-122,172,50,7,17,-1,7,58,-71,83,58,10,117,-292,-10,30,31,-36,-94,44979
50,8,-16,16,31,44,81,13,23,-48,-28,-166,-228,4,17,-29,-19,-35,-50,12,-90,42,15,-35,62,-307,-42,-23,-23,-80,-103,44980
53,8,-25,11,26,43,121,135,-20,-37,155,-203,-292,181,26,-5,-20,-46,-69,31,-30,60,25,-56,83,-227,-66,-36,-38,-95,-88,44981
57,21,-12,26,32,31,131,138,56,-81,6,-76,154,181,26,27,27,4,-22,56,-47,70,59,-6,105,-235,-15,17,10,-40,-37,44982
-111,-18,3,5,-11,-21,-45,67,37,-45,-160,-67,265,120,-11,-104,36,43,92,-66,-361,-60,51,111,-28,-648,107,76,77,30,192,44983
-239,-39,29,-7,-51,-45,-226,-136,74,-30,-196,-169,259,-140,-47,-229,63,75,210,-163,-629,-160,68,225,-111,-1057,211,153,159,111,329,44984
-257,-61,29,-17,-49,-30,-297,117,66,99,-81,-94,115,-375,-8,-267,49,61,196,-179,-694,-172,70,220,-117,-1167,194,138,164,111,332,44985
-221,-53,13,-7,-35,-33,-245,-14,90,107,42,41,-62,-87,31,-225,47,58,179,-129,-629,-119,74,193,-72,-1073,181,122,162,128,252,44986
51,17,-53,37,29,13,91,22,31,64,-9,119,-231,230,95,7,18,-3,32,77,-78,101,46,20,156,-347,18,34,56,35,-142,44987
119,19,-59,39,40,34,156,154,-3,152,162,105,-121,370,21,46,-19,-40,-55,91,63,121,16,-65,161,-126,-79,-27,-26,-49,-261,44988
213,43,-45,48,73,67,245,206,31,178,-212,157,96,268,59,119,-36,-61,-118,157,254,186,1,-127,216,169,-143,-63,-78,-99,-366,44989
35,-5,-26,5,12,19,51,-67,-81,18,-118,-69,136,132,3,-26,-19,-22,-29,25,-63,45,20,-26,57,-230,-35,-9,-27,-46,-59,44990
94,23,-23,14,35,32,118,90,-115,20,280,-17,103,-5,25,15,-32,-46,-51,54,26,78,6,-57,100,-106,-63,-33,-40,-60,-154,44991
144,34,-28,27,54,50,184,-28,-62,-35,175,118,-43,137,106,63,-37,-52,-106,88,140,114,-13,-92,135,76,-85,-55,-69,-80,-173,44992
74,16,-31,9,20,23,103,-11,-47,69,284,77,-35,80,93,36,-14,-20,-86,45,30,70,-12,-49,83,-59,-32,-35,-33,-46,-102,44993
74,7,-32,18,11,19,96,196,-114,-9,166,87,-50,149,45,46,-2,-18,-63,68,35,81,-1,-37,97,-70,-33,-14,-14,-28,-94,44994
77,13,-30,17,16,23,88,245,-48,-15,19,30,-140,40,11,28,-11,-37,-68,53,26,61,4,-42,78,-72,-49,-25,-29,-33,-101,44995
99,10,-43,22,15,26,111,18,-67,-76,-52,-99,-347,-27,-28,28,-41,-51,-94,49,75,64,-18,-80,82,3,-75,-55,-60,-64,-176,44996
95,10,-39,26,18,14,104,158,23,20,183,-78,-331,13,5,36,-10,-10,-53,54,73,65,6,-44,85,-18,-38,-29,-34,-34,-141,44997
58,12,-28,23,6,0,78,137,29,37,209,136,-109,58,17,24,9,3,-20,35,10,53,11,-8,66,-93,-4,-6,-10,-14,-19,44998
-2,4,-9,19,-4,0,19,81,40,110,2,127,103,182,34,-27,-1,-4,10,-13,-89,0,18,21,15,-227,21,10,7,-3,25,44999
-18,-1,0,10,0,-1,4,22,17,114,-164,-26,-149,31,50,-55,-12,-4,4,-40,-123,-17,0,28,0,-299,17,0,10,-1,2,45000
6,-18,-15,-7,5,12,39,105,-67,-44,-1,-1,-396,-79,71,-48,-48,-49,-93,-37,-62,-15,-46,-57,-6,-216,-55,-59,-59,-62,-85,45001
14,-12,-15,1,8,9,65,109,-74,0,91,0,-112,64,-30,-16,-29,-32,-64,-20,-42,2,-32,-45,20,-178,-47,-47,-41,-48,-59,45002
136,25,-51,24,40,34,213,79,-104,-22,173,-39,267,235,-10,88,-43,-59,-124,79,201,88,-34,-108,118,143,-114,-72,-77,-81,-262,45003
213,51,-62,45,48,39,280,241,-138,-93,133,56,79,172,107,135,-61,-81,-177,134,365,144,-44,-167,165,379,-162,-111,-120,-128,-345,45004
329,74,-82,43,63,44,400,343,-219,-65,356,32,-41,184,135,252,-74,-106,-243,236,649,259,-59,-240,277,787,-231,-150,-167,-175,-525,45005
402,94,-84,40,89,74,460,420,-163,-3,467,77,-137,300,77,341,-50,-82,-267,318,832,328,-38,-251,331,1055,-242,-143,-169,-171,-532,45006
49,10,-7,-9,9,1,38,-129,-53,-46,103,-133,-82,118,-37,52,-20,0,-82,37,140,40,-16,-32,19,181,-30,-38,-61,-43,-15,45007
-50,-9,42,-7,-1,12,-101,-118,-37,50,-12,-113,192,-75,5,-70,-35,0,-25,-77,-149,-67,-35,9,-80,-193,14,-32,-24,-15,82,45008
-5,-13,0,-13,-8,11,-38,-78,-154,211,68,16,269,24,32,-34,-46,-47,-47,-28,-63,-32,-41,-37,-33,-76,-30,-50,-48,-49,-24,45009
44,-4,-19,4,0,4,33,46,-100,17,17,6,87,-66,35,8,-43,-31,-60,9,15,10,-23,-40,18,21,-44,-47,-49,-54,-94,45010
62,1,-11,13,10,15,45,97,-31,24,240,-104,37,21,-4,-11,-81,-67,-143,-7,7,1,-90,-92,-7,47,-83,-113,-95,-83,-179,45011
46,-16,-23,1,4,1,15,244,-71,132,168,-96,45,169,-119,-25,-59,-71,-121,-18,-30,-18,-73,-82,-22,0,-84,-93,-94,-87,-123,45012
259,43,-62,34,67,60,261,312,-143,79,379,95,-24,207,-23,160,-55,-83,-193,163,386,170,-50,-173,170,537,-188,-121,-130,-135,-435,45013
801,178,-118,105,213,192,865,556,-202,-11,501,377,87,356,119,599,-122,-183,-511,557,1458,571,-129,-517,572,2009,-504,-301,-339,-332,-1164,45014
814,194,-115,86,199,168,909,448,-181,5,428,381,35,333,101,667,-125,-171,-523,580,1624,581,-128,-536,558,2290,-504,-290,-376,-344,-1090,45015
551,129,-79,32,117,94,629,393,-129,2,224,243,-333,201,101,485,-108,-123,-400,388,1223,383,-125,-384,323,1795,-344,-222,-309,-275,-611,45016
-80,-25,-10,-60,-50,-68,-65,11,-42,-159,-106,-173,-588,-105,-17,-26,-36,-8,-105,-77,53,-97,-72,-39,-174,243,-12,-69,-111,-80,237,45017
-187,-36,32,-46,-56,-78,-198,-266,82,-10,-172,-133,-192,-22,-90,-113,34,67,43,-138,-236,-152,0,101,-201,-211,114,19,18,38,332,45018
-159,-45,44,-55,-50,-53,-212,-181,74,37,-264,-70,85,42,-80,-122,18,42,41,-137,-246,-145,-11,89,-180,-270,92,14,24,38,248,45019
-58,-40,16,-40,-35,-23,-99,-150,-16,101,40,-80,-64,-38,5,-47,-17,-6,-25,-83,-78,-73,-58,13,-98,-66,10,-28,-9,-6,76,45020
-105,-29,10,-17,-46,-47,-82,-95,-97,180,-42,-25,-34,-104,42,-73,5,31,56,-84,-140,-78,-18,79,-94,-164,70,24,27,43,143,45021
-105,-22,-5,-5,-54,-63,-63,-86,-72,60,-195,-40,220,-22,-69,-71,16,37,73,-82,-147,-78,3,79,-97,-194,69,32,32,55,130,45022
149,26,-34,22,20,24,202,78,-145,-9,94,-25,180,91,-82,112,-19,-48,-93,94,322,105,-28,-106,98,420,-114,-73,-81,-60,-295,45023
425,75,-87,36,90,86,473,220,-194,16,212,52,23,109,-5,307,-88,-143,-328,274,860,283,-102,-336,268,1178,-332,-228,-240,-220,-652,45024
534,119,-71,42,123,116,579,463,-213,-20,315,121,65,312,89,404,-112,-156,-421,342,1094,353,-120,-414,325,1562,-394,-269,-310,-278,-768,45025
428,90,-73,18,73,61,468,250,-179,28,425,83,74,214,82,347,-116,-135,-378,271,969,268,-132,-364,222,1452,-331,-242,-295,-267,-570,45026
-65,-15,8,-36,-56,-66,-77,-131,37,75,-36,-79,123,-143,-41,-5,-13,23,-38,-53,33,-75,-59,4,-147,224,27,-16,-55,-27,275,45027
-189,-31,38,-39,-61,-80,-213,-160,53,136,-81,-140,-27,-45,-8,-96,61,98,121,-115,-289,-140,7,163,-189,-240,164,85,90,94,394,45028
-141,-35,12,-47,-53,-70,-152,-135,-133,-70,-44,-98,24,37,14,-72,52,76,106,-82,-242,-94,21,127,-127,-191,125,72,76,83,262,45029
-74,-9,19,-19,-20,-38,-77,-19,-70,-258,70,-4,-53,-49,-15,-7,55,71,79,-19,-126,-32,33,103,-51,-58,98,60,68,85,168,45030
-121,-41,-4,-44,-43,-61,-148,-48,-17,-152,96,-107,-143,-221,-61,-88,5,20,15,-87,-230,-106,-23,48,-129,-181,39,-5,12,24,136,45031
-47,-18,18,-16,-17,-16,-86,22,-48,30,-69,-32,93,-185,-11,-47,3,1,22,-63,-167,-60,-16,23,-76,-94,15,-6,18,10,41,45032
294,64,-29,42,71,76,310,202,27,-41,78,91,-15,62,100,227,-29,-62,-159,206,499,214,-36,-183,206,782,-180,-95,-99,-108,-471,45033
706,149,-105,78,165,136,793,422,-18,8,431,205,-141,333,180,561,-151,-199,-494,491,1386,481,-154,-533,484,2008,-499,-310,-357,-343,-1100,45034
748,168,-110,63,159,128,832,448,-156,-61,565,412,20,199,181,586,-180,-210,-605,490,1531,474,-201,-605,433,2276,-544,-369,-439,-412,-1036,45035
485,115,-66,23,95,88,520,316,-244,-21,422,108,85,75,88,396,-124,-132,-439,293,1075,282,-155,-434,202,1702,-366,-258,-343,-301,-524,45036
-100,-22,17,-65,-54,-50,-143,-91,-52,-156,-248,-228,-28,-89,-51,-41,-34,11,-66,-136,-22,-141,-75,-42,-227,229,5,-44,-86,-66,324,45037
-230,-47,43,-63,-72,-76,-276,-174,11,-102,-346,-182,70,-168,-89,-138,33,74,116,-195,-313,-205,-18,120,-253,-230,142,68,66,80,415,45038
-233,-38,31,-50,-73,-86,-247,-188,45,54,-227,-48,73,-139,-87,-108,76,107,162,-152,-326,-157,21,159,-201,-303,191,105,117,134,399,45039
-227,-44,28,-42,-72,-87,-228,-206,9,-71,-95,-11,-25,48,-122,-108,88,100,167,-149,-337,-155,35,160,-173,-358,190,102,120,130,330,45040
-143,-25,31,-16,-34,-37,-136,-270,24,-27,-53,-19,-272,163,-60,-81,58,65,128,-104,-221,-108,20,93,-113,-225,128,78,75,91,151,45041
-119,-29,28,-11,-19,-16,-100,-244,-42,69,35,-65,-74,50,35,-89,22,28,89,-101,-175,-96,-5,47,-119,-178,82,49,37,65,144,45042
95,18,-16,16,31,23,154,150,-155,16,116,-53,-161,95,30,80,-25,-38,-73,56,245,59,-48,-117,55,390,-87,-51,-66,-40,-246,45043
402,65,-69,35,98,92,448,201,-241,-36,76,50,-164,335,75,311,-108,-135,-320,243,824,246,-119,-368,235,1212,-332,-207,-245,-222,-679,45044
495,91,-56,32,127,122,511,111,-108,-18,198,137,-295,133,89,382,-118,-160,-389,303,1027,298,-140,-442,264,1527,-389,-250,-307,-291,-753,45045
415,93,-22,20,108,105,418,122,16,109,71,200,-86,-58,-5,355,-64,-85,-308,272,920,261,-93,-334,206,1429,-273,-181,-233,-215,-484,45046
-55,-9,53,-39,-23,-20,-79,-113,17,127,-7,-19,-63,-77,-62,22,30,65,4,-48,40,-68,8,9,-129,274,62,12,-22,3,249,45047
-233,-50,67,-51,-75,-58,-270,-199,102,-104,-126,-114,117,-181,-55,-117,71,104,159,-143,-351,-169,47,147,-216,-265,187,96,99,114,419,45048
-196,-40,60,-44,-54,-40,-214,-284,81,-261,138,-102,126,-195,-15,-99,69,96,145,-107,-310,-123,47,126,-156,-231,151,92,101,114,332,45049
-80,-9,41,-21,-13,-12,-93,-70,82,-161,39,20,-96,-54,40,-16,37,59,75,-37,-136,-48,22,70,-69,1,80,54,58,74,165,45050
-126,-34,14,-36,-36,-41,-136,9,88,-101,55,-50,-54,-44,-45,-53,26,52,97,-71,-224,-91,24,82,-108,-109,89,59,62,76,208,45051
-99,-32,16,-22,-26,-37,-122,-77,-98,-57,78,-42,-7,-76,21,-48,23,41,87,-60,-209,-85,17,61,-90,-93,66,47,56,74,137,45052
183,36,-48,16,39,17,198,98,-118,-33,99,29,-96,258,39,168,-20,-30,-59,149,337,132,-19,-115,143,611,-108,-38,-46,-22,-311,45053
455,126,-75,68,115,70,541,280,-69,42,283,316,-146,337,150,430,-17,-54,-202,366,928,363,-11,-258,355,1416,-242,-102,-145,-122,-605,45054
417,101,-71,47,85,47,481,29,-30,-21,207,253,76,175,186,382,-63,-82,-281,312,913,303,-75,-317,268,1445,-290,-166,-213,-189,-553,45055
227,40,-14,2,42,29,212,128,4,117,-14,135,468,2,83,176,-105,-97,-261,111,543,94,-127,-268,33,960,-239,-179,-214,-183,-282,45056
-40,-11,59,-35,-7,6,-119,-98,53,42,-277,-18,382,-65,-16,-43,-58,-33,-62,-99,-13,-116,-98,-60,-189,205,-32,-60,-83,-55,159,45057
-68,-22,61,-25,3,10,-149,68,50,26,-229,-52,191,-119,48,-66,-21,-1,13,-113,-103,-132,-66,1,-170,31,18,-25,-26,2,129,45058
-57,-8,52,-12,-7,-2,-116,82,132,41,-18,15,338,-206,47,-42,-4,32,41,-80,-92,-92,-36,15,-129,20,42,1,8,27,160,45059
-108,-27,28,-8,-25,-36,-145,-45,104,61,111,17,407,-229,-7,-64,11,38,77,-88,-159,-107,-10,45,-142,-75,67,35,32,54,161,45060
-108,-30,28,-9,-34,-50,-164,-43,127,-2,-48,10,317,-179,-15,-76,21,40,105,-83,-177,-97,8,77,-128,-115,83,61,62,71,187,45061
-92,-28,7,-15,-37,-60,-140,-162,14,-69,-150,8,103,-206,-20,-62,18,42,106,-66,-137,-72,19,71,-97,-90,83,60,63,62,167,45062
-6,-1,10,-7,-9,-20,-37,-196,113,68,59,88,-38,-16,21,18,36,40,69,12,38,13,41,27,-4,119,47,44,49,42,62,45063
56,15,13,7,18,8,46,-57,156,119,237,127,-63,99,-14,94,45,43,31,55,166,72,42,2,45,305,27,36,26,25,-17,45064
82,21,4,11,11,8,83,-122,46,-31,-40,122,-61,112,-17,121,25,31,-4,83,230,99,15,-22,52,408,-5,13,-3,5,-86,45065
60,4,6,-9,3,9,5,-74,-21,-72,-214,-21,47,47,-38,66,-8,1,-40,33,169,38,-21,-58,15,344,-33,-21,-33,-30,-111,45066
-73,-43,28,-44,-25,-17,-181,74,1,-54,-32,-174,65,-75,-104,-53,-8,5,19,-80,-124,-90,-20,-2,-116,-6,32,2,-12,0,44,45067
-108,-57,29,-43,-38,-38,-215,-61,-21,4,-2,-71,-100,-159,-81,-85,4,15,48,-97,-217,-114,-7,34,-135,-114,59,25,24,32,144,45068
-100,-27,44,-6,-26,-29,-139,-69,44,-1,149,-2,-76,25,21,-51,53,73,104,-61,-218,-80,39,94,-92,-143,107,81,86,98,230,45069
-34,19,12,24,-9,-17,-1,57,101,147,-56,106,35,94,64,12,50,46,64,5,-89,-19,32,46,-25,42,56,53,57,67,111,45070
-7,11,-10,23,-1,-24,42,-40,49,127,-192,100,28,-38,41,20,31,25,32,13,-37,-10,27,4,-19,120,27,34,24,29,21,45071
-17,8,6,17,6,-27,21,-148,36,36,-27,40,14,-219,49,2,7,24,28,-12,-60,-29,11,8,-54,73,29,23,20,40,48,45072
23,0,10,17,9,-8,30,-54,72,35,-101,21,177,-104,-22,15,-3,-2,10,2,7,-18,5,-26,-25,161,-13,2,-9,6,-44,45073
296,68,-12,45,91,94,314,160,-121,199,220,146,99,124,39,223,-32,-57,-147,189,519,199,-25,-197,171,856,-184,-92,-107,-110,-420,45074
376,90,-24,52,105,98,413,142,-137,123,380,164,108,374,23,304,-51,-72,-229,257,734,266,-48,-259,221,1168,-233,-139,-162,-165,-469,45075
265,74,-32,36,63,39,322,184,-70,-5,147,90,-98,353,51,258,-36,-35,-194,203,603,198,-49,-195,133,998,-174,-109,-135,-141,-362,45076
-51,14,33,-12,-21,-17,-39,-108,-27,-61,-160,25,143,-7,-103,16,11,51,29,-28,19,-27,2,31,-101,202,55,27,9,1,128,45077
-145,-33,42,-40,-58,-37,-171,-92,-41,-154,-214,-80,-80,-128,-109,-86,-4,20,88,-113,-191,-115,-3,63,-171,-81,83,41,33,23,201,45078
-126,-28,19,-33,-45,-31,-134,56,-143,-231,44,-67,-234,-125,-84,-63,13,19,69,-94,-150,-91,1,50,-131,-74,64,37,30,24,139,45079
-95,-5,10,-23,-31,-13,-89,-149,-90,-39,-41,112,-21,0,-16,-29,17,20,53,-45,-90,-58,11,31,-82,-2,50,35,37,24,125,45080
-116,-18,40,-24,-22,2,-133,-197,15,16,-1,-68,277,51,-113,-59,22,31,106,-71,-167,-78,28,60,-99,-108,75,50,58,29,154,45081
-61,-5,49,-4,-3,31,-99,-37,58,-10,16,-26,-150,26,-72,-33,29,29,105,-44,-114,-36,30,62,-47,-56,80,68,56,34,142,45082
253,53,-24,37,68,74,230,288,-55,63,125,263,-327,-88,85,185,-32,-62,-89,169,446,181,-31,-158,186,711,-149,-60,-83,-107,-426,45083
865,202,-105,111,225,211,947,685,-66,134,730,385,-115,283,255,668,-152,-229,-541,600,1664,611,-148,-616,604,2400,-580,-330,-383,-411,-1303,45084
1134,272,-152,136,283,259,1275,820,-125,183,617,412,-59,543,230,895,-219,-300,-823,772,2286,771,-235,-857,723,3326,-801,-489,-582,-591,-1612,45085
993,239,-120,100,233,210,1120,588,-162,12,541,334,19,415,161,795,-234,-271,-810,635,2100,627,-262,-813,529,3184,-745,-490,-595,-589,-1241,45086
-20,8,29,-56,-37,-49,7,-100,59,-19,-243,-89,123,-384,-69,36,-78,-12,-211,-104,226,-116,-142,-136,-252,713,-79,-129,-179,-186,311,45087
-352,-64,62,-72,-123,-140,-338,-296,178,-77,-507,-165,26,-502,-100,-209,29,85,117,-283,-468,-314,-31,170,-393,-288,191,70,60,66,617,45088
-299,-57,51,-47,-98,-109,-294,-329,195,-106,-559,-161,-117,-134,-106,-188,28,56,133,-238,-444,-263,-31,148,-314,-298,160,63,63,85,418,45089
-291,-65,65,-60,-81,-78,-332,-263,157,25,-270,-141,-46,14,-118,-225,8,22,130,-263,-507,-290,-51,129,-323,-387,147,50,46,64,377,45090
-277,-44,90,-31,-57,-41,-330,-285,210,-60,-194,-15,57,-146,-44,-207,49,71,193,-238,-517,-263,14,181,-285,-459,192,109,120,125,431,45091
-260,-56,51,-36,-61,-55,-296,-356,170,-112,-334,-80,-55,-205,-42,-171,66,84,191,-194,-469,-221,45,185,-231,-423,187,114,139,129,372,45092
605,165,-59,105,173,156,691,336,-130,-40,351,288,37,327,171,527,-7,-98,-237,476,1174,467,-10,-312,487,1734,-312,-123,-137,-153,-996,45093
1650,390,-234,202,410,384,1849,1052,-226,-60,1207,613,-96,760,325,1359,-230,-384,-1003,1208,3327,1214,-226,-1104,1180,4730,-1062,-586,-699,-686,-2395,45094
1597,367,-219,152,369,349,1762,1114,-371,26,1029,432,-130,551,254,1325,-317,-422,-1176,1113,3409,1101,-360,-1195,978,5042,-1119,-710,-860,-831,-2153,45095
958,239,-107,50,191,168,1052,402,-181,-144,466,204,105,142,109,858,-224,-241,-814,653,2308,629,-282,-777,444,3667,-690,-500,-633,-597,-1093,45096
-81,15,66,-77,-82,-80,-98,-404,69,-53,-310,-149,245,-272,-116,80,-12,69,-116,-74,311,-114,-109,-26,-322,992,40,-74,-145,-122,466,45097
-425,-78,94,-99,-160,-142,-486,-407,158,45,-569,-288,41,-476,-177,-205,54,140,191,-295,-465,-337,-26,251,-484,-119,268,106,89,97,756,45098
-307,-57,78,-57,-108,-100,-334,-306,173,-92,-398,-286,-224,-351,-94,-135,38,92,188,-199,-315,-226,-12,192,-320,27,188,88,91,77,500,45099
-245,-40,84,-40,-78,-71,-287,-230,191,-155,-454,-223,-135,-207,-66,-128,35,72,179,-174,-280,-199,0,158,-267,38,158,73,81,62,409,45100
-188,-30,76,-26,-51,-45,-258,0,118,-198,-304,-74,-105,-96,-109,-100,27,63,143,-154,-245,-175,-8,129,-226,57,132,53,72,51,333,45101
-176,-43,49,-53,-58,-51,-228,-92,120,-112,-271,-25,-42,-51,-76,-94,3,29,83,-130,-192,-142,-27,84,-183,120,84,21,42,14,199,45102
45,11,3,-15,-6,4,37,46,78,-149,-197,95,2,221,99,94,-19,-15,-43,50,231,44,-48,-43,12,668,-49,-40,-28,-47,-148,45103
394,111,-56,43,87,71,448,205,23,-82,312,238,-153,236,129,386,-54,-71,-227,316,928,313,-72,-246,268,1619,-234,-137,-152,-159,-555,45104
471,125,-53,59,113,82,529,322,-62,-221,399,148,-98,148,124,461,-47,-65,-250,379,1124,361,-76,-277,309,1903,-258,-147,-174,-172,-556,45105
313,76,-31,16,55,38,349,339,-144,-129,308,157,-155,239,35,328,-57,-57,-215,252,875,227,-97,-221,153,1596,-205,-147,-172,-159,-289,45106
40,24,16,-19,-5,-11,61,-86,-74,-57,-140,-16,-26,-92,-40,107,-27,-3,-56,47,374,31,-62,-46,-58,930,-35,-63,-75,-50,52,45107
23,27,16,-10,-9,-6,57,-158,13,-92,-127,-36,-15,-120,-39,106,-21,0,-18,39,345,25,-58,-21,-36,863,-7,-39,-45,-4,24,45108
-49,0,34,-21,-35,-26,-54,-31,115,41,-305,-71,-6,-264,-106,31,-23,6,19,-35,178,-59,-60,22,-92,646,37,-19,-17,25,111,45109
-84,-23,46,-27,-38,-18,-131,-56,93,147,-194,-134,228,-235,-117,0,10,23,79,-59,77,-88,-30,63,-118,492,79,20,17,73,128,45110
-98,-25,65,-20,-32,-3,-152,-220,-24,25,-92,-148,188,-54,-71,-15,27,34,105,-74,22,-91,-15,99,-116,389,108,44,45,94,156,45111
-123,-36,61,-31,-35,-10,-165,-114,43,-233,-19,-173,72,64,-123,-69,-31,-14,24,-130,-38,-149,-79,40,-160,318,52,-23,-17,36,128,45112
-243,-67,64,-59,-69,-51,-295,-219,-74,-54,-4,-102,10,-82,-129,-171,-35,-7,71,-227,-287,-236,-84,91,-263,4,96,-1,12,58,292,45113
-453,-117,81,-87,-119,-97,-537,-415,39,-199,-400,-212,-122,-391,-117,-341,25,59,239,-362,-735,-370,-15,260,-398,-622,255,109,144,169,601,45114
-406,-97,73,-71,-87,-74,-484,-313,164,-140,-595,-226,-38,-355,-145,-293,62,81,275,-292,-687,-302,44,278,-301,-617,250,142,194,196,512,45115
-234,-55,51,-31,-43,-42,-269,-53,138,-91,-319,-134,199,-266,-68,-154,59,62,224,-132,-374,-148,46,196,-129,-225,175,118,158,159,307,45116
-38,-8,11,10,4,-7,-27,168,63,-9,50,-63,-13,-18,-4,7,36,31,108,22,0,6,23,81,26,272,58,55,73,81,0,45117
37,22,6,34,16,25,46,66,105,-200,147,46,82,64,-73,61,21,4,26,58,134,56,-5,19,54,468,11,4,23,25,-20,45118
41,3,1,9,9,19,20,6,-27,-186,63,6,-7,-29,-47,61,3,-13,15,57,143,39,-1,6,45,520,-13,-11,-9,-3,-9,45119
60,6,15,6,21,31,37,146,-48,3,-8,5,-109,-119,2,81,4,-10,18,86,182,66,13,0,68,595,-21,-7,-2,-11,-66,45120
111,12,4,9,24,40,106,131,25,111,111,46,35,-200,29,136,-29,-29,-67,135,329,100,-27,-60,104,796,-71,-57,-47,-50,-131,45121
88,24,13,8,24,30,82,201,19,67,145,-57,117,-156,63,125,-17,-10,-51,130,287,86,-17,-30,83,751,-37,-46,-20,-16,-67,45122
-172,-34,53,-26,-41,-36,-212,-40,103,38,-102,-88,43,-168,21,-84,19,57,110,-74,-211,-100,9,142,-122,119,132,57,82,94,385,45123
-467,-92,101,-47,-104,-107,-534,-2,191,85,-354,-192,152,-251,-61,-305,119,159,376,-263,-809,-293,97,400,-293,-747,376,229,266,274,790,45124
-570,-120,94,-55,-138,-141,-630,-62,206,133,-172,-404,54,-261,-202,-400,124,181,453,-358,-1064,-370,118,470,-352,-1144,434,272,322,327,887,45125
-531,-122,61,-46,-135,-134,-553,1,67,-49,32,-249,65,-168,-119,-401,85,126,402,-350,-1040,-360,84,400,-307,-1148,361,224,285,281,688,45126
-32,-16,-1,31,17,9,-15,237,23,-139,78,-52,94,77,22,-55,-6,-26,66,-22,-135,-13,-6,46,42,24,14,23,65,61,-74,45127
166,27,-15,41,65,74,175,246,-150,32,-92,15,-37,15,-12,85,-42,-82,-100,86,275,94,-43,-101,143,577,-131,-69,-58,-63,-317,45128
97,13,-24,14,33,39,90,381,-134,114,-219,50,-243,3,-13,65,-32,-61,-79,34,214,44,-37,-65,63,516,-83,-51,-49,-48,-176,45129
39,0,-22,2,1,4,28,248,-77,26,-100,-17,-187,-112,64,35,-22,-37,-54,-3,167,20,-26,-44,27,444,-49,-37,-28,-26,-83,45130
33,-6,-5,5,6,12,-2,159,15,14,22,-34,-66,-155,68,30,-5,-10,-31,-2,150,23,-7,-25,28,412,-20,-8,-9,-4,-12,45131
-9,-3,15,5,7,20,-60,273,61,46,-71,-8,138,-223,0,-1,35,25,32,-28,42,-5,16,41,-4,266,43,37,22,36,127,45132
-608,-130,113,-78,-144,-129,-723,-7,168,-7,-480,-242,145,-560,-100,-488,109,172,383,-483,-1127,-470,96,429,-468,-1304,425,231,256,260,1035,45133
-1227,-290,181,-146,-314,-294,-1382,-283,296,70,-864,-401,292,-656,-191,-981,201,302,803,-900,-2397,-908,199,852,-867,-3092,821,476,560,553,1782,45134
-1176,-266,183,-95,-265,-240,-1300,-323,257,90,-682,-282,221,-471,-103,-934,267,325,899,-810,-2430,-815,280,926,-718,-3267,856,558,664,642,1635,45135
-716,-156,114,-21,-129,-103,-786,-65,207,80,-122,-85,-150,-118,-32,-600,211,210,667,-475,-1652,-457,249,644,-317,-2285,570,416,518,487,869,45136
63,1,-42,56,55,54,91,503,-21,-55,273,96,-204,77,77,-9,45,-25,128,103,-123,121,106,67,279,-221,4,78,146,128,-315,45137
295,68,-74,84,112,96,367,575,-60,63,97,208,-129,96,112,207,5,-61,-74,282,435,300,55,-108,404,592,-133,-16,6,-8,-438,45138
203,52,-45,64,82,64,257,347,-115,141,79,76,-193,284,100,143,15,-20,-50,196,291,214,50,-44,278,472,-71,3,7,7,-231,45139
188,45,-46,42,59,52,240,494,-50,-62,105,5,-112,298,75,138,25,-11,-37,179,283,204,52,-31,244,494,-53,9,-1,-8,-212,45140
170,50,-47,48,55,39,236,404,-105,56,274,66,-241,95,39,158,42,8,-46,193,305,200,57,-24,231,535,-40,4,5,11,-207,45141
165,44,-47,24,51,34,232,388,-106,55,267,97,-22,78,20,141,-8,-45,-121,167,321,172,-6,-90,192,605,-108,-60,-58,-42,-228,45142
-180,-37,19,-26,-38,-26,-173,211,9,42,-85,-233,109,-205,-126,-152,-3,17,72,-120,-340,-134,1,108,-127,-256,92,44,43,56,278,45143
-733,-170,98,-97,-174,-148,-794,-8,26,-167,-649,-289,43,-402,-192,-577,100,162,472,-496,-1413,-511,108,502,-497,-1744,469,270,320,326,1028,45144
-916,-229,120,-111,-215,-182,-999,-193,132,-99,-577,-301,126,-509,-252,-744,134,197,607,-629,-1856,-643,157,633,-594,-2434,591,346,427,432,1211,45145
-766,-180,100,-58,-168,-146,-824,-97,187,22,-546,-352,59,-555,-127,-636,166,188,598,-494,-1660,-493,196,596,-423,-2267,544,357,440,442,918,45146
8,12,-21,64,35,33,66,371,-12,183,166,231,-25,105,125,-21,100,44,198,101,-177,115,149,149,221,-344,97,142,193,190,-199,45147
235,60,-61,73,85,85,313,399,17,13,421,200,39,373,133,172,36,-15,-19,229,332,263,74,-59,334,375,-79,14,16,6,-431,45148
221,35,-43,41,83,86,232,486,28,-29,556,42,-34,-2,69,131,-25,-70,-106,164,327,195,12,-125,240,425,-127,-51,-67,-78,-403,45149
136,9,-22,16,63,79,110,396,-34,-177,291,-25,41,-80,63,60,-36,-51,-91,78,198,120,-3,-97,154,268,-93,-39,-47,-69,-257,45150
152,23,-13,24,64,75,124,573,-89,-4,-72,-7,-83,107,73,62,-45,-60,-98,81,219,118,-19,-99,160,302,-106,-58,-65,-84,-236,45151
131,23,-8,22,49,69,109,610,43,221,112,44,154,101,63,51,-26,-43,-81,81,185,106,1,-85,142,281,-79,-31,-52,-64,-195,45152
-327,-72,54,-46,-84,-49,-388,178,124,-37,-230,-100,108,-200,-50,-273,60,109,194,-229,-657,-213,73,237,-199,-844,242,142,146,136,626,45153
-1104,-254,155,-126,-277,-231,-1241,-371,256,50,-720,-518,113,-484,-173,-897,179,279,698,-790,-2209,-788,191,775,-747,-2979,746,432,491,480,1672,45154
-1163,-267,149,-105,-264,-231,-1287,-434,298,123,-713,-421,127,-534,-128,-955,229,302,840,-809,-2449,-790,246,873,-692,-3421,815,519,613,576,1571,45155
-736,-185,88,-37,-141,-112,-828,-94,183,0,-256,-85,-168,-294,-83,-665,159,180,613,-512,-1766,-491,185,597,-338,-2559,539,376,470,400,918,45156
40,-25,-42,60,57,69,31,661,40,123,203,272,-155,110,59,-82,10,-54,104,33,-296,60,55,49,230,-576,-7,54,106,26,-260,45157
326,50,-84,77,119,114,359,718,40,232,608,269,276,275,132,146,-50,-127,-145,224,347,260,7,-184,370,329,-215,-79,-82,-167,-634,45158
327,70,-69,77,119,97,361,528,-133,338,345,169,364,335,100,166,-42,-92,-181,240,428,266,7,-181,333,472,-191,-88,-91,-167,-520,45159
341,71,-65,74,108,94,378,715,-152,222,372,156,28,266,95,211,-28,-56,-187,255,510,281,9,-167,329,621,-187,-81,-97,-148,-426,45160
251,61,-71,42,65,60,296,460,-181,105,119,117,-191,179,158,159,-24,-60,-169,195,403,212,2,-144,253,523,-156,-65,-98,-139,-286,45161
155,50,-42,37,52,48,186,447,-109,-80,25,46,-96,34,94,97,-8,-21,-94,124,232,136,24,-68,172,319,-83,-29,-44,-92,-122,45162
-227,-50,39,-11,-48,-35,-274,113,134,-92,-32,-248,73,-190,-118,-224,31,66,116,-181,-526,-177,43,172,-159,-701,181,91,98,65,501,45163
-840,-204,122,-99,-210,-178,-976,-339,98,-79,-569,-476,136,-488,-233,-720,133,205,534,-621,-1761,-627,130,605,-593,-2404,593,337,375,348,1314,45164
-1111,-254,166,-119,-258,-228,-1255,-457,157,-31,-607,-440,27,-540,-203,-918,228,309,821,-775,-2362,-761,263,863,-689,-3309,815,520,601,542,1608,45165
-876,-195,132,-52,-173,-157,-985,-176,243,-1,-584,-275,91,-522,-62,-751,239,261,762,-581,-2006,-551,280,764,-442,-2951,699,488,575,514,1079,45166
34,0,-37,79,46,58,53,604,10,-2,96,183,-52,149,150,-46,78,10,195,97,-259,128,148,126,281,-652,77,135,188,134,-359,45167
297,70,-65,93,114,113,345,685,-176,42,491,318,-86,261,184,177,8,-43,-57,272,321,305,88,-91,400,206,-118,-7,8,-50,-486,45168
302,83,-49,74,112,110,339,671,-145,94,401,220,65,214,106,189,-2,-27,-95,276,377,301,85,-98,365,327,-114,-15,-21,-78,-383,45169
270,70,-48,61,93,97,330,545,-139,-97,178,138,77,225,111,181,-5,-25,-103,259,373,283,64,-105,336,366,-110,-29,-37,-80,-289,45170
220,44,-66,32,53,63,269,502,-237,17,51,99,22,237,11,157,-30,-55,-114,225,329,242,28,-122,276,359,-121,-52,-66,-105,-276,45171
191,36,-61,19,44,54,247,580,-166,127,15,135,-143,209,17,133,-38,-64,-118,198,316,216,8,-121,240,355,-126,-61,-76,-108,-275,45172
-184,-58,7,-38,-50,-36,-180,294,58,90,-272,-176,-129,-101,-36,-175,-13,8,49,-121,-390,-94,13,80,-104,-574,82,41,28,1,321,45173
-849,-188,136,-78,-209,-180,-929,-157,186,58,-528,-402,19,-447,-135,-698,126,206,553,-595,-1768,-583,150,599,-562,-2461,586,344,384,354,1287,45174
-837,-188,109,-64,-205,-180,-903,-234,132,90,-199,-222,218,-143,-117,-699,171,237,674,-559,-1849,-543,214,674,-471,-2680,640,417,485,463,1190,45175
-436,-116,35,-16,-91,-74,-464,27,-77,100,-24,-89,-106,33,-99,-402,125,118,423,-268,-1131,-244,181,397,-137,-1776,357,269,338,316,503,45176
130,12,-49,48,61,59,132,280,-111,69,207,134,-85,238,97,26,17,-49,20,121,-30,159,91,-27,270,-291,-46,36,64,63,-338,45177
295,43,-61,45,88,93,271,433,-153,155,336,122,-32,330,130,140,-62,-106,-174,201,342,233,15,-202,318,257,-200,-84,-92,-73,-528,45178
217,33,-44,31,77,91,168,297,-43,187,326,132,-95,121,87,90,-68,-90,-172,130,253,154,-14,-169,215,171,-151,-87,-103,-61,-428,45179
132,19,-27,22,60,71,67,70,34,113,197,79,-30,-52,-1,23,-57,-67,-142,61,105,79,-16,-108,125,-14,-87,-60,-74,-36,-242,45180
95,20,-16,28,43,49,69,261,67,87,-117,23,106,104,42,8,-1,-16,-69,38,21,64,27,-42,97,-124,-39,-4,-20,19,-129,45181
67,18,-23,36,32,19,92,314,-33,119,-93,-15,110,52,48,-2,17,9,-24,17,-39,40,44,-10,73,-200,1,21,10,33,-61,45182
-17,6,-13,18,14,1,14,-16,-122,52,-62,-37,21,-56,9,-51,36,30,25,-23,-167,-5,63,46,26,-386,57,54,51,61,98,45183
-170,-36,27,-10,-29,-16,-159,-115,-1,-70,-236,15,64,3,-25,-181,52,66,126,-124,-445,-110,84,138,-69,-775,143,97,110,120,291,45184
-203,-40,18,-15,-36,-13,-193,-309,-29,-50,-328,141,85,31,4,-202,45,48,154,-131,-495,-115,86,163,-79,-857,148,106,118,136,293,45185
-147,-30,-3,-3,-20,-4,-145,-235,0,-31,-243,16,6,-81,-70,-136,48,52,140,-76,-402,-53,92,155,-17,-735,139,115,126,139,243,45186
45,12,-29,22,27,39,70,55,33,-92,70,83,-6,130,26,16,28,4,31,88,-47,96,63,12,141,-250,6,46,52,51,-62,45187
82,14,-38,27,34,36,105,312,-27,53,-37,76,-31,45,53,-1,-34,-60,-74,81,22,87,12,-83,115,-111,-87,-40,-43,-45,-186,45188
81,10,-27,32,37,37,100,113,-52,23,226,110,91,11,9,-25,-61,-71,-105,62,-26,61,-18,-106,69,-140,-104,-65,-70,-77,-173,45189
80,6,-22,21,36,31,113,99,-77,103,356,57,29,160,-4,-28,-72,-73,-110,61,-40,40,-33,-115,61,-118,-114,-79,-80,-93,-191,45190
145,47,-29,37,54,39,224,373,13,216,269,118,-179,240,70,53,-68,-68,-109,133,120,125,-18,-130,137,116,-126,-77,-92,-92,-307,45191
246,70,-74,57,54,19,360,231,-110,190,294,195,-197,189,68,167,-64,-73,-150,229,360,229,-10,-182,225,449,-173,-96,-109,-121,-446,45192
297,79,-75,68,73,37,385,185,-46,93,277,205,-212,285,62,220,-38,-51,-176,277,462,258,-3,-176,247,595,-168,-91,-110,-114,-392,45193
459,107,-84,64,112,103,521,181,-153,76,250,209,-97,211,44,342,-61,-92,-286,380,821,374,-26,-291,350,1074,-287,-158,-187,-182,-622,45194
455,103,-68,48,100,103,526,293,-135,78,338,135,-307,302,39,342,-91,-110,-320,343,878,361,-56,-335,318,1193,-304,-185,-233,-206,-608,45195
346,88,-56,44,70,73,402,117,-125,43,198,90,-68,100,58,263,-78,-80,-286,250,683,263,-63,-258,208,971,-224,-160,-196,-159,-410,45196
128,40,-29,10,18,17,156,-256,-91,131,188,75,74,7,78,89,-70,-46,-187,63,269,71,-71,-146,14,419,-112,-118,-129,-83,-198,45197
38,18,-2,-10,1,-6,73,-157,-8,95,121,-1,-216,27,52,11,-59,-9,-113,-12,90,-1,-56,-82,-35,159,-66,-77,-94,-28,-69,45198
58,17,-15,-7,1,2,113,91,125,-6,-42,40,-128,-145,19,25,-59,-31,-107,9,146,23,-49,-101,-9,196,-91,-66,-90,-19,-127,45199
2,10,-15,2,-13,-25,56,81,34,-82,43,33,303,-90,29,-17,-39,-13,-57,-29,47,-11,-35,-43,-44,51,-32,-34,-45,31,-1,45200
-18,-1,-20,-10,-15,-34,13,16,-44,-109,42,-73,178,94,7,-43,-33,-3,-30,-42,8,-21,-34,-30,-42,-19,-10,-16,-32,39,33,45201
41,6,-27,-2,-1,-19,43,-84,30,4,-26,95,-185,211,-26,4,-23,-24,-43,0,115,20,-23,-63,1,99,-47,-28,-43,17,-91,45202
262,72,-42,33,69,37,288,83,-29,79,177,240,-166,276,101,212,-8,-35,-142,203,555,221,-10,-155,207,665,-146,-70,-85,-40,-383,45203
467,95,-88,36,102,89,503,216,-35,102,484,167,-56,62,93,357,-99,-122,-346,314,947,330,-89,-347,305,1264,-329,-204,-237,-187,-684,45204
557,109,-92,45,120,119,593,306,-124,34,156,289,26,71,149,414,-134,-171,-430,362,1151,362,-143,-440,338,1605,-400,-270,-319,-257,-788,45205
425,101,-55,40,87,89,463,-55,-133,24,1,179,-43,195,112,334,-112,-117,-346,280,940,275,-107,-344,230,1371,-311,-209,-267,-215,-527,45206
18,18,19,-10,-8,-15,4,-166,-15,-82,-56,-108,-114,-94,-22,34,-31,10,-61,-3,144,-15,-24,-47,-88,329,-17,-39,-85,-42,103,45207
-108,-14,7,-25,-39,-55,-140,-163,57,5,-110,-157,-76,-118,0,-63,19,62,76,-71,-165,-84,23,69,-147,-95,91,38,26,60,304,45208
-69,-5,-3,-14,-39,-52,-74,-260,15,-28,-152,-43,16,-39,-30,-41,18,47,45,-26,-121,-40,13,47,-79,-41,49,15,15,50,149,45209
34,21,0,4,0,-12,53,-133,-41,0,22,55,30,-31,-134,29,-8,8,-30,52,35,30,-18,-20,-9,179,-20,-32,-35,-2,-8,45210
76,16,-15,0,9,12,80,-224,-89,-160,-17,13,115,-99,-143,46,-45,-23,-90,59,105,33,-50,-68,-7,293,-78,-76,-68,-39,-59,45211
57,8,-23,-13,0,-7,52,-261,-32,-206,-27,-50,-60,75,-104,52,-30,-11,-56,75,102,50,-24,-47,13,288,-55,-54,-39,-19,-95,45212
420,97,-90,42,87,64,509,32,-126,-98,379,179,-125,296,59,378,-53,-90,-244,381,863,365,-44,-270,333,1315,-271,-151,-165,-141,-677,45213
782,193,-122,89,186,159,903,280,-224,-121,605,303,-171,406,117,678,-86,-146,-491,629,1617,618,-93,-511,563,2361,-486,-276,-329,-303,-1092,45214
726,166,-109,57,159,126,820,382,-186,-149,494,127,-171,349,79,619,-134,-165,-552,540,1583,531,-151,-552,441,2381,-503,-328,-399,-347,-964,45215
432,107,-66,7,73,40,484,-25,-132,3,123,11,312,224,23,392,-112,-103,-390,311,1075,308,-133,-366,186,1747,-330,-230,-309,-239,-524,45216
-41,20,42,-29,-37,-37,-36,-496,-76,80,-137,-86,60,-3,-112,17,-28,36,-53,-63,126,-62,-56,-17,-177,460,19,-22,-83,-15,208,45217
-179,-30,68,-38,-63,-49,-193,-552,-130,-162,-190,-156,12,-68,-147,-91,31,86,96,-144,-211,-151,-5,123,-233,-37,135,56,32,101,341,45218
-87,-25,36,-37,-37,-19,-104,-366,55,-272,-258,-125,55,-330,-80,-43,13,37,31,-92,-86,-94,-18,35,-146,83,57,4,7,60,128,45219
-72,-16,41,-15,-22,-7,-77,-292,57,-155,-268,-113,-112,-215,-27,-52,-23,-4,-33,-91,-66,-102,-56,-13,-141,84,10,-33,-28,22,83,45220
-120,-31,25,-33,-46,-43,-156,-127,100,-193,-315,-64,-117,-269,-15,-104,-37,-10,0,-145,-162,-131,-56,4,-169,-48,17,-21,-22,28,106,45221
-131,-46,16,-27,-58,-63,-192,-159,67,-76,-352,-45,-76,-165,25,-103,12,29,63,-135,-207,-120,-3,63,-146,-142,72,26,21,65,160,45222
-17,1,7,0,-18,-23,-20,-12,-47,2,-29,127,-77,-5,73,25,48,39,46,-7,23,14,37,34,2,144,34,32,27,63,23,45223
205,48,-33,26,32,14,246,-195,-17,115,238,101,-11,152,21,200,-15,-32,-118,148,451,164,-11,-136,155,739,-133,-65,-86,-63,-285,45224
244,52,-41,35,48,34,277,-16,-18,131,44,182,7,142,72,219,-37,-53,-182,164,539,165,-50,-193,155,888,-167,-111,-139,-114,-328,45225
211,43,-18,22,53,54,208,108,0,189,177,194,-2,188,104,187,-40,-40,-168,133,470,132,-63,-162,107,840,-144,-120,-129,-114,-218,45226
-39,-28,18,-31,-29,-6,-92,-231,23,129,-39,-79,106,34,-73,-26,-38,-22,-59,-80,-34,-79,-60,-28,-112,205,-24,-55,-73,-52,143,45227
-74,-21,31,-21,-32,-16,-119,-340,10,13,-146,-106,244,-120,-86,-58,-10,0,21,-77,-117,-78,-25,29,-105,65,32,4,-12,15,176,45228
-130,-27,38,-23,-34,-31,-142,-360,100,-41,-543,-97,122,28,54,-84,38,45,106,-92,-222,-103,18,88,-112,-96,89,56,47,67,224,45229
-49,-23,5,-15,-30,-23,-65,-246,75,80,-389,12,-84,4,-26,-41,-5,0,15,-52,-87,-63,-16,5,-72,86,3,-2,-4,6,36,45230
-144,-32,11,-29,-57,-61,-150,-484,184,-45,-112,82,-60,99,41,-82,39,56,67,-93,-233,-101,20,85,-126,-130,86,53,59,62,212,45231
-99,6,32,3,-18,-35,-80,-369,216,-11,31,13,-38,134,85,-20,72,85,95,-30,-160,-47,58,112,-52,-59,107,73,79,91,213,45232
175,41,-16,33,47,36,187,-240,20,67,194,98,58,46,68,137,-35,-50,-118,125,322,113,-31,-138,109,594,-131,-90,-95,-69,-316,45233
411,96,-47,47,119,94,437,-62,-59,-68,155,285,194,123,100,298,-96,-130,-305,264,790,262,-114,-326,239,1256,-316,-210,-239,-213,-662,45234
454,105,-50,39,124,107,473,-23,-58,-95,75,210,23,129,21,329,-119,-150,-368,278,908,268,-135,-379,228,1471,-349,-255,-292,-265,-669,45235
303,65,-36,11,66,56,327,-101,50,-5,-96,159,102,48,88,256,-77,-84,-284,199,697,186,-80,-283,121,1209,-249,-184,-234,-185,-407,45236
33,18,15,3,-1,-5,38,-92,51,-190,-134,-105,226,27,8,53,-11,8,-67,19,185,-7,-13,-56,-69,508,-35,-43,-77,-28,125,45237
-82,-4,30,-6,-21,-24,-76,-276,-40,-112,-222,-120,266,-28,5,-17,36,54,85,-35,-47,-59,23,84,-95,178,85,48,33,83,241,45238
-82,-4,23,-8,-29,-40,-57,-289,107,-69,-148,31,31,-14,3,-7,51,65,106,-29,-74,-41,20,93,-65,147,81,58,48,93,244,45239
-143,-9,29,-11,-35,-51,-120,-479,96,-101,-170,11,-178,42,-41,-44,81,92,156,-56,-202,-59,56,141,-101,-52,135,88,89,125,314,45240
-110,-17,14,-6,-17,-29,-95,-248,73,-3,10,-105,27,59,-57,-31,47,62,100,-42,-151,-44,36,84,-76,-2,88,44,56,82,169,45241
-24,3,18,4,0,-1,-17,-380,46,146,181,-97,-27,5,-8,18,11,18,25,8,-5,-5,-13,16,-27,194,12,-4,0,39,-1,45242
148,41,-19,35,43,31,188,-272,-2,129,147,143,-234,71,71,154,-9,-33,-75,137,339,131,-5,-94,109,678,-110,-66,-70,-35,-287,45243
372,104,-45,73,109,86,432,-34,-107,99,241,265,-199,244,136,330,-43,-79,-237,280,771,289,-36,-246,248,1280,-250,-155,-176,-148,-533,45244
410,102,-41,59,115,99,433,77,25,39,286,100,-46,185,59,335,-79,-107,-296,267,823,276,-87,-311,223,1418,-294,-189,-238,-203,-565,45245
287,65,-26,21,74,77,281,-13,-66,37,202,94,39,188,-13,232,-75,-86,-252,151,594,144,-96,-255,101,1150,-234,-172,-217,-179,-327,45246
-123,-30,53,-41,-29,-25,-168,-467,2,-3,-165,-87,52,-291,-119,-77,11,46,7,-151,-181,-161,-25,39,-217,91,61,1,-27,7,322,45247
-288,-74,69,-55,-80,-71,-336,-431,174,-131,-248,-202,95,-41,-102,-212,40,75,139,-264,-520,-279,-3,159,-307,-421,164,77,69,87,423,45248
-269,-69,31,-39,-82,-75,-293,-500,5,-58,-369,-114,-4,0,-16,-192,33,46,114,-251,-468,-250,-8,126,-260,-412,111,52,63,72,305,45249
-179,-47,5,-18,-63,-66,-199,-488,141,139,-255,3,-128,-67,21,-104,70,57,137,-151,-290,-145,45,125,-150,-255,102,82,84,83,195,45250
-92,-13,12,-1,-24,-29,-96,-332,167,66,-37,38,-35,-49,26,-35,82,64,119,-59,-118,-60,64,111,-57,-66,79,83,85,78,90,45251
-17,-12,23,13,0,11,-50,-292,50,-148,69,-27,117,-46,49,6,46,41,45,-18,7,-18,27,50,-14,100,36,34,37,41,35,45252
140,9,-12,17,36,48,129,-205,-84,-98,170,78,-1,83,22,123,4,-21,-71,100,329,104,-11,-80,114,535,-86,-40,-51,-35,-232,45253
423,75,-67,29,103,103,469,-58,-122,-36,321,170,-76,295,36,355,-65,-114,-299,300,917,313,-78,-323,310,1375,-312,-184,-212,-201,-668,45254
476,120,-52,61,131,113,524,30,-57,-169,290,140,-51,80,94,425,-40,-88,-326,360,1051,363,-55,-328,333,1615,-317,-180,-219,-213,-618,45255
256,72,-14,22,61,62,273,-92,70,-173,164,99,-160,86,47,257,-17,-34,-192,190,654,186,-47,-183,136,1132,-181,-122,-148,-142,-242,45256
-80,-28,21,-50,-46,-25,-116,-257,55,-75,-325,-85,16,-169,-155,-29,0,18,-30,-75,-19,-80,-37,-9,-135,273,-5,-38,-49,-51,191,45257
-199,-62,42,-54,-66,-49,-232,-412,40,-1,-302,-114,-129,-338,-101,-155,-16,5,11,-182,-323,-198,-56,29,-238,-111,39,-24,-22,-40,259,45258
-166,-25,51,-21,-38,-24,-171,-491,-61,-24,-170,-59,61,-86,-44,-119,29,33,91,-136,-327,-155,5,82,-170,-137,81,34,39,6,290,45259
-107,-27,18,-29,-47,-29,-92,-353,40,-15,-115,-49,211,-3,47,-61,25,6,56,-85,-223,-95,-11,34,-108,3,32,5,19,-15,133,45260
-125,-33,44,-26,-32,-4,-147,-501,54,25,-66,-2,69,24,-44,-88,11,5,63,-110,-292,-127,-11,62,-133,-87,51,18,27,-10,158,45261
-158,-63,49,-42,-32,14,-224,-700,20,-64,-81,-100,339,-180,-147,-145,-21,-27,50,-158,-386,-178,-40,47,-175,-198,30,0,-1,-29,104,45262
-73,-53,32,-31,-27,15,-151,-444,74,-122,-339,-200,295,-46,-95,-109,-41,-52,-7,-123,-263,-130,-62,-21,-135,-40,-30,-48,-43,-65,6,45263
77,19,-3,21,13,20,49,-325,33,-8,40,-44,-61,56,35,50,2,-11,-61,32,40,22,-26,-53,17,338,-58,-44,-38,-57,-127,45264
125,48,-21,33,23,-4,151,-148,-62,154,275,88,-14,17,67,120,6,-4,-96,86,194,84,-15,-75,69,535,-79,-49,-52,-72,-161,45265
108,24,-31,5,6,-20,117,-275,16,72,225,1,-98,-25,80,78,-35,-46,-146,40,175,30,-58,-129,11,523,-121,-89,-103,-128,-172,45266
-154,-55,22,-40,-45,-44,-210,-495,0,18,-133,-159,-103,-230,-53,-150,-16,1,-15,-196,-332,-197,-31,30,-214,-168,32,-17,-21,-46,270,45267
-192,-59,54,-33,-38,-30,-282,-491,24,-40,-63,-115,-28,-58,-42,-160,48,60,95,-205,-425,-194,28,131,-195,-372,125,65,70,46,330,45268
-129,-45,32,-19,-33,-30,-182,-188,83,18,-58,-101,108,72,-13,-78,68,70,125,-120,-258,-98,62,140,-98,-221,126,89,102,63,255,45269
-74,-16,4,5,-24,-42,-76,-181,20,-47,-96,-13,24,165,53,12,86,80,130,-33,-55,2,81,121,8,-29,112,100,107,83,142,45270
-62,-12,-14,-1,-27,-45,-46,-274,-49,34,-237,-31,87,-49,-38,23,76,64,107,-18,15,14,77,95,28,48,89,90,71,80,108,45271
-147,-34,3,-20,-43,-38,-147,-368,-29,14,-18,-10,123,-167,-29,-70,65,59,141,-110,-161,-80,78,126,-67,-189,116,98,82,76,248,45272
-61,-12,9,2,-5,7,-55,-262,-69,65,64,-50,140,-85,72,-27,36,24,71,-49,-24,-29,37,55,-11,-19,48,45,44,30,45,45273
158,39,-1,34,60,66,171,-13,29,98,159,11,-17,148,95,123,-7,-34,-91,94,349,116,-19,-95,138,518,-97,-54,-59,-69,-216,45274
136,31,8,21,44,64,125,-194,73,35,-126,-20,-78,-29,86,109,-19,-39,-102,76,292,78,-30,-92,100,510,-101,-60,-75,-102,-160,45275
-25,-11,31,-15,-2,19,-79,-252,67,32,-58,-98,-70,-99,-8,-30,-6,-14,-22,-42,-26,-54,-17,-15,-40,121,-13,-25,-43,-66,30,45276
-153,-59,33,-48,-41,-32,-271,-197,135,-120,78,-168,-43,-100,17,-128,35,34,74,-121,-319,-130,25,88,-121,-237,84,40,41,-1,211,45277
-121,-41,25,-38,-32,-32,-253,-84,61,-81,-44,-35,92,-126,21,-98,41,29,84,-88,-295,-101,28,86,-89,-212,88,47,66,11,152,45278
-135,-42,8,-32,-40,-49,-225,-290,-32,-8,-51,131,189,101,36,-82,41,38,111,-71,-308,-94,33,122,-76,-215,112,81,83,35,195,45279
-119,-33,-8,-17,-44,-54,-159,-362,-37,28,43,129,5,97,9,-44,84,78,160,-44,-301,-52,81,155,-26,-198,137,128,120,60,191,45280
-82,-8,12,10,-12,-13,-75,-549,-56,-38,50,28,273,-123,-19,-50,64,56,85,-45,-297,-64,56,107,-38,-173,89,69,83,19,135,45281
-119,-12,32,17,-7,-2,-91,-352,9,-58,47,-14,286,-147,36,-119,14,31,47,-123,-416,-137,8,88,-110,-318,72,39,45,-4,190,45282
-154,-30,22,6,-31,-18,-131,-140,54,-219,88,-39,190,51,-75,-173,-34,-16,11,-179,-488,-192,-30,48,-159,-408,35,2,8,-25,149,45283
-129,-30,12,-7,-32,-21,-93,-123,4,-273,-53,-22,-70,239,-140,-142,-18,-19,27,-125,-380,-141,-21,34,-109,-299,24,9,8,-19,82,45284
-122,-34,16,-31,-27,-15,-110,-364,-46,-227,58,-119,1,114,-45,-112,12,6,70,-91,-331,-102,16,64,-71,-274,46,43,51,1,98,45285
-24,-11,28,-22,12,10,-50,-343,-12,-239,-17,-187,-2,-10,-12,-59,11,1,45,-42,-195,-44,11,32,-21,-141,11,18,33,-7,-4,45286
44,7,-3,14,15,17,41,-177,67,107,15,-39,69,101,18,15,14,8,20,35,-9,35,16,16,56,75,-7,15,33,-2,-86,45287
20,5,-29,17,-3,-13,72,-261,-14,73,222,101,-94,24,-31,36,25,15,7,45,65,48,25,23,72,149,1,11,33,15,-84,45288
-12,8,-28,16,-2,-25,27,-289,39,90,834,51,-89,-1,-58,24,36,32,25,12,27,25,42,44,41,91,45,41,49,34,33,45289
-140,-25,3,1,-27,-40,-144,-311,69,-35,310,-10,87,-261,3,-102,43,51,115,-101,-240,-91,50,130,-63,-279,125,87,99,69,184,45290
-141,-34,27,-7,-27,-25,-149,-225,-1,38,-62,-66,125,-219,-1,-134,11,10,77,-131,-269,-120,10,80,-86,-332,86,36,51,34,134,45291
-152,-48,26,-14,-25,-13,-166,-269,-80,94,-97,-43,97,-158,34,-168,-10,-10,47,-176,-321,-152,-21,51,-130,-413,56,15,23,7,122,45292
-75,-22,20,6,4,8,-100,-107,15,25,-82,14,36,69,2,-119,-4,4,25,-126,-240,-101,-11,39,-71,-304,35,12,28,7,65,45293
-117,-30,5,-15,-28,-26,-135,-252,28,33,82,-50,29,96,-55,-125,9,13,58,-129,-291,-115,20,74,-79,-366,53,28,53,24,154,45294
-93,-17,1,-7,-28,-26,-93,-278,-9,91,172,31,69,-11,-6,-83,13,21,84,-82,-234,-61,37,84,-30,-297,58,57,67,39,95,45295
-22,9,-1,25,2,5,13,-230,-56,59,86,-18,-164,16,-44,-28,4,7,54,-30,-121,-20,26,49,29,-144,30,34,51,19,-27,45296
26,19,-5,30,29,20,81,-234,-50,19,-20,72,4,-167,65,6,8,3,10,24,-29,25,23,24,63,2,5,5,33,-6,-70,45297
18,14,-15,19,18,3,66,-125,153,-8,-9,18,9,-110,92,-4,11,3,-11,12,-47,21,24,7,39,5,3,-1,19,-23,-24,45298
-39,-10,-11,13,-7,-7,-3,-47,66,15,-77,-149,30,47,27,-59,4,6,21,-34,-156,-30,33,33,-13,-124,17,16,23,-18,16,45299
-54,-22,-4,-1,-17,-14,-60,-155,34,142,38,-93,56,-91,-55,-91,-24,-16,25,-64,-212,-66,16,22,-41,-185,12,7,6,-46,14,45300
-7,3,6,14,3,1,-20,-229,7,119,70,21,327,-39,-14,-35,5,11,31,-10,-134,-16,31,30,1,-93,26,15,25,-24,39,45301
38,6,-14,9,7,9,40,15,60,-53,-35,26,-235,230,5,29,14,22,4,56,3,50,35,9,58,73,19,10,35,-16,-38,45302
100,22,-15,16,34,29,104,-170,-12,55,234,81,-231,259,35,82,3,13,-9,103,120,104,24,-16,112,230,-19,8,9,-41,-138,45303
214,58,-21,39,69,74,216,-47,-72,120,190,124,15,154,83,152,-23,-49,-121,155,329,155,-25,-128,166,554,-121,-65,-82,-122,-306,45304
273,69,-26,36,70,77,288,23,-23,-4,170,150,-31,225,40,201,-34,-60,-175,185,471,190,-38,-171,184,755,-161,-103,-114,-152,-357,45305
162,36,-42,4,17,21,206,-90,-42,-86,-38,100,62,85,-9,128,-42,-49,-146,110,330,109,-57,-138,96,585,-124,-88,-110,-136,-219,45306
-81,-12,-9,-19,-40,-45,-71,-375,29,-161,-64,-6,30,-124,3,-55,-10,13,8,-60,-117,-70,-22,22,-93,-23,28,0,-7,-32,117,45307
-168,-25,24,-28,-40,-41,-184,-198,72,-23,-152,-45,-14,-103,-27,-139,11,45,87,-135,-345,-147,8,96,-150,-339,90,44,57,20,238,45308
-47,2,27,-3,-6,11,-54,-218,-58,-73,189,-19,-33,-8,-32,-46,24,38,60,-32,-124,-34,26,52,-33,-72,45,34,42,24,92,45309
-75,-5,27,-17,-6,5,-74,-290,-96,-244,343,-164,1,-42,-52,-61,20,43,57,-46,-165,-51,21,67,-50,-134,62,31,42,35,157,45310
-63,-16,10,-13,-17,-9,-71,-235,-96,-87,203,-208,-197,-105,-57,-50,24,41,77,-50,-163,-43,26,86,-23,-144,73,49,53,37,131,45311
-45,-16,-6,-21,-20,-19,-50,-290,-166,-19,-181,-143,-185,51,-146,-40,16,13,62,-44,-128,-32,29,51,-8,-98,37,46,41,17,47,45312
-126,-14,9,-18,-33,-36,-127,-275,-17,-76,-241,-111,-219,-6,-162,-93,46,61,113,-92,-283,-85,49,123,-63,-299,118,84,96,67,199,45313
-8,9,-5,8,-2,-3,7,-211,-60,-111,130,-13,-201,-43,-103,5,38,35,41,4,-57,-1,48,48,35,-23,46,49,59,30,-2,45314
-23,-14,-6,-9,-18,-15,-24,-140,-9,2,121,-62,293,-81,-51,-40,-14,-20,-17,-48,-96,-45,-4,-19,-14,-56,-22,-11,-5,-36,-43,45315
1,-8,2,-8,0,0,1,58,-44,85,159,-60,317,-95,-43,-40,-39,-36,-52,-53,-77,-45,-35,-45,-28,-18,-48,-31,-29,-68,-76,45316
-105,-24,8,-18,-22,-41,-76,-248,5,69,-113,73,15,-79,-34,-99,5,22,38,-98,-263,-109,-3,43,-96,-283,49,31,29,-6,132,45317
-87,-17,-7,-1,-32,-42,-41,-263,34,81,16,139,-162,175,10,-66,27,33,54,-63,-218,-60,40,65,-51,-253,50,46,60,15,100,45318
-58,-5,8,8,-12,-12,-39,-264,54,-17,266,-31,-76,26,-8,-64,8,14,36,-57,-183,-49,33,37,-42,-211,37,26,46,5,51,45319
30,11,7,26,19,13,20,92,-93,167,23,-41,-19,58,7,-23,-28,-21,-35,0,-27,-11,-10,-31,11,-14,-32,-24,-2,-38,-93,45320
14,9,1,2,3,-5,-4,-72,-3,186,22,-25,-140,-42,23,-19,-8,-9,-10,18,-8,-5,-4,-21,14,11,-21,-7,2,-22,-61,45321
-89,-11,18,-15,-24,-39,-103,-236,15,42,-169,23,-10,-58,22,-69,42,46,87,-40,-201,-53,53,78,-42,-241,83,62,81,42,175,45322
-203,-46,21,-41,-62,-63,-235,-268,-11,-65,-69,-3,163,-195,-22,-172,29,46,125,-154,-447,-166,35,120,-139,-560,135,81,101,53,277,45323
-273,-78,27,-53,-74,-65,-324,-337,100,68,-140,-82,150,-359,-37,-247,31,51,166,-223,-617,-233,25,156,-194,-808,163,102,135,76,334,45324
-224,-64,17,-26,-58,-49,-247,-423,7,-10,-70,-140,13,-222,14,-197,38,49,144,-167,-519,-182,38,136,-140,-720,129,81,123,71,249,45325
-200,-40,29,-3,-33,-36,-185,-233,26,-37,66,-44,12,-217,-21,-165,68,71,161,-124,-455,-124,80,154,-89,-665,149,111,140,85,249,45326
-49,-6,-6,-7,-2,-5,-22,-78,73,15,202,48,72,219,9,-63,3,-8,45,-40,-182,-29,22,30,8,-293,18,36,49,-3,-32,45327
2,-7,-13,-15,8,12,23,-123,-16,35,-115,6,-49,39,-28,-35,-41,-41,-12,-15,-83,-15,-24,-29,17,-130,-36,-14,-10,-46,-130,45328
66,0,13,-7,31,39,58,3,-85,-47,-155,53,96,-208,-16,3,-40,-42,-44,23,9,23,-28,-54,52,22,-52,-37,-34,-43,-145,45329
52,7,26,3,36,48,31,-62,-39,42,138,23,146,-140,0,1,-23,-25,-55,15,-15,18,-3,-43,29,22,-39,-25,-19,-31,-39,45330
25,5,14,-3,28,30,12,-123,-48,6,154,-13,15,45,-9,-25,-32,-30,-55,-4,-59,2,-5,-39,-1,-28,-34,-42,-22,-25,-5,45331
25,6,13,3,28,26,11,-144,132,63,-298,2,-81,27,-31,-27,-39,-35,-51,-17,-54,-5,-28,-42,-2,-17,-49,-51,-24,-26,-21,45332
-125,-14,46,-7,-13,-8,-157,-195,137,66,-231,-24,189,-161,-60,-136,7,29,91,-123,-353,-108,32,98,-110,-421,76,53,69,59,221,45333
-199,-45,29,-12,-42,-44,-228,-136,76,0,-318,-9,152,-205,55,-189,29,48,174,-155,-523,-151,61,165,-146,-654,146,111,126,113,281,45334
-156,-29,10,5,-26,-31,-151,-155,40,-16,-49,112,256,39,53,-149,27,54,161,-108,-419,-109,41,147,-95,-578,143,106,129,118,227,45335
-118,-17,-5,0,-19,-21,-97,-192,-13,-42,-158,62,254,37,54,-103,29,53,125,-53,-310,-55,40,127,-38,-462,113,96,119,103,145,45336
-19,5,-4,21,13,11,28,-78,-9,-33,-79,100,376,3,26,-9,16,24,64,20,-107,15,33,68,42,-210,52,57,81,54,18,45337
26,28,-7,35,22,19,92,-279,41,-90,-53,120,94,58,23,37,40,38,51,72,7,65,64,45,85,-73,38,61,72,57,31,45338
-3,12,-11,22,11,3,41,-199,-75,-57,-64,17,-11,193,-22,11,36,40,26,44,-27,38,54,34,43,-127,33,40,61,54,26,45339
-1,3,14,18,31,28,4,-151,-66,17,-73,-3,-51,144,-23,-20,2,10,19,9,-56,5,28,18,11,-146,4,15,23,16,-2,45340
-65,-33,8,-12,-16,-4,-97,-41,5,-89,-61,32,-194,-20,-21,-74,-7,11,58,-53,-175,-44,25,43,-39,-290,30,34,33,27,74,45341
-28,2,10,5,-3,-1,-48,231,87,-2,106,63,-278,68,60,-38,30,33,66,-7,-131,-9,53,58,4,-236,47,47,59,44,111,45342
-47,-5,6,15,6,5,-54,227,24,96,29,47,-503,-75,-62,-47,49,51,84,-10,-164,-19,63,69,-4,-297,80,71,84,54,99,45343
-173,-52,20,-12,-32,-17,-190,-66,42,123,-152,-110,22,-207,-53,-158,24,41,125,-118,-396,-128,57,108,-110,-618,116,84,104,67,243,45344
-242,-63,36,-10,-42,-14,-259,-324,123,-3,-114,-115,-116,-269,-44,-232,33,49,166,-190,-561,-195,46,153,-171,-847,145,108,125,102,294,45345
-261,-72,25,-14,-50,-19,-262,-112,67,-100,-226,-12,-65,-24,-12,-249,15,31,147,-204,-597,-198,48,136,-175,-888,135,82,117,95,199,45346
-65,-8,17,24,10,23,-37,136,-24,-184,3,155,-14,305,68,-77,21,20,61,-34,-229,-27,54,48,3,-407,49,39,64,53,-14,45347
-12,4,9,22,13,33,18,151,29,9,-32,107,29,88,15,-42,-10,-12,11,-7,-126,-2,10,-5,23,-261,0,10,27,5,-37,45348
13,0,16,23,31,53,8,82,-3,38,-22,32,-106,-60,5,-58,-37,-37,-15,-27,-137,-24,-19,-31,0,-235,-32,-19,-10,-32,-67,45349
-56,-17,17,2,-4,20,-67,8,-77,148,-132,-63,-71,78,-10,-124,-36,-26,-3,-100,-298,-83,-26,6,-73,-404,2,-6,0,-15,55,45350
-93,-20,24,-1,-16,6,-101,10,-21,32,-68,17,26,167,35,-146,-25,-14,5,-124,-373,-105,-23,17,-108,-504,26,8,33,-10,126,45351
32,9,3,12,25,34,36,164,1,-3,1,93,127,83,54,-15,3,4,-13,25,-114,29,17,-6,47,-173,-13,6,28,0,-21,45352
-39,-10,-3,7,-4,-4,-41,41,61,6,2,7,100,43,42,-42,18,26,49,-2,-197,-7,48,53,4,-288,41,44,57,35,122,45353
-418,-96,48,-37,-100,-104,-444,-214,98,19,-266,-152,42,-111,-123,-339,68,109,280,-287,-922,-292,92,301,-293,-1287,285,179,208,191,648,45354
-517,-126,46,-52,-119,-114,-539,-254,-47,2,-381,-159,-231,-144,-115,-455,62,90,318,-370,-1145,-382,78,329,-364,-1626,309,181,235,209,651,45355
-371,-103,16,-31,-78,-59,-386,-258,-6,-106,-330,-117,-109,-64,-59,-356,26,37,221,-272,-897,-278,41,224,-232,-1345,202,129,173,154,453,45356
-5,-1,-13,45,25,32,40,48,-41,39,101,34,-76,168,31,-35,37,1,129,31,-179,37,71,77,95,-458,50,98,105,91,26,45357
65,18,-26,37,40,46,124,166,8,89,255,12,16,119,-42,30,18,-14,58,64,1,80,66,8,124,-194,-14,46,43,21,-85,45358
5,7,-10,23,20,25,33,223,-1,113,97,-24,-168,105,-42,-32,19,10,7,0,-133,4,39,10,31,-350,10,19,28,11,28,45359
-17,1,-6,10,15,26,3,35,-20,27,-108,-3,-84,90,14,-46,10,7,-7,-10,-146,-17,36,4,9,-364,7,17,17,23,1,45360
-29,-23,-5,-17,4,4,-14,43,74,-8,19,24,-114,189,18,-57,-10,-24,2,-23,-132,-24,10,-3,11,-360,-8,15,8,14,-17,45361
-20,-7,-6,0,7,3,-9,89,-12,111,3,10,442,56,-35,-43,8,-13,25,-5,-96,0,26,13,24,-321,-5,32,28,25,-26,45362
-107,-26,2,-16,-18,-19,-111,-32,-79,127,-472,-76,340,-70,-14,-102,29,29,76,-57,-248,-46,48,72,-42,-518,57,64,69,61,150,45363
-402,-83,56,-41,-86,-86,-438,-273,-34,-161,-464,-191,-12,-169,-59,-337,92,121,275,-270,-856,-262,113,295,-257,-1348,277,191,212,210,619,45364
-511,-104,73,-23,-104,-101,-545,-151,50,-168,-487,-220,32,-207,-128,-429,123,161,387,-341,-1131,-336,153,407,-309,-1752,377,260,298,291,744,45365
-441,-92,24,-8,-95,-87,-434,-169,7,138,-228,-85,-24,-16,-120,-354,122,140,371,-260,-1004,-256,163,367,-202,-1607,341,263,291,287,597,45366
-42,-9,-27,37,21,-5,22,105,-206,54,-3,75,-153,116,41,-55,56,16,122,31,-249,34,96,79,119,-607,62,106,119,115,-54,45367
138,30,-23,45,66,51,191,191,-200,-44,84,207,-52,124,70,77,7,-36,-53,137,119,158,34,-75,202,-79,-73,7,-4,-5,-273,45368
61,20,-9,24,44,43,105,29,30,3,-271,113,-65,225,38,8,5,-26,-40,67,-26,82,16,-42,110,-220,-42,1,0,-13,-157,45369
151,45,-18,45,67,67,180,187,43,61,-296,181,-69,186,130,43,-32,-68,-120,95,102,110,-25,-119,130,-22,-122,-61,-69,-70,-261,45370
150,30,-26,47,58,59,157,169,75,9,66,206,6,161,51,42,-36,-67,-121,97,105,99,-16,-112,105,7,-120,-61,-65,-71,-227,45371
142,39,-28,49,51,51,168,258,6,-75,222,121,-60,143,67,73,-6,-13,-56,132,126,132,24,-53,131,47,-63,-8,-13,-25,-161,45372
-129,-30,-6,-8,-29,-21,-105,21,37,-49,-93,8,-68,-45,17,-116,22,22,77,-67,-317,-57,51,70,-63,-532,76,61,59,41,222,45373
-370,-83,50,-16,-84,-62,-381,-219,153,36,-441,-105,-72,-123,3,-318,62,87,251,-243,-816,-234,85,242,-229,-1239,253,159,177,162,558,45374
-394,-94,41,-26,-84,-66,-418,-288,88,-33,-425,-77,-352,-76,-83,-317,124,143,325,-232,-905,-226,143,336,-208,-1408,312,218,256,238,610,45375
-259,-67,21,-17,-56,-41,-284,-31,117,-62,-49,-1,302,-62,-37,-224,124,111,270,-128,-675,-120,143,256,-85,-1141,230,187,221,205,388,45376
6,-14,-16,29,14,22,-3,224,-39,-60,191,-19,-110,261,46,-51,36,0,40,32,-166,41,60,15,83,-462,3,41,60,52,-143,45377
78,8,-19,38,39,49,86,145,-127,10,143,43,-176,120,0,9,-11,-32,-41,64,7,73,9,-43,114,-217,-64,-7,-11,-6,-214,45378
62,11,-14,23,31,31,61,73,-82,95,135,40,-130,169,-18,-7,-15,-33,-21,27,-21,44,2,-29,87,-241,-39,6,-19,-3,-123,45379
10,-3,-8,12,12,31,15,219,53,-106,147,2,-61,62,-26,-32,23,6,25,3,-112,17,37,22,43,-353,15,41,28,44,-32,45380
28,-3,-34,20,21,30,55,139,24,-120,-30,-14,-243,-32,46,-6,28,13,6,33,-59,42,44,3,73,-290,0,34,30,27,-70,45381
5,-12,-42,6,9,18,30,14,-49,0,13,10,-24,-13,20,-26,3,-12,-23,1,-63,18,26,-14,46,-307,-17,5,-5,0,-28,45382
-52,-8,-14,4,-2,7,-60,184,117,51,-9,-23,-35,-102,33,-66,30,22,36,-27,-160,-24,48,48,2,-457,44,40,34,53,123,45383
-159,-30,-6,-17,-33,-35,-196,211,66,9,-313,-126,81,1,-15,-145,29,44,116,-85,-346,-86,60,122,-66,-725,100,83,89,103,191,45384
-109,-33,-19,-23,-26,-30,-190,119,2,110,-101,-123,90,141,-16,-122,-1,3,80,-54,-279,-57,37,73,-23,-637,53,56,61,80,112,45385
-21,1,0,13,14,3,-101,173,-8,119,185,-6,0,296,51,-36,40,31,76,14,-142,27,65,76,63,-464,66,86,85,96,95,45386
86,19,-22,39,43,34,84,359,-52,196,148,6,71,71,73,48,40,23,17,101,51,113,59,16,147,-172,9,44,49,59,-46,45387
182,41,-61,52,55,45,265,290,-68,197,273,108,135,115,91,136,14,-11,-76,196,281,197,40,-81,217,159,-84,-11,-21,-10,-256,45388
120,42,-59,38,28,17,224,138,-27,84,175,45,-60,99,52,83,-9,-33,-85,133,187,135,18,-82,138,67,-83,-29,-40,-37,-178,45389
36,21,-40,16,11,1,117,133,107,22,-147,11,-64,75,40,21,-14,-30,-40,63,51,63,10,-54,70,-103,-52,-21,-22,-30,-103,45390
78,21,-27,24,35,37,141,222,55,-68,19,21,52,-92,37,50,-5,-25,-51,97,98,85,19,-75,86,-25,-67,-26,-31,-38,-168,45391
34,2,-19,9,14,34,76,243,2,-27,161,62,61,-60,75,-10,-20,-26,-74,34,-16,23,-15,-77,16,-138,-56,-47,-55,-60,-114,45392
37,0,-24,5,10,26,72,149,19,-27,-59,26,-72,159,98,-17,-31,-47,-74,26,-12,21,-20,-80,13,-141,-71,-53,-61,-69,-119,45393
-8,-6,-15,-4,1,3,37,-35,39,59,-29,-96,151,84,34,-41,-28,-32,-50,2,-73,-4,-31,-56,-19,-232,-46,-44,-49,-57,-34,45394
2,6,-1,18,9,7,48,-22,-23,81,-3,-30,93,165,-4,-32,-2,2,6,11,-71,20,7,-4,9,-236,2,8,-8,-13,2,45395
7,4,1,28,15,4,55,37,18,163,47,-49,-313,60,-16,-14,26,20,48,23,-43,37,65,21,34,-231,26,42,28,19,28,45396
82,21,-12,40,27,35,117,7,74,165,210,-51,-423,23,-21,26,-15,-32,-55,51,96,81,-2,-62,66,-36,-65,-43,-44,-45,-162,45397
129,29,-20,24,30,45,138,319,-54,-31,155,-34,-127,79,7,62,-35,-56,-103,87,197,95,-44,-106,88,105,-98,-69,-80,-65,-209,45398
179,19,-37,5,35,52,201,434,-74,4,42,36,-162,-126,13,101,-63,-87,-143,143,360,143,-70,-161,135,322,-161,-96,-128,-107,-324,45399
154,18,-34,-2,19,52,193,144,-15,-70,158,-19,134,-191,39,92,-58,-80,-139,120,359,128,-68,-148,112,330,-153,-96,-120,-92,-240,45400
153,41,-22,29,42,57,218,323,-32,56,184,15,505,100,59,123,-14,-36,-97,131,358,146,-21,-99,133,327,-90,-52,-77,-49,-179,45401
204,48,-53,21,49,45,286,190,-58,35,263,-10,-71,215,31,162,-36,-63,-109,180,503,199,-37,-139,184,529,-123,-58,-102,-67,-296,45402
274,65,-65,39,67,57,374,130,-79,124,280,52,-129,204,147,231,-36,-63,-144,260,673,272,-41,-176,245,764,-166,-89,-129,-69,-389,45403
372,108,-44,61,100,102,478,442,-84,-32,317,224,-69,220,139,317,-34,-56,-220,316,849,334,-46,-216,296,1035,-206,-136,-173,-97,-427,45404
275,83,-35,30,66,59,361,451,-80,35,186,106,74,21,61,249,-22,-36,-144,234,660,245,-30,-155,204,834,-143,-87,-132,-73,-250,45405
242,60,-49,14,43,31,312,192,-38,26,85,30,75,-123,67,212,-55,-65,-160,209,601,199,-66,-169,157,790,-161,-109,-139,-97,-226,45406
151,32,-25,6,14,7,168,214,-22,35,-71,17,-68,-85,30,129,-43,-34,-127,126,394,122,-61,-122,69,533,-101,-93,-104,-60,-142,45407
90,19,-40,0,-7,-14,91,103,-1,-106,48,-7,34,44,14,74,-37,-29,-108,96,283,88,-43,-97,41,394,-83,-85,-90,-49,-82,45408
29,10,-22,-5,-17,-16,15,81,64,39,16,-61,104,-55,22,27,-35,-22,-78,48,134,30,-43,-60,-18,208,-43,-53,-64,-44,-17,45409
12,-5,-18,-6,-15,-11,4,65,8,37,39,-80,2,-62,-30,14,-21,-12,-31,40,85,18,-32,-37,-17,137,-28,-20,-37,-23,-2,45410
20,1,-10,0,-15,-2,27,230,-29,-28,-65,-6,161,-91,29,34,6,4,8,50,86,28,-4,-10,6,134,-3,4,-16,-16,14,45411
-63,-23,7,-18,-35,-27,-45,126,-78,-58,157,-78,-36,-10,-37,-30,6,7,18,-17,-69,-44,-5,23,-65,-74,21,13,0,-3,103,45412
166,38,-15,18,43,35,211,154,-176,-83,282,47,-69,4,8,151,-12,-40,-112,159,353,140,-39,-116,127,477,-108,-61,-70,-72,-245,45413
262,60,-43,10,52,54,314,161,-189,14,225,51,-77,76,25,231,-43,-69,-201,222,585,201,-75,-209,188,802,-194,-120,-148,-147,-391,45414
231,56,-40,12,41,31,268,318,46,145,90,-6,48,63,-9,206,-43,-58,-187,176,517,164,-69,-192,141,759,-166,-116,-145,-130,-310,45415
153,34,-35,-9,20,-1,190,170,5,191,73,46,-135,-58,8,153,-35,-42,-148,116,404,116,-52,-150,72,626,-127,-91,-125,-101,-190,45416
-10,-3,-8,-35,-14,-23,8,76,4,157,3,-51,-218,-28,9,27,-1,22,-27,6,106,14,-11,-21,-43,214,-8,-9,-43,-6,45,45417
-66,-29,3,-37,-29,-22,-72,194,36,-2,-21,-133,-74,-20,-2,-39,-10,12,12,-55,-40,-43,-20,8,-92,18,28,3,-12,14,86,45418
7,-10,7,-18,-13,5,-2,142,81,-93,-142,-20,65,-311,62,-16,-39,-32,-23,-34,49,-27,-30,-49,-47,133,-39,-34,-44,-47,-6,45419
28,4,-12,-10,-5,-18,33,150,30,-113,126,64,-23,-259,50,14,-24,-16,-43,-2,95,2,-41,-58,-25,170,-35,-45,-43,-44,15,45420
36,25,-34,-8,-4,-14,75,136,-141,9,-136,77,-185,20,29,37,-28,-21,-58,21,139,24,-35,-62,-9,226,-43,-44,-45,-45,-58,45421
34,13,-27,-11,-18,-15,73,-47,-91,-66,-79,129,-179,-106,-17,40,-36,-26,-52,18,137,30,-36,-56,-9,227,-39,-34,-41,-49,-93,45422
89,24,-16,0,5,15,134,45,-46,-126,383,131,383,-48,41,84,-44,-28,-70,75,254,80,-28,-67,51,381,-60,-45,-44,-61,-125,45423
213,40,-20,13,48,47,257,335,36,-21,343,118,120,36,61,179,-54,-55,-147,155,472,155,-53,-152,118,710,-145,-93,-111,-122,-298,45424
213,30,-21,2,41,50,247,330,4,148,59,122,58,159,39,165,-75,-80,-203,128,463,135,-81,-194,84,723,-176,-139,-158,-187,-282,45425
173,23,-13,1,35,48,193,-7,15,52,-97,89,140,98,10,120,-79,-90,-212,87,397,87,-103,-199,37,647,-182,-148,-166,-221,-204,45426
8,-2,9,-24,-14,12,-17,-106,89,99,-164,-23,193,-14,-29,-10,-54,-54,-95,-47,77,-38,-90,-85,-110,213,-70,-77,-98,-166,69,45427
-26,-6,7,-21,-20,-8,-61,-18,-36,-9,-87,-111,45,70,55,-2,18,10,37,-32,-20,-27,-4,30,-85,70,29,21,9,-66,122,45428
-48,-27,-14,-41,-44,-46,-58,-24,-44,73,-189,-61,22,154,2,3,32,32,52,-14,-21,-4,22,36,-60,49,45,32,29,-44,108,45429
-35,-17,-6,-24,-25,-41,-29,-7,3,-56,-97,31,-88,135,-37,35,59,51,66,30,14,15,34,64,-22,71,62,53,52,-35,71,45430
-17,6,1,-13,-11,-20,3,0,6,-79,-196,4,-70,154,14,55,64,60,72,52,41,37,31,76,10,102,70,60,63,-20,32,45431
-55,-2,-4,-5,-23,-35,-43,-122,39,-68,-103,-50,-54,-2,0,2,34,24,60,-3,-45,-15,2,51,-49,3,59,46,37,-37,13,45432
80,1,-12,-7,10,17,58,55,-37,-114,5,-30,-92,-98,-30,37,-39,-65,-76,35,141,25,-61,-96,6,263,-85,-57,-70,-133,-205,45433
370,65,-37,35,96,116,339,285,-92,-61,67,128,-66,-22,75,247,-92,-134,-283,230,682,223,-114,-293,203,1007,-281,-177,-205,-261,-591,45434
392,73,-41,25,86,90,398,391,76,-41,260,110,154,-125,99,314,-77,-111,-287,271,808,264,-95,-294,234,1207,-272,-169,-211,-252,-548,45435
359,87,-21,34,82,80,383,309,123,-49,259,31,210,55,87,327,-46,-62,-248,257,790,261,-76,-243,204,1195,-215,-142,-178,-216,-422,45436
83,26,1,-22,7,11,73,190,31,-42,-56,40,552,79,29,112,-22,-7,-124,65,302,53,-67,-92,-14,564,-63,-79,-94,-137,3,45437
-68,-23,21,-43,-25,-23,-102,-51,-46,-41,-202,-12,565,-146,41,-31,1,14,-3,-45,-22,-61,-35,14,-121,129,30,-20,-18,-59,179,45438
-64,-22,17,-31,-20,-5,-77,-138,21,-9,-80,-11,261,-128,-46,-26,-13,-8,8,-47,-23,-48,-35,14,-94,111,13,-14,-14,-60,60,45439
-39,-19,10,-24,-25,-17,-51,-106,-38,-13,-227,18,174,12,-119,-17,-14,-9,25,-33,16,-14,-21,7,-64,134,11,-7,-12,-59,66,45440
-9,3,6,-7,-17,-18,-11,-39,-10,37,13,84,-255,-9,-68,17,11,21,31,11,70,18,-3,20,-29,191,27,11,12,-20,79,45441
-46,-14,-6,-7,-28,-34,-37,-41,75,-8,-102,128,-443,-115,-51,5,26,39,28,-12,-12,-14,-5,39,-62,104,43,7,24,-6,106,45442
-19,-23,-5,-10,-11,-17,-30,91,74,-112,-29,12,-194,-20,-114,-6,-3,1,-12,-34,-8,-25,-28,-5,-70,109,-11,-27,-16,-53,-14,45443
147,14,-13,11,24,41,151,187,36,-28,266,82,-101,41,-28,119,-16,-45,-89,91,298,98,-40,-106,61,521,-106,-73,-74,-115,-245,45444
228,39,-26,17,48,54,292,129,-1,36,347,173,-173,200,49,204,-39,-63,-161,164,516,166,-57,-169,134,836,-155,-106,-124,-142,-355,45445
152,23,-17,-1,24,25,194,147,-15,-67,121,41,-90,278,-6,142,-36,-48,-130,102,378,104,-65,-128,54,682,-127,-92,-100,-117,-214,45446
-32,-9,7,-33,-29,-21,-50,-109,66,-105,-110,-49,-15,-70,-62,-10,0,13,-10,-30,15,-34,-19,10,-99,188,6,-19,-20,-37,122,45447
-125,-29,11,-46,-56,-52,-167,-16,100,-51,-35,-192,3,-98,-62,-98,3,8,39,-117,-191,-128,-26,48,-170,-106,37,5,15,-15,197,45448
-92,-36,10,-40,-43,-40,-138,155,11,-75,109,-44,100,-201,-57,-70,6,5,30,-92,-140,-99,-15,33,-121,-64,24,11,15,-6,137,45449
-102,-38,8,-34,-39,-25,-146,-10,-34,-20,98,10,14,-145,-41,-55,33,39,81,-65,-168,-77,15,80,-95,-123,85,41,47,47,191,45450
-21,-15,-2,-16,-17,-3,-46,-190,-73,71,-21,-4,-132,-10,-4,-5,4,4,34,-24,-20,-21,-16,20,-30,65,15,6,8,-2,50,45451
-14,-8,18,-16,7,8,-61,-142,70,33,-177,-68,90,-20,-12,-31,-26,-31,-6,-58,-41,-52,-48,-17,-71,41,-23,-36,-33,-37,-1,45452
-89,-25,44,-27,-17,-7,-155,-189,37,83,105,-95,185,-59,-30,-93,-3,7,40,-109,-216,-112,-45,60,-135,-202,49,7,14,19,116,45453
-7,-10,6,-29,-5,-7,-59,221,-6,88,296,74,96,35,-58,2,34,25,60,-21,-39,-21,13,55,-30,16,35,32,39,29,24,45454
-26,-7,-17,-19,-13,-21,-51,158,-2,4,70,29,21,61,6,-6,26,13,29,-19,-36,-25,8,26,-37,24,22,10,21,11,42,45455
-78,-27,-4,-28,-32,-37,-108,-19,-93,-35,-172,36,-331,-22,20,-67,-12,2,17,-76,-147,-92,-26,33,-91,-123,23,3,8,1,76,45456
-144,-55,12,-51,-45,-45,-200,-34,23,78,-113,-41,56,-323,-66,-127,-17,-5,56,-146,-311,-160,-14,62,-151,-330,57,28,28,11,155,45457
-138,-61,9,-46,-41,-32,-180,-135,99,90,-97,-199,6,-260,-22,-133,-25,-14,21,-148,-303,-143,-26,33,-149,-328,34,1,3,-10,121,45458
-118,-32,13,-21,-22,-21,-145,68,18,51,-27,-63,156,-101,41,-103,-3,4,15,-110,-285,-114,-12,32,-114,-302,43,7,21,8,106,45459
-91,-36,-5,-22,-15,-33,-116,-79,-36,87,-57,2,-19,0,56,-89,-23,-15,-5,-101,-248,-109,-35,18,-99,-233,11,-10,-1,-16,57,45460
-122,-52,8,-30,-29,-29,-169,-103,5,51,38,-39,-119,-229,-79,-130,-8,0,47,-139,-327,-134,-14,60,-126,-354,49,29,18,4,146,45461
-121,-33,31,-9,-11,-6,-173,59,38,148,106,-51,57,-81,11,-134,18,38,89,-136,-384,-137,21,94,-119,-434,83,52,58,41,189,45462
-33,-4,14,17,7,2,-45,-169,-3,145,-58,39,-126,76,-10,-56,22,18,49,-69,-243,-55,23,54,-43,-237,34,33,45,17,54,45463
165,40,-41,42,34,27,201,-97,-109,153,257,180,-80,107,65,115,-1,-35,-79,87,178,99,-3,-82,118,319,-85,-32,-44,-64,-235,45464
246,52,-71,44,41,36,306,210,-141,26,288,230,-77,124,44,181,-25,-57,-180,150,399,158,-39,-171,161,616,-167,-97,-113,-125,-383,45465
208,50,-54,30,37,42,260,43,-125,-66,225,116,-85,-162,-64,158,-24,-47,-171,117,362,134,-32,-161,114,591,-157,-105,-113,-119,-340,45466
-70,-27,-5,-21,-31,-23,-70,-122,-3,-263,-75,-112,-107,-231,-121,-58,-23,-17,-9,-100,-141,-92,-28,-1,-117,-82,-3,-19,-34,-39,40,45467
-233,-69,47,-36,-56,-37,-287,-84,140,-151,-196,-173,-120,-320,-101,-220,-8,13,115,-245,-519,-244,-18,122,-233,-610,125,49,45,45,296,45468
-202,-63,35,-29,-50,-21,-276,-75,69,-67,-621,-77,45,-261,-70,-210,-9,13,80,-226,-496,-218,-26,99,-201,-606,99,26,42,44,249,45469
-101,-34,33,-6,-22,-4,-163,-16,-66,-20,-180,-41,-16,-173,-51,-143,-4,3,55,-146,-328,-135,-9,50,-124,-420,39,18,21,28,98,45470
-135,-33,34,-5,-28,-23,-203,-99,9,150,-67,19,-165,-64,-82,-148,38,50,117,-148,-384,-132,31,117,-116,-522,100,80,76,81,285,45471
-155,-31,1,-2,-35,-54,-198,-67,-34,121,-139,4,-21,-111,-18,-108,93,96,203,-108,-386,-97,105,186,-63,-560,163,157,155,147,326,45472
249,74,-55,63,64,42,276,300,-139,177,333,244,-79,188,32,218,46,15,-24,197,373,212,67,-57,260,454,-70,23,12,5,-393,45473
944,239,-149,156,239,215,1044,805,-290,50,808,473,-236,469,187,748,-100,-179,-553,657,1737,680,-86,-588,715,2349,-555,-295,-348,-343,-1356,45474
1168,276,-161,136,288,269,1257,761,-298,49,846,456,-359,482,222,924,-193,-275,-813,784,2274,802,-192,-830,774,3176,-773,-467,-556,-537,-1644,45475
957,226,-116,79,224,212,987,674,-186,-59,550,345,-101,382,172,756,-191,-237,-736,617,1947,612,-213,-727,540,2880,-660,-432,-537,-521,-1222,45476
-68,-2,26,-68,-62,-66,-127,-45,-20,-190,-427,-216,-104,-4,-45,-7,-13,36,-117,-124,32,-150,-63,-39,-247,366,27,-51,-113,-99,406,45477
-491,-87,87,-86,-155,-150,-551,-359,38,32,-659,-150,-183,-113,-105,-315,112,186,259,-370,-853,-397,64,329,-443,-900,354,179,187,185,855,45478
-474,-90,78,-60,-129,-139,-540,-567,102,-88,-321,-113,-37,-42,-135,-309,128,179,303,-343,-918,-359,102,350,-378,-1053,355,201,239,231,748,45479
-408,-87,64,-38,-98,-103,-470,-404,18,-66,-309,-131,-99,-10,-120,-287,121,147,292,-311,-885,-327,111,320,-316,-1039,319,201,230,206,582,45480
-373,-95,68,-40,-91,-80,-440,-251,-58,-88,-281,-260,103,-34,-94,-305,67,97,260,-320,-873,-328,64,258,-295,-1043,248,156,192,148,513,45481
-346,-90,100,-30,-65,-31,-435,-168,-32,-50,-236,-288,495,-172,-86,-323,32,57,202,-331,-889,-345,25,210,-307,-1095,203,110,153,120,393,45482
-3,-25,22,-1,16,37,-52,10,-80,-42,42,-39,287,103,53,-77,-34,-64,-41,-90,-257,-96,-37,-48,-40,-272,-55,-33,-17,-37,-230,45483
587,107,-107,73,151,130,615,345,-179,34,408,175,-36,380,148,402,-122,-195,-397,352,935,354,-109,-449,403,1356,-428,-236,-274,-301,-1014,45484
857,196,-114,111,219,191,911,530,-133,13,454,326,-36,290,188,645,-163,-226,-585,552,1543,557,-150,-617,561,2229,-571,-341,-402,-419,-1250,45485
727,175,-80,77,176,142,757,508,-67,-6,503,209,-112,-25,167,567,-158,-178,-558,441,1384,443,-154,-549,401,2077,-489,-312,-392,-387,-955,45486
-72,-7,36,-46,-42,-50,-117,-223,40,-43,-137,-89,-24,-370,-59,-50,-53,11,-105,-144,-85,-161,-74,-45,-229,143,3,-53,-103,-94,262,45487
-431,-85,109,-64,-104,-99,-508,-400,83,-43,-410,-167,-31,-265,-98,-322,51,127,221,-372,-856,-398,20,267,-423,-952,287,139,139,141,698,45488
-339,-74,77,-36,-82,-75,-398,-211,116,-28,-118,-104,-82,-6,-37,-263,55,95,226,-299,-736,-312,45,240,-300,-868,237,137,153,153,505,45489
-352,-67,72,-36,-79,-74,-409,-183,201,-41,-151,-138,105,-121,-87,-288,54,90,230,-316,-792,-321,48,239,-312,-981,250,137,159,147,502,45490
-341,-72,60,-32,-70,-71,-409,-318,192,-87,106,-234,45,-148,-37,-306,32,61,197,-323,-788,-325,42,203,-302,-1016,206,114,146,136,410,45491
-259,-49,57,-19,-56,-47,-315,-188,110,67,-31,-46,99,-71,6,-255,33,48,171,-253,-656,-253,55,159,-213,-868,164,97,119,114,316,45492
121,31,-16,35,37,32,127,212,180,164,-25,115,116,271,124,69,8,-17,-12,58,88,65,33,-58,125,96,-57,-5,10,-7,-332,45493
963,222,-146,144,254,226,1089,780,-20,54,711,355,-78,597,259,740,-156,-247,-582,658,1777,686,-115,-652,724,2429,-635,-347,-384,-395,-1537,45494
1032,232,-124,125,255,237,1129,610,-306,-111,542,302,-61,389,241,800,-194,-262,-719,679,2005,688,-180,-742,652,2844,-706,-420,-508,-502,-1378,45495
578,132,-69,46,114,108,594,398,-211,-25,357,98,-295,236,100,452,-149,-163,-508,334,1197,318,-164,-484,247,1847,-429,-304,-376,-373,-607,45496
-85,-13,25,-52,-70,-67,-132,-168,11,-119,-90,-121,-217,-253,-101,-62,-42,-2,-98,-151,-93,-168,-80,-44,-260,153,-2,-67,-99,-106,342,45497
-338,-62,70,-60,-117,-119,-406,-355,81,-18,-165,-129,52,-275,-119,-255,40,93,161,-300,-648,-322,2,194,-372,-651,208,92,93,77,600,45498
-340,-65,74,-39,-95,-102,-403,-209,91,161,-274,-143,-30,-137,-57,-245,85,128,226,-265,-700,-284,43,255,-308,-777,257,146,170,159,582,45499
-342,-60,84,-42,-81,-70,-392,-199,203,79,-252,-237,-119,-147,-66,-254,82,111,243,-266,-730,-277,56,254,-270,-854,256,154,194,165,502,45500
-300,-56,86,-25,-62,-40,-369,-181,215,66,-123,-202,-98,-211,-52,-228,72,86,200,-235,-679,-251,57,215,-234,-816,210,132,169,137,389,45501
-276,-67,64,-46,-72,-48,-376,-112,88,-104,-79,-223,28,-169,-49,-219,58,61,177,-215,-633,-228,57,190,-212,-780,176,109,139,106,342,45502
-177,-55,43,-36,-41,-37,-295,-122,10,-70,-202,-180,-31,-87,-46,-146,46,38,139,-153,-463,-164,42,121,-124,-578,115,90,108,80,183,45503
18,-6,0,-20,16,21,-62,-84,-22,-78,-87,-99,-138,124,-36,-6,-8,-10,10,-18,-90,-23,3,-26,20,-73,-27,11,16,-15,-100,45504
120,33,-11,4,39,43,102,-19,33,-37,82,-94,33,-41,-15,98,15,-5,-39,71,125,68,10,-57,88,213,-60,-2,-12,-29,-183,45505
97,39,-19,24,25,13,131,53,12,64,108,-35,12,-23,47,105,29,21,-22,69,124,61,24,-36,72,211,-31,10,-8,-8,-87,45506
-159,-25,27,-6,-39,-40,-128,-7,0,111,49,-245,-113,-96,16,-102,57,77,110,-134,-367,-136,57,108,-134,-437,120,92,91,86,279,45507
-305,-68,54,-45,-77,-69,-314,-366,221,181,-240,-146,-65,-341,-68,-250,35,69,159,-257,-677,-270,47,166,-247,-869,179,97,119,105,423,45508
-254,-52,60,-20,-45,-40,-275,-190,226,122,31,-120,-40,-204,-82,-232,33,45,177,-222,-635,-236,49,162,-195,-839,154,96,121,112,344,45509
-214,-53,42,-14,-41,-37,-231,-30,39,112,145,-141,205,-127,-87,-204,12,27,140,-195,-560,-196,45,125,-158,-752,118,72,96,95,284,45510
-191,-54,32,-7,-29,-29,-214,46,55,78,66,-82,321,-173,-66,-203,21,25,135,-181,-547,-186,47,114,-144,-745,112,65,95,96,220,45511
-109,-36,26,-8,-15,-3,-122,128,-12,32,220,-105,99,-64,-48,-150,2,2,55,-127,-388,-131,11,57,-85,-548,55,24,58,47,107,45512
-187,-45,10,-21,-45,-45,-174,34,-74,22,-86,-90,-40,-62,-37,-170,17,38,114,-157,-476,-154,32,111,-119,-672,108,57,91,77,225,45513
89,25,-14,42,40,16,155,41,-47,-83,246,113,-13,27,92,58,14,-24,16,66,43,74,30,-36,119,13,-37,3,19,11,-189,45514
184,44,-22,39,54,40,233,42,-125,-45,182,146,149,99,10,124,-17,-54,-83,121,250,124,-8,-117,153,316,-126,-51,-66,-59,-246,45515
-26,-11,0,2,-13,-12,-9,-190,-231,-7,81,37,229,29,-24,-30,-5,-12,-13,-33,-114,-42,-5,-1,-20,-155,-9,2,-12,-6,75,45516
-105,-16,23,13,-13,-17,-92,-222,-72,-9,-22,-14,-98,-124,-33,-95,10,22,61,-100,-302,-97,13,75,-75,-423,78,46,51,60,192,45517
-86,-5,24,22,-11,-8,-66,-27,-3,-36,107,62,-299,-75,-52,-92,14,8,49,-93,-282,-91,13,47,-62,-405,47,32,49,37,104,45518
-125,-40,10,-10,-34,-36,-111,-78,-25,-170,-3,-95,-105,-41,-48,-125,13,2,54,-118,-333,-119,7,58,-94,-481,46,35,41,32,150,45519
-118,-30,29,-12,-15,-11,-118,2,24,-16,-101,-71,-174,-3,-37,-96,49,35,103,-82,-329,-94,42,105,-59,-500,90,75,87,74,189,45520
-97,-16,19,-11,-15,-8,-74,-3,43,32,-85,-28,-140,61,17,-94,30,1,58,-74,-290,-89,22,62,-61,-439,54,24,40,41,116,45521
-102,-18,8,-4,-24,-42,-56,22,-7,-25,-213,-82,-116,100,24,-107,26,2,77,-71,-284,-88,21,63,-57,-458,62,36,47,45,146,45522
-148,-25,20,-9,-38,-53,-108,126,87,-35,-172,-96,19,114,3,-133,33,32,130,-109,-383,-126,47,121,-92,-605,124,80,90,81,279,45523
-245,-46,44,-13,-42,-54,-251,-140,81,130,-147,-122,199,23,-104,-239,40,43,182,-203,-615,-216,47,183,-178,-925,176,107,131,121,394,45524
-300,-78,46,-29,-65,-76,-353,-228,65,-63,-161,-135,144,-17,-85,-298,37,43,224,-244,-742,-254,42,204,-213,-1118,194,128,148,128,393,45525
-250,-63,40,-19,-47,-63,-294,62,89,64,-186,-11,55,-36,-50,-220,63,76,245,-163,-618,-175,78,225,-116,-999,204,150,170,146,317,45526
-79,-28,3,8,-5,-13,-88,94,27,200,66,73,-10,133,1,-98,33,8,94,-36,-277,-42,47,83,28,-533,57,59,82,62,33,45527
19,-1,-14,36,22,17,23,-91,-32,92,-7,160,-12,15,-6,-34,-12,-41,-19,16,-79,16,2,-25,63,-258,-37,-28,-1,-9,-94,45528
44,7,-13,43,35,30,66,-153,-109,-122,-14,94,-97,49,48,-6,-7,-37,-7,46,-22,36,-3,-28,77,-157,-29,-26,-7,-15,-122,45529
28,-13,-6,16,30,27,37,74,15,-142,-184,22,9,96,31,-22,-10,-42,-11,10,-55,11,-2,-24,53,-172,-27,-24,-7,-25,-105,45530
-40,-18,10,2,7,-5,-24,118,-35,-118,-27,-90,52,71,-41,-45,36,18,71,-8,-166,3,52,49,20,-311,58,38,61,43,0,45531
-77,-7,4,16,-12,-21,-26,-19,-67,-76,-213,35,-143,54,-79,-32,85,63,144,15,-193,25,93,132,45,-363,126,95,121,110,149,45532
-116,-11,0,19,-18,-42,-51,-36,25,-104,-290,49,21,-52,54,-55,76,74,142,-17,-235,-6,87,138,10,-431,134,101,123,104,262,45533
-521,-116,53,-57,-132,-133,-515,-416,162,-59,-572,-88,9,-224,-29,-407,99,128,336,-314,-1015,-323,92,363,-307,-1495,343,202,245,234,749,45534
-542,-132,68,-58,-127,-119,-551,-331,177,-7,-224,-124,2,-239,-17,-462,73,92,376,-339,-1120,-344,77,366,-300,-1669,337,201,258,247,639,45535
-370,-64,74,-4,-59,-47,-363,-122,184,23,-95,-118,164,-182,-36,-319,91,83,351,-204,-846,-196,106,325,-143,-1369,283,197,251,244,399,45536
45,28,3,55,44,52,87,115,58,54,196,98,21,179,85,-5,32,-10,103,98,-54,107,52,65,173,-340,26,41,90,93,-159,45537
255,68,-38,76,87,76,295,108,-5,59,7,235,-56,319,111,161,-3,-53,-50,221,378,230,23,-92,285,264,-107,-41,-19,-20,-359,45538
204,48,-49,44,52,42,244,80,79,98,14,94,-112,98,51,124,-25,-54,-54,187,361,187,10,-95,210,264,-107,-44,-45,-35,-274,45539
127,30,-34,32,30,27,160,91,64,38,53,13,-24,-11,35,74,-25,-45,-34,122,237,136,10,-56,132,119,-62,-32,-38,-23,-165,45540
155,38,-34,42,47,49,177,194,-12,-75,112,24,136,96,28,91,-27,-49,-82,133,289,143,-11,-90,133,196,-86,-62,-53,-28,-218,45541
133,34,-35,31,48,44,171,-24,25,-31,152,28,25,24,-75,86,-8,-37,-60,127,277,130,14,-69,126,191,-67,-42,-39,-31,-148,45542
-51,3,0,11,-1,-2,4,-181,-27,-10,-166,22,-293,-170,-32,-33,22,16,58,7,-25,4,38,55,1,-213,61,29,41,45,135,45543
-324,-69,59,-28,-71,-64,-316,-193,19,-50,-465,-81,-44,-353,-81,-257,44,68,208,-198,-566,-205,67,221,-208,-957,223,107,147,156,509,45544
-531,-137,95,-64,-111,-89,-593,-430,141,-59,-579,-181,-80,-227,-123,-461,58,95,331,-366,-1029,-376,98,345,-363,-1610,331,167,228,226,739,45545
-463,-115,109,-37,-79,-40,-553,-123,90,67,-435,-146,-41,100,-76,-415,92,112,364,-293,-983,-310,126,374,-270,-1601,341,196,270,269,646,45546
39,18,27,36,54,70,32,157,-3,150,-1,184,17,260,58,8,68,37,140,111,-44,105,104,108,173,-368,81,88,134,140,-101,45547
321,86,-43,74,104,105,390,319,-112,-7,259,206,84,301,126,276,37,-3,-34,340,581,353,74,-74,385,511,-91,-4,5,25,-415,45548
286,83,-37,62,97,87,362,202,-202,-198,143,126,-128,184,101,279,43,13,-42,327,569,325,82,-63,337,563,-68,4,-3,14,-301,45549
268,71,-56,44,63,70,348,-38,-177,-80,56,93,-40,228,49,253,9,-23,-98,304,583,295,30,-108,323,633,-107,-37,-45,-21,-371,45550
243,47,-54,21,40,52,295,139,-89,-53,78,112,-43,159,0,202,-54,-79,-159,248,552,239,-48,-168,241,659,-165,-99,-109,-88,-402,45551
237,39,-36,20,56,64,270,206,86,-140,250,96,-105,-49,-2,181,-74,-94,-181,221,540,222,-82,-186,199,659,-173,-138,-142,-100,-339,45552
-406,-105,81,-67,-106,-76,-462,-299,305,-196,-235,-305,9,-346,-191,-333,19,66,188,-259,-680,-276,-2,239,-324,-961,251,91,110,150,792,45553
-1953,-458,314,-266,-495,-429,-2176,-1349,443,-105,-1388,-878,298,-859,-447,-1535,315,492,1254,-1354,-3734,-1380,296,1357,-1406,-5170,1318,731,842,879,3013,45554
-2250,-510,311,-226,-538,-484,-2474,-1451,430,108,-1293,-866,-90,-958,-410,-1793,441,586,1638,-1506,-4538,-1525,454,1680,-1436,-6489,1579,959,1166,1157,3178,45555
-1684,-398,180,-117,-372,-346,-1806,-1062,355,11,-939,-491,-210,-589,-246,-1418,353,409,1354,-1107,-3647,-1094,407,1318,-909,-5488,1212,793,1006,982,2042,45556
-12,-23,-64,121,90,66,52,44,83,262,308,226,105,303,142,-142,95,-24,356,112,-502,150,190,205,382,-1346,108,197,319,301,-545,45557
676,115,-165,146,223,204,796,554,-143,184,668,328,176,576,135,428,-85,-223,-237,584,1036,621,7,-361,776,807,-399,-144,-135,-126,-1219,45558
611,133,-130,118,178,176,732,614,-154,44,537,332,224,457,125,427,-57,-152,-239,536,1079,563,12,-319,657,940,-328,-135,-155,-133,-912,45559
504,108,-129,85,130,103,626,441,-86,-7,474,285,161,311,201,369,-59,-117,-251,457,972,477,0,-285,526,865,-284,-141,-166,-128,-721,45560
457,120,-117,91,125,73,586,280,-25,-100,215,257,100,295,111,367,-23,-63,-212,448,941,469,15,-225,487,862,-221,-97,-130,-70,-559,45561
457,126,-103,102,127,81,583,249,-84,-67,103,257,-132,371,73,366,-28,-67,-227,431,974,458,-4,-242,466,963,-235,-109,-148,-90,-530,45562
-110,6,-1,10,-22,-35,-44,-44,108,27,-171,-44,23,-143,-29,-58,60,88,106,18,-59,34,72,131,15,-381,138,81,72,125,428,45563
-1191,-266,148,-142,-305,-298,-1245,-801,308,5,-780,-480,77,-711,-188,-874,264,369,831,-723,-2153,-726,255,905,-734,-3267,881,518,593,637,1916,45564
-1533,-352,211,-148,-357,-335,-1666,-1125,283,156,-856,-579,124,-680,-222,-1212,306,407,1126,-980,-3014,-984,317,1166,-924,-4552,1094,671,803,833,2207,45565
-1262,-316,169,-106,-279,-228,-1418,-699,245,122,-612,-420,121,-375,-178,-1108,224,264,990,-834,-2697,-818,269,958,-692,-4222,873,564,708,718,1533,45566
67,-5,-28,97,88,103,81,359,-29,138,354,288,10,378,87,-56,72,-38,230,168,-204,198,151,116,373,-941,44,131,209,222,-467,45567
680,129,-133,144,223,214,776,702,-227,181,617,450,-55,611,113,454,-52,-188,-282,582,1104,621,13,-367,733,924,-380,-164,-164,-131,-1087,45568
567,106,-123,105,166,150,642,510,-142,221,-3,357,39,355,65,386,-62,-153,-309,486,1012,517,-25,-344,565,908,-346,-177,-191,-153,-836,45569
501,108,-112,90,130,115,579,389,-51,208,306,309,-238,170,206,361,-58,-121,-278,440,936,470,-20,-297,482,897,-300,-152,-175,-139,-674,45570
484,107,-113,73,106,102,583,364,-149,232,272,308,-159,201,176,372,-72,-117,-284,436,957,451,-40,-296,456,974,-289,-165,-198,-152,-633,45571
464,100,-101,64,114,111,540,383,-70,217,273,290,-224,166,142,375,-55,-82,-263,412,952,430,-28,-273,421,1000,-262,-137,-179,-137,-554,45572
-307,-74,20,-54,-82,-65,-350,-433,-18,16,-174,-121,-90,-400,-53,-241,36,83,150,-178,-518,-180,52,198,-221,-923,206,105,85,132,737,45573
-1605,-370,221,-208,-395,-360,-1808,-1215,236,9,-1166,-666,222,-778,-351,-1285,242,405,986,-1125,-3127,-1130,250,1097,-1156,-4525,1074,594,681,704,2500,45574
-1750,-422,210,-195,-418,-374,-1943,-1155,258,-17,-1211,-695,181,-629,-288,-1440,306,426,1209,-1216,-3618,-1203,324,1258,-1124,-5361,1204,719,875,861,2358,45575
-1084,-277,104,-81,-228,-182,-1174,-621,266,87,-740,-323,373,-237,-144,-939,253,273,917,-695,-2457,-664,310,874,-509,-3944,815,556,686,665,1229,45576
129,-9,-83,85,82,101,170,320,-10,48,151,200,291,365,77,11,86,-17,175,204,-120,243,168,73,434,-869,20,120,182,178,-488,45577
583,113,-128,132,197,195,666,723,-137,5,662,280,-77,335,163,366,-51,-154,-246,491,853,530,39,-322,660,548,-334,-125,-142,-113,-1006,45578
528,99,-120,95,162,169,589,640,-245,-70,461,243,-11,308,117,306,-95,-178,-293,409,838,439,-18,-334,521,619,-339,-168,-210,-170,-871,45579
521,104,-101,98,148,152,572,587,-261,-26,432,354,562,330,122,322,-91,-138,-302,404,880,426,-37,-323,470,730,-310,-168,-217,-162,-728,45580
428,88,-85,74,118,120,485,474,-132,94,335,289,242,193,161,271,-87,-113,-258,341,754,363,-38,-261,396,623,-251,-142,-189,-134,-526,45581
410,84,-76,71,114,124,478,336,-13,79,445,249,118,90,145,293,-60,-86,-243,352,766,364,-23,-241,390,675,-226,-126,-164,-115,-495,45582
248,44,-57,27,60,79,298,145,-72,-67,355,109,-31,22,76,175,-56,-51,-191,234,492,249,-32,-172,234,362,-154,-98,-138,-76,-292,45583
-108,-29,-2,-12,-38,-12,-94,55,-31,-52,4,-41,37,-49,-22,-123,-16,6,-6,-42,-179,-26,-9,43,-49,-544,50,0,-23,47,124,45584
