226,140,113,-23,40,-22,39,40,19,-70,6,-228,14,-228,-7,434,-72,-6,-137,43,1293,16,-98,-144,24,6520,-127,-131,-137,13,-201,91396
461,188,46,-7,83,9,329,155,-67,46,31,-47,152,19,-51,633,-127,-83,-326,199,1827,241,-149,-343,196,7217,-315,-239,-269,-111,-597,91397
481,183,58,-11,86,8,337,92,-60,-31,129,-146,181,-19,-40,638,-163,-108,-383,172,1909,266,-185,-384,183,7361,-354,-282,-321,-149,-580,91398
403,164,87,-21,70,2,211,99,26,-96,-14,-37,114,-156,-49,564,-148,-88,-322,84,1744,220,-183,-326,92,7146,-297,-250,-290,-128,-404,91399
383,187,107,-10,76,9,201,-30,-86,-132,52,27,163,-69,-101,574,-76,-22,-227,100,1717,262,-125,-237,102,7076,-204,-166,-204,-55,-307,91400
364,187,99,3,69,-14,214,-79,-42,-103,37,50,206,-12,-42,590,-55,-4,-208,109,1712,269,-106,-213,122,7070,-182,-152,-191,-25,-324,91401
266,167,119,-10,49,-38,101,-168,-26,-67,-94,-51,67,-89,-36,492,-54,0,-152,25,1506,161,-100,-155,36,6815,-132,-125,-157,10,-164,91402
160,143,148,-31,30,-45,-24,-213,-110,-86,-136,-20,54,70,-70,386,-38,21,-70,-51,1259,55,-86,-85,-51,6485,-69,-80,-95,43,-31,91403
178,143,126,-33,18,-50,29,-135,11,-37,-186,-20,-276,3,-64,407,-60,-1,-98,-28,1273,57,-103,-120,-30,6523,-89,-109,-119,23,-122,91404
283,160,91,-17,43,-46,183,40,14,-94,65,-23,-125,71,-34,507,-81,-28,-201,63,1475,120,-131,-206,54,6857,-177,-169,-183,-37,-304,91405
225,128,78,-48,26,-61,122,-48,29,-129,8,-118,332,69,-6,469,-80,-14,-195,21,1383,42,-137,-198,-9,6789,-164,-165,-178,-37,-217,91406
163,117,116,-46,23,-36,15,17,73,-140,-20,-188,181,-184,-62,399,-81,-5,-153,-31,1208,-46,-144,-153,-81,6556,-109,-148,-159,-16,-100,91407
191,111,118,-50,35,-27,-8,-28,46,28,-59,-181,241,-180,-128,393,-90,-23,-156,-37,1204,-62,-143,-173,-77,6552,-136,-154,-163,-34,-136,91408
186,108,113,-54,24,-47,-14,-139,76,-110,24,-157,117,-174,-128,387,-89,-26,-151,-42,1178,-64,-134,-181,-77,6521,-140,-146,-156,-37,-132,91409
192,115,120,-48,27,-28,-2,-45,57,3,43,-116,23,-162,-110,387,-91,-29,-174,-24,1206,-50,-126,-197,-65,6561,-168,-161,-173,-56,-176,91410
230,133,122,-32,56,-10,37,75,75,217,197,-44,46,-173,-79,403,-100,-34,-184,-11,1241,-53,-139,-207,-55,6622,-182,-169,-193,-78,-250,91411
220,121,102,-34,36,-44,20,81,28,30,-129,13,454,-301,-64,385,-117,-40,-190,-32,1200,-71,-153,-203,-83,6597,-179,-172,-197,-92,-226,91412
177,111,120,-36,28,-54,-34,-144,61,9,-101,-66,649,-222,-30,346,-110,-27,-174,-64,1114,-90,-159,-184,-115,6472,-147,-161,-168,-62,-124,91413
102,110,153,-33,20,-56,-102,-78,213,40,55,-105,399,-68,19,316,-58,24,-58,-58,1003,-86,-106,-69,-112,6270,-57,-92,-75,27,25,91414
196,124,110,-28,19,-46,34,-12,72,-5,217,6,267,22,43,426,-50,22,-81,51,1252,48,-93,-106,10,6598,-101,-108,-96,30,-131,91415
277,159,95,-9,37,-33,157,-133,126,-44,313,-9,269,54,-23,543,-1,63,-87,139,1453,151,-54,-101,103,6874,-89,-74,-91,39,-143,91416
302,170,101,-9,50,-11,184,-40,175,44,112,27,131,169,-66,555,-27,44,-144,127,1498,162,-72,-148,96,6958,-123,-105,-124,7,-222,91417
252,144,112,-21,33,-24,89,66,164,-89,12,16,31,-67,-35,442,-111,-33,-224,13,1357,61,-146,-223,-5,6821,-187,-183,-191,-67,-258,91418
184,120,112,-45,25,-25,-23,-202,143,-218,6,-73,95,-104,-107,339,-145,-60,-237,-112,1150,-59,-194,-233,-118,6586,-203,-198,-220,-104,-172,91419
56,84,128,-68,-4,-61,-171,-241,-10,-117,-130,-209,68,-234,-133,255,-95,3,-99,-201,834,-162,-148,-91,-203,6170,-61,-95,-108,-12,95,91420
58,105,148,-48,3,-61,-145,-129,-11,-51,-205,-266,78,-248,-138,269,-51,43,-50,-162,807,-144,-94,-40,-163,6136,-15,-46,-48,39,101,91421
107,120,140,-24,15,-55,-71,-109,-36,-51,-29,-179,157,-238,-116,300,-59,12,-97,-118,915,-111,-107,-95,-129,6273,-69,-86,-88,8,-75,91422
432,193,82,25,102,21,298,-33,-45,28,280,63,91,92,-22,567,-88,-58,-265,126,1550,143,-126,-296,123,7118,-261,-199,-215,-118,-554,91423
709,258,33,45,162,78,621,251,-115,93,381,214,8,440,70,800,-160,-124,-489,293,2137,350,-189,-514,291,7945,-469,-329,-386,-271,-904,91424
717,251,25,18,155,59,633,189,-47,-22,501,179,87,310,63,803,-195,-150,-551,286,2229,346,-241,-562,250,8112,-514,-368,-439,-327,-908,91425
476,197,61,-29,80,-11,383,48,82,-103,344,133,261,6,-13,640,-170,-86,-428,128,1855,195,-219,-418,68,7638,-358,-286,-348,-248,-550,91426
77,104,118,-78,-29,-95,-55,-165,126,-67,38,-32,-25,-86,-54,355,-59,42,-92,-96,1105,-42,-138,-91,-193,6591,-54,-82,-114,-27,94,91427
57,109,142,-64,-4,-74,-115,-262,46,-221,-155,-112,-64,-162,-174,337,-47,55,-72,-93,1021,-34,-130,-54,-173,6437,-21,-82,-60,18,101,91428
112,127,167,-51,18,-46,-103,-84,28,-188,-255,-139,76,-127,-146,342,-79,19,-123,-80,1070,-7,-146,-97,-142,6462,-66,-118,-94,-11,4,91429
155,130,157,-29,31,-21,-67,-114,72,-5,-413,-126,134,-5,-123,358,-69,12,-111,-49,1132,36,-127,-112,-116,6501,-86,-107,-98,-17,-44,91430
240,151,130,-24,53,-12,39,-169,90,-51,119,-101,250,-50,-86,425,-58,2,-131,45,1349,153,-114,-152,-10,6762,-135,-128,-125,-34,-189,91431
262,139,105,-40,47,-27,83,7,-75,-85,101,-59,276,-39,-92,450,-93,-35,-186,70,1457,190,-164,-208,8,6925,-180,-169,-171,-71,-264,91432
332,157,105,-28,66,-11,150,95,6,-146,48,-66,276,49,-22,489,-131,-73,-266,67,1535,181,-193,-274,10,7077,-228,-213,-213,-124,-351,91433
369,168,122,-22,78,15,185,-48,-2,-118,82,131,435,76,3,515,-124,-56,-296,72,1576,184,-173,-298,22,7174,-249,-221,-231,-148,-364,91434
445,187,97,-22,83,16,276,-167,-39,45,201,30,226,100,-34,572,-129,-72,-349,114,1725,223,-190,-346,64,7419,-313,-256,-274,-195,-501,91435
266,149,108,-50,33,-37,118,-230,-41,-18,-218,-128,180,-77,-83,440,-121,-37,-272,-30,1392,53,-195,-258,-89,7037,-206,-200,-231,-152,-174,91436
-211,34,190,-86,-75,-147,-399,-215,47,-163,-475,-340,188,-312,-181,66,-39,90,34,-386,358,-359,-117,76,-442,5686,106,1,2,52,555,91437
-298,19,199,-78,-84,-153,-506,-349,146,-163,-438,-230,141,-335,-160,-7,14,141,158,-438,44,-474,-36,179,-464,5255,197,88,109,143,571,91438
-152,47,155,-49,-36,-106,-350,-400,-12,-93,-230,-199,7,-242,-118,105,12,116,101,-323,246,-400,-37,104,-317,5523,131,60,71,109,328,91439
-128,54,157,-38,-25,-92,-320,-264,-47,-48,-213,-179,-138,-7,-23,127,33,119,123,-294,245,-414,-13,115,-282,5531,134,85,108,95,319,91440
-161,28,149,-65,-47,-95,-357,-320,-29,-60,-330,-257,-23,-55,-135,64,-1,79,79,-340,133,-490,-34,79,-324,5420,96,45,67,2,290,91441
-78,64,156,-26,-5,-63,-268,-105,27,-4,-152,-162,133,-143,-96,109,-26,54,21,-298,225,-461,-54,23,-278,5543,43,-7,14,-76,169,91442
142,123,121,5,49,-21,-12,-92,39,29,-20,-12,140,-162,-89,287,-58,13,-124,-138,653,-262,-69,-124,-114,6083,-98,-76,-77,-208,-171,91443
411,163,81,4,104,41,266,175,-8,-71,51,137,225,-113,6,487,-131,-84,-344,22,1256,-13,-131,-353,59,6870,-324,-214,-248,-395,-594,91444
363,155,100,-21,93,34,187,192,-3,-55,-63,14,-153,11,-30,455,-142,-82,-345,-20,1256,-1,-162,-345,-10,6855,-314,-225,-265,-435,-509,91445
140,100,125,-55,35,-22,-67,1,58,-16,-41,-66,-187,-33,-67,297,-93,-8,-199,-158,889,-97,-117,-185,-174,6310,-153,-128,-157,-364,-129,91446
-144,43,163,-75,-40,-86,-369,-386,155,-20,-209,-265,70,-4,-97,64,-39,62,3,-336,337,-250,-60,22,-365,5491,48,1,-8,-234,331,91447
-156,45,160,-64,-36,-89,-359,-307,147,93,-203,-200,7,-181,-65,28,-35,51,43,-351,269,-219,-50,46,-359,5342,69,-2,20,-221,286,91448
-153,47,156,-54,-38,-98,-333,-305,152,64,-334,-186,163,-296,-65,21,-39,45,48,-344,275,-177,-64,36,-337,5286,57,-6,24,-237,242,91449
-123,59,158,-34,-21,-80,-301,-211,14,149,-320,-177,154,-275,-47,70,-28,61,65,-312,305,-125,-55,53,-291,5288,73,16,47,-220,244,91450
-174,31,166,-53,-23,-93,-422,-323,154,-29,-167,-293,145,-243,-115,17,-3,75,111,-365,170,-160,-26,104,-334,5070,109,52,85,-204,365,91451
-211,21,180,-56,-23,-74,-503,-334,229,-53,-274,-237,747,-291,-140,-29,12,93,150,-398,55,-196,3,143,-364,4863,141,79,116,-184,381,91452
-166,23,158,-47,-14,-80,-446,-191,100,-111,-302,-258,326,-300,-45,-16,4,68,100,-362,121,-182,-13,112,-334,4922,102,45,80,-211,280,91453
-138,34,161,-32,4,-64,-363,-162,2,-75,-82,-205,307,-276,-77,12,0,57,101,-337,177,-186,-6,92,-287,4985,91,56,75,-220,244,91454
-82,59,138,-30,10,-56,-233,1,7,-104,21,-169,147,-157,-145,66,-21,33,40,-301,270,-173,-25,40,-238,5139,33,34,41,-234,87,91455
-145,28,121,-45,-32,-87,-254,-391,17,-144,31,-136,77,-236,-164,4,-36,30,18,-343,154,-263,-54,18,-301,5019,26,2,13,-232,151,91456
-252,10,134,-53,-50,-105,-379,-487,29,-214,-183,-144,105,-85,-122,-84,0,73,128,-403,-114,-392,-6,125,-369,4676,129,68,99,-132,342,91457
-174,30,136,-35,-12,-62,-330,-266,-38,-134,-170,-133,250,-21,-80,-34,3,64,109,-345,-66,-407,1,109,-310,4788,96,59,91,-115,249,91458
-102,30,128,-29,6,-47,-261,-158,-55,-16,19,-104,154,-26,-58,3,-27,29,40,-310,12,-429,-28,54,-266,4939,43,8,39,-143,105,91459
-233,-13,138,-65,-39,-88,-398,-301,70,-73,-292,-147,116,-201,-92,-129,-57,14,73,-447,-290,-607,-56,89,-397,4577,82,18,46,-116,249,91460
-261,-12,147,-74,-52,-101,-442,-317,51,-59,-275,-113,206,-221,-84,-143,-30,39,112,-470,-401,-641,-29,124,-409,4439,116,62,86,-54,302,91461
-155,31,116,-29,-27,-78,-286,-239,61,23,-115,36,6,-79,-44,-11,-1,58,81,-338,-159,-494,0,92,-265,4726,83,60,92,-24,173,91462
-69,60,91,-2,0,-73,-152,-130,19,80,-119,33,13,67,-5,75,-13,40,34,-258,48,-368,-1,34,-176,4971,34,38,47,-40,51,91463
105,90,83,16,50,-14,-11,-23,-29,6,114,-28,102,40,-32,178,-48,-11,-79,-180,379,-220,-36,-100,-75,5384,-101,-45,-43,-121,-193,91464
137,89,102,2,63,29,-28,-239,-49,13,-105,-51,-10,-68,-51,158,-68,-35,-126,-202,442,-190,-62,-143,-108,5415,-137,-83,-92,-156,-178,91465
68,83,135,-8,50,30,-131,-45,-62,-36,-168,-68,95,-205,-89,94,-71,-17,-108,-256,320,-196,-51,-98,-180,5192,-94,-73,-79,-129,4,91466
-94,44,146,-31,9,-26,-285,-149,-17,-1,-197,-107,-62,-182,-125,11,-2,60,38,-320,73,-220,25,55,-239,4786,50,40,43,-7,238,91467
-114,53,123,-22,-3,-58,-255,-76,53,-8,-229,-84,62,-87,-67,31,29,93,128,-279,82,-167,59,126,-189,4750,100,102,105,62,259,91468
-135,44,123,-13,-7,-68,-270,-71,114,-21,-137,-26,373,-62,-37,12,46,117,163,-283,39,-151,58,168,-176,4651,143,132,140,105,313,91469
-169,15,117,-35,-28,-85,-310,-2,78,10,-217,-46,47,-377,-35,-53,7,76,129,-337,-31,-192,10,128,-216,4549,100,83,95,75,278,91470
-268,-11,146,-45,-46,-81,-432,-221,67,-74,-351,-194,-46,-373,-115,-175,-22,46,135,-459,-286,-307,-13,145,-338,4204,117,69,97,73,412,91471
-229,3,153,-26,-28,-63,-382,-277,115,-80,-210,-222,-568,-258,-46,-156,-19,35,142,-441,-264,-295,7,142,-313,4167,110,70,110,81,312,91472
118,97,95,46,63,4,51,58,9,-21,258,-13,-256,-91,-57,165,-13,-6,-6,-127,461,18,21,-35,21,5118,-74,-15,3,-2,-207,91473
325,143,27,60,93,16,296,205,-2,-66,364,69,-33,168,-4,347,-71,-54,-206,0,926,147,-29,-222,152,5817,-227,-116,-153,-140,-479,91474
377,155,29,44,100,26,311,112,-56,-187,106,165,-188,363,-39,380,-97,-80,-304,-18,1019,122,-73,-299,115,6005,-274,-161,-222,-218,-506,91475
182,113,73,1,50,-10,63,23,6,-71,-130,63,115,103,9,250,-55,-7,-191,-154,654,-37,-63,-164,-55,5548,-131,-80,-127,-146,-70,91476
-416,-30,165,-84,-90,-141,-632,-479,68,-207,-455,-218,113,-451,-116,-228,53,139,211,-572,-563,-524,42,259,-495,3901,261,160,159,103,819,91477
-564,-65,179,-86,-114,-158,-776,-596,25,-124,-566,-252,-113,-271,-149,-358,112,186,374,-652,-975,-660,106,396,-571,3308,373,254,276,191,905,91478
-517,-43,194,-43,-89,-130,-704,-425,77,63,-563,-253,62,-324,-147,-322,148,199,378,-583,-977,-632,153,403,-507,3263,385,279,316,205,816,91479
-442,-43,180,-38,-67,-101,-624,-317,187,145,-468,-249,215,-460,-112,-308,77,136,304,-566,-896,-615,104,319,-473,3331,291,213,250,116,645,91480
-416,-49,175,-39,-55,-86,-613,-297,244,43,-281,-158,210,-315,-74,-332,39,100,307,-585,-907,-630,70,287,-480,3285,252,199,226,63,594,91481
-356,-33,156,-32,-49,-81,-538,-225,274,37,-257,-129,-8,-185,-40,-276,43,103,284,-539,-803,-557,95,259,-410,3377,231,197,221,43,505,91482
51,53,67,23,41,-13,-72,120,237,-11,0,-39,-121,-12,44,47,-33,-22,-39,-267,-3,-237,18,-51,-90,4466,-72,1,3,-165,-233,91483
608,190,-20,89,173,95,550,362,71,102,467,229,50,205,71,475,-167,-190,-490,66,1134,153,-113,-504,254,6052,-486,-269,-339,-492,-1037,91484
707,229,-15,88,180,115,638,463,48,70,454,217,139,66,115,549,-233,-235,-655,78,1415,204,-174,-638,233,6480,-600,-362,-476,-627,-1096,91485
400,167,65,37,92,52,281,293,74,-37,119,54,-267,-112,53,331,-162,-122,-459,-119,903,-1,-128,-408,-7,5786,-386,-235,-338,-516,-425,91486
-469,-27,197,-64,-100,-132,-651,-377,213,-37,-516,-269,325,-499,-125,-303,47,151,191,-638,-742,-576,56,258,-562,3505,250,174,155,-69,947,91487
-631,-58,212,-43,-120,-142,-798,-351,208,-98,-364,-224,345,-240,-130,-455,101,190,395,-696,-1170,-663,109,429,-593,2852,385,283,304,71,974,91488
-553,-65,185,-36,-96,-119,-723,-368,17,-33,-483,-245,168,-132,-107,-415,103,165,385,-632,-1111,-610,109,400,-501,2885,354,272,305,72,825,91489
-496,-46,172,-21,-81,-114,-649,-354,61,-242,-227,-251,139,-96,-178,-370,108,159,395,-589,-1051,-557,122,388,-428,2924,365,280,313,68,789,91490
-527,-43,167,-19,-84,-116,-641,-317,149,-262,-422,-148,97,-132,-133,-404,99,154,378,-610,-1129,-573,132,392,-432,2782,365,268,318,63,811,91491
-535,-48,170,-9,-82,-102,-631,-380,153,63,-468,-303,-213,-151,-80,-405,125,172,390,-612,-1199,-584,157,412,-415,2642,372,293,346,79,788,91492
-138,24,99,15,9,-13,-209,-27,30,18,-237,-81,-183,-50,-17,-94,63,65,163,-331,-458,-273,117,141,-97,3619,102,153,169,-88,60,91493
426,130,-8,48,128,93,370,231,-197,112,160,106,-202,32,10,304,-111,-144,-324,-34,657,83,-44,-355,215,5174,-362,-161,-214,-439,-801,91494
647,175,-19,58,185,135,555,324,-66,-6,370,165,97,-17,36,450,-207,-240,-564,33,1127,172,-139,-592,258,5888,-573,-316,-406,-639,-1057,91495
310,106,50,-3,99,60,148,249,97,-43,261,75,75,-104,13,180,-199,-167,-436,-263,519,-136,-138,-430,-94,5124,-396,-245,-335,-585,-411,91496
-716,-102,230,-98,-143,-152,-986,-456,304,-148,-641,-356,324,-646,-147,-621,32,145,296,-935,-1523,-888,54,351,-842,2298,346,210,201,-102,1208,91497
-898,-144,248,-92,-179,-178,-1138,-629,264,-53,-561,-408,168,-460,-184,-745,149,238,552,-982,-1986,-949,163,590,-848,1539,545,389,426,102,1361,91498
-885,-143,223,-81,-176,-186,-1083,-696,215,-118,-440,-290,73,-198,-67,-718,191,247,619,-922,-2009,-896,213,623,-759,1399,577,443,499,149,1261,91499
-800,-130,201,-48,-143,-155,-988,-653,169,-97,-448,-205,188,-195,-184,-675,173,214,568,-870,-1907,-823,220,561,-683,1464,515,404,455,120,1089,91500
-811,-149,191,-37,-129,-122,-1040,-648,171,-123,-639,-264,-64,-245,-181,-748,147,183,539,-919,-2022,-874,188,532,-732,1225,484,372,419,120,1076,91501
-751,-155,166,-47,-109,-106,-996,-663,164,-140,-482,-278,-54,-321,-176,-743,107,140,496,-900,-1996,-846,170,484,-685,1208,430,342,392,103,951,91502
-23,15,66,53,63,36,-176,37,77,-39,57,61,-94,-45,51,-174,-8,-44,67,-392,-604,-291,88,18,-119,3059,-38,85,93,-153,-258,91503
877,236,-78,145,257,186,864,531,-67,138,789,485,-345,379,232,594,-152,-263,-568,227,1303,396,-48,-636,513,5707,-645,-277,-389,-592,-1481,91504
1190,325,-131,159,300,215,1254,921,-177,119,860,573,60,442,314,896,-235,-328,-901,434,2147,654,-141,-931,672,6966,-888,-465,-634,-810,-1773,91505
693,224,-30,79,162,108,681,451,-37,25,338,248,-24,142,235,541,-168,-175,-667,98,1341,268,-108,-624,239,5971,-597,-317,-471,-654,-744,91506
-617,-74,185,-78,-143,-175,-821,-393,257,-59,-551,-381,382,-641,-123,-500,72,179,235,-771,-1256,-730,83,334,-708,2434,300,208,185,-49,1238,91507
-866,-149,212,-90,-188,-206,-1107,-559,279,13,-623,-378,229,-488,-139,-743,142,222,530,-880,-1924,-914,157,590,-779,1446,515,366,405,178,1328,91508
-793,-159,182,-82,-156,-164,-1014,-768,280,-44,-517,-375,-98,-399,-245,-715,114,167,507,-818,-1891,-890,154,529,-687,1444,454,338,383,170,1104,91509
-738,-146,163,-58,-138,-132,-947,-796,120,-131,-365,-296,339,-405,-228,-689,102,140,481,-774,-1862,-852,161,498,-614,1419,421,313,388,157,971,91510
-646,-122,145,-31,-109,-110,-802,-375,6,35,-475,-166,257,-301,-140,-615,96,127,450,-694,-1718,-764,164,454,-509,1562,381,305,374,148,836,91511
-626,-106,146,-7,-100,-107,-758,-296,48,88,-641,-199,-334,-241,-94,-627,104,123,450,-686,-1712,-750,162,450,-485,1528,384,310,368,145,799,91512
-396,-51,101,22,-31,-56,-495,-226,-12,94,-167,-153,-79,-31,-185,-451,65,54,304,-527,-1285,-571,141,282,-301,2078,220,223,262,42,382,91513
239,92,4,97,119,67,208,325,-101,-59,274,72,-31,268,35,71,-46,-99,-126,-97,-5,-79,50,-163,155,3808,-203,-37,-41,-239,-590,91514
851,217,-108,132,226,170,870,871,-261,-45,797,348,-59,512,245,579,-183,-246,-610,310,1347,405,-73,-647,538,5673,-645,-329,-402,-569,-1427,91515
506,155,-34,56,136,94,449,543,-13,-57,346,217,-117,289,12,335,-156,-163,-465,40,846,140,-57,-449,192,5044,-440,-223,-327,-512,-706,91516
-572,-78,148,-69,-122,-120,-759,-565,230,43,-650,-236,111,-382,-225,-522,40,122,250,-703,-1260,-652,78,313,-629,2152,294,204,190,-54,979,91517
-710,-117,170,-50,-146,-138,-913,-587,304,134,-544,-232,2,-422,-196,-677,76,130,416,-780,-1683,-745,109,457,-683,1477,410,278,328,86,1017,91518
-714,-113,178,-33,-135,-127,-912,-410,319,35,-559,-334,170,-505,-201,-700,83,128,461,-793,-1774,-729,136,473,-667,1277,418,314,365,129,1013,91519
-718,-130,150,-36,-144,-140,-885,-339,224,121,-399,-263,234,-288,-193,-703,107,137,489,-776,-1789,-688,172,497,-627,1159,433,341,381,180,962,91520
-651,-106,142,-6,-116,-111,-796,-279,192,55,-369,-182,241,-146,-191,-639,146,169,521,-713,-1708,-597,215,515,-535,1181,452,376,419,251,937,91521
-630,-116,134,-19,-107,-116,-778,-415,121,-36,-359,-202,174,-64,-128,-639,137,145,492,-709,-1700,-595,205,489,-531,1139,418,353,400,248,827,91522
-391,-71,101,1,-45,-59,-507,-171,55,-43,-202,-62,56,74,-29,-443,115,99,368,-517,-1239,-407,197,338,-312,1712,265,273,314,185,434,91523
20,29,25,47,47,34,-30,191,-113,-28,190,140,171,314,70,-89,32,0,56,-208,-358,-98,144,24,13,2918,-23,96,95,-4,-149,91524
162,57,-9,58,79,45,126,196,-116,-2,409,180,457,355,33,36,-23,-48,-87,-111,-7,-10,93,-105,89,3435,-142,20,-17,-100,-267,91525
-13,29,24,30,30,-17,-65,-242,12,3,28,28,250,92,-25,-104,-20,-22,2,-229,-311,-184,79,1,-66,3072,-44,55,19,-50,20,91526
-364,-40,85,-6,-61,-84,-448,-148,-103,-17,-288,-157,100,-255,-126,-392,34,52,221,-439,-989,-471,100,248,-309,2160,191,159,178,110,523,91527
-360,-38,93,17,-48,-63,-442,-153,-135,-59,-138,-61,14,-217,-133,-372,83,93,282,-383,-1022,-439,147,301,-248,2083,247,211,261,202,522,91528
-303,-41,64,9,-32,-45,-389,-275,65,-49,-114,-26,-285,-37,-160,-312,71,70,265,-309,-885,-395,144,266,-169,2252,207,197,233,195,428,91529
-317,-48,72,-3,-40,-34,-415,-296,120,-74,-188,-41,22,77,-105,-332,75,73,278,-316,-928,-419,159,293,-168,2200,219,209,246,209,425,91530
-284,-28,65,17,-39,-31,-354,-95,-9,85,-199,-103,44,-34,-83,-290,99,94,306,-267,-870,-380,182,300,-112,2272,240,230,263,232,376,91531
-290,-30,72,21,-30,-30,-344,-102,-37,55,-62,-128,23,-29,-57,-303,85,80,277,-296,-902,-405,163,279,-127,2246,232,201,246,215,393,91532
-317,-30,94,21,-35,-23,-383,-12,155,184,17,-21,63,6,-73,-364,58,65,269,-357,-1005,-457,137,274,-188,2094,224,192,232,189,400,91533
-362,-39,89,15,-49,-44,-435,-371,189,198,-249,-44,172,-136,-49,-394,55,62,297,-363,-1062,-450,136,295,-217,1971,244,204,247,206,481,91534
-520,-74,105,7,-82,-83,-630,-454,143,241,-596,-40,67,-148,-31,-516,107,123,445,-443,-1376,-530,180,434,-311,1489,375,287,354,301,735,91535
-446,-60,101,23,-56,-59,-561,-212,-13,174,-185,1,159,30,-55,-480,103,104,440,-428,-1291,-468,200,414,-258,1557,342,294,342,276,581,91536
-299,-45,80,30,-27,-22,-388,0,-93,88,-12,-27,107,-86,-66,-375,48,35,285,-341,-963,-332,149,263,-176,1936,202,204,235,162,292,91537
-269,-36,74,30,-15,3,-358,-131,29,-42,-108,-134,69,-121,-107,-343,48,45,255,-325,-866,-268,152,235,-168,1996,198,186,217,161,313,91538
-354,-49,82,11,-34,-24,-456,-281,190,-10,-233,-179,68,-133,-118,-407,68,72,328,-412,-1013,-308,176,293,-248,1751,255,232,257,193,469,91539
-420,-59,93,1,-49,-42,-532,-66,154,-21,-161,-178,28,-173,-83,-459,73,87,347,-459,-1133,-335,179,325,-297,1539,287,256,285,223,543,91540
-376,-52,72,23,-37,-41,-456,-290,108,-64,-291,-138,7,-72,-98,-423,73,76,305,-417,-1046,-279,177,305,-254,1612,273,224,273,219,480,91541
-373,-45,79,30,-31,-52,-444,-217,110,1,-316,-127,233,-107,-89,-427,87,85,319,-415,-1050,-287,184,311,-260,1566,289,238,276,223,502,91542
-432,-54,92,28,-52,-68,-504,-290,120,-49,-138,-115,-46,-1,-55,-454,110,121,385,-425,-1159,-332,206,373,-283,1411,336,278,327,269,566,91543
-724,-132,120,-29,-135,-134,-796,-355,182,-67,-376,-250,179,-250,-119,-675,143,178,558,-612,-1718,-565,235,555,-474,661,501,377,443,389,999,91544
-1134,-239,164,-78,-229,-210,-1233,-648,224,10,-549,-382,88,-480,-245,-991,246,299,883,-825,-2562,-863,349,881,-685,-544,792,581,693,615,1590,91545
-920,-194,139,-24,-139,-136,-1019,-624,59,72,-493,-128,189,-238,-182,-846,236,246,823,-646,-2297,-724,341,793,-453,-242,690,546,665,619,1110,91546
-141,-17,6,70,47,26,-177,-10,9,-23,86,131,-106,372,22,-279,50,-4,286,-141,-844,-206,186,223,96,1751,139,202,257,260,-112,91547
64,22,-27,68,75,64,43,83,24,77,205,164,24,180,59,-123,-19,-73,54,-24,-358,-81,112,23,181,2458,-29,53,79,92,-267,91548
49,43,-8,83,68,55,26,242,-37,94,259,184,196,51,16,-126,-20,-64,54,-48,-345,-105,103,28,130,2514,-16,52,63,89,-196,91549
34,43,-5,62,57,44,24,224,-11,72,215,96,23,136,27,-128,-39,-85,14,-53,-301,-123,81,-2,103,2608,-44,18,24,63,-198,91550
71,57,1,67,66,49,65,163,111,122,393,134,35,69,-17,-61,-10,-35,35,25,-182,-70,101,26,154,2780,-15,46,42,96,-158,91551
-33,30,1,50,30,6,-54,59,22,-71,147,155,524,46,-65,-100,29,21,123,-14,-327,-113,134,111,98,2625,78,114,108,142,71,91552
-348,-40,38,2,-52,-69,-433,-267,85,-91,-302,-9,181,36,-26,-341,91,108,342,-257,-957,-356,191,343,-158,1762,296,253,268,268,576,91553
-689,-127,105,-45,-123,-115,-848,-307,178,-25,-415,-200,-7,-321,-164,-622,167,195,555,-493,-1669,-604,248,572,-407,737,522,380,446,426,1092,91554
-1096,-220,176,-86,-206,-184,-1322,-658,217,75,-716,-363,60,-387,-187,-963,245,301,844,-752,-2545,-882,319,892,-661,-547,806,560,679,634,1638,91555
-902,-177,141,-25,-142,-137,-1073,-513,76,3,-375,-246,75,-191,-152,-857,216,219,783,-608,-2275,-711,292,788,-460,-290,691,494,642,594,1154,91556
-30,12,-24,87,58,46,-3,66,3,91,366,144,-163,350,28,-164,58,-3,215,-5,-520,-16,165,166,206,2046,108,152,225,218,-220,91557
172,55,-73,84,77,60,261,278,-52,-6,313,182,-50,290,48,15,-15,-76,1,103,21,149,104,-37,284,2779,-79,28,38,42,-428,91558
149,46,-70,63,59,36,235,368,-121,-58,138,151,73,239,-16,-5,-55,-92,-30,52,96,139,68,-76,221,2875,-114,-17,-34,-7,-354,91559
163,62,-63,69,66,35,248,267,-33,-79,199,105,-118,336,52,32,-30,-67,-38,73,185,173,77,-66,229,3002,-98,-18,-38,-2,-340,91560
115,66,-35,61,42,29,194,211,3,137,131,120,-57,54,34,32,1,-14,-24,71,159,173,103,-13,211,2982,-44,15,19,33,-215,91561
109,57,-25,53,49,41,164,161,-118,72,127,149,46,4,-1,26,-11,-20,-24,70,176,160,82,-18,203,3016,-47,16,8,29,-179,91562
-457,-66,87,-20,-58,-45,-495,-375,-18,-34,-157,-111,221,-344,-173,-441,79,114,354,-334,-963,-301,150,370,-251,1494,346,250,260,250,812,91563
-1093,-222,200,-83,-193,-150,-1275,-808,152,-65,-676,-490,108,-610,-287,-992,200,269,841,-751,-2380,-818,255,867,-688,-484,799,525,628,582,1666,91564
-1233,-280,190,-102,-227,-176,-1422,-921,117,-183,-884,-460,-221,-516,-375,-1117,242,290,990,-783,-2738,-906,299,996,-688,-1076,905,599,757,721,1726,91565
-894,-212,99,-30,-151,-128,-975,-649,88,-24,-482,-273,10,-152,-262,-838,233,219,865,-499,-2152,-624,312,816,-345,-346,723,529,677,660,1049,91566
154,46,-76,121,90,70,233,103,-57,112,244,273,-265,412,55,-8,49,-50,158,177,-135,133,176,68,398,2420,24,115,160,168,-529,91567
331,98,-118,108,111,82,443,46,-26,134,226,276,-377,410,66,166,-13,-75,-78,255,360,245,110,-130,444,3161,-136,-11,-7,-9,-567,91568
232,107,-72,100,93,62,334,147,44,125,436,278,-126,147,140,123,24,-15,-36,202,255,197,133,-44,345,3045,-52,30,30,39,-317,91569
186,95,-59,87,82,57,287,232,48,155,195,176,52,116,131,101,34,5,-22,187,233,172,135,-16,303,3050,-34,40,34,62,-246,91570
224,94,-58,81,77,52,303,82,-108,114,125,181,-108,177,126,129,9,-36,-34,206,359,198,104,-48,315,3215,-72,20,7,39,-327,91571
309,107,-85,67,91,56,387,71,-99,-59,308,221,34,155,27,188,-63,-104,-146,278,624,265,31,-160,358,3587,-184,-66,-92,-29,-504,91572
108,55,-58,37,45,16,143,-63,-105,-97,85,110,93,1,-11,30,-55,-57,-67,142,284,106,4,-45,171,3163,-66,-40,-41,59,-89,91573
-340,-52,29,-15,-59,-70,-345,-174,-31,-229,-301,-119,2,-15,-119,-331,43,71,273,-150,-612,-224,84,304,-137,1947,264,169,204,281,592,91574
-715,-126,98,-37,-141,-134,-715,-362,20,-126,-464,-306,-29,-213,-251,-611,150,189,601,-380,-1393,-471,190,624,-347,829,561,370,444,520,1113,91575
-549,-89,63,8,-92,-92,-492,-294,71,27,-263,-228,-122,-25,-170,-447,188,195,600,-182,-1117,-276,231,598,-99,1116,516,373,479,560,753,91576
382,124,-73,125,138,108,515,435,-151,269,374,199,-316,661,86,293,39,-42,-2,451,699,425,110,-51,606,3604,-94,12,45,184,-656,91577
444,133,-76,94,142,102,534,429,-82,169,290,223,21,274,101,332,-33,-82,-169,415,916,417,44,-197,547,3995,-192,-81,-97,37,-629,91578
319,88,-57,62,96,69,353,286,-91,167,272,187,-58,26,30,199,-77,-96,-198,247,666,261,5,-190,361,3743,-182,-110,-128,-4,-467,91579
196,67,-17,59,67,48,195,12,-2,216,52,87,-130,-22,28,90,-59,-59,-137,122,381,125,-3,-114,230,3400,-110,-64,-80,22,-236,91580
114,43,-32,17,26,3,122,-82,-34,-16,55,81,-112,125,29,26,-71,-67,-93,42,226,48,-13,-95,157,3225,-85,-48,-78,-16,-184,91581
119,59,-20,32,30,21,134,167,33,37,208,29,4,141,1,44,-52,-41,-73,52,231,57,8,-80,163,3229,-68,-29,-53,-9,-176,91582
-297,-33,53,-10,-55,-45,-337,-178,-10,100,-121,-145,233,-152,-80,-279,36,96,200,-219,-587,-240,83,230,-154,2112,241,143,147,177,605,91583
-799,-140,133,-50,-171,-146,-893,-539,124,102,-652,-337,102,-298,-196,-666,179,259,634,-492,-1613,-575,212,666,-448,613,641,393,484,492,1313,91584
-881,-175,141,-55,-184,-166,-975,-467,253,52,-644,-280,-204,-284,-211,-740,205,253,750,-499,-1849,-615,235,756,-433,218,695,450,572,575,1278,91585
-530,-105,56,-15,-93,-82,-578,-89,9,66,-408,-236,27,-73,-187,-488,126,128,524,-262,-1191,-346,167,501,-153,1038,435,293,414,426,591,91586
219,52,-45,66,94,93,256,266,-118,90,137,67,-30,244,14,71,-43,-101,-24,205,280,189,24,-77,347,3044,-97,-40,8,56,-563,91587
381,90,-57,71,114,109,437,306,-198,55,101,54,-51,364,42,201,-115,-166,-224,265,706,277,-53,-272,382,3665,-271,-163,-176,-110,-695,91588
382,98,-54,64,107,93,433,365,-269,67,156,180,108,247,104,239,-89,-129,-227,284,804,320,-30,-245,371,3811,-247,-147,-163,-94,-626,91589
439,131,-59,75,128,98,497,484,-138,133,379,179,427,196,79,342,-33,-72,-193,385,1016,429,13,-215,442,4100,-202,-100,-133,-46,-596,91590
451,138,-73,64,124,93,508,245,-35,44,418,254,299,370,37,384,-39,-82,-219,425,1129,440,-2,-239,446,4287,-224,-130,-153,-53,-595,91591
476,127,-93,38,107,79,529,310,-57,16,451,270,184,364,15,418,-60,-93,-247,454,1255,470,-19,-269,462,4503,-269,-154,-191,-76,-649,91592
399,117,-81,33,74,51,465,249,-63,15,147,205,-11,132,74,388,-50,-64,-209,424,1187,429,-23,-220,411,4441,-212,-130,-162,-26,-484,91593
53,46,-17,-5,-12,-16,113,87,97,45,-83,171,14,73,-15,121,5,20,13,200,540,166,9,27,163,3596,29,5,-9,138,43,91594
-268,-22,43,-26,-70,-70,-212,-411,158,38,-188,-43,108,-191,-31,-145,53,81,245,-28,-137,-91,61,251,-57,2690,238,134,156,295,483,91595
-162,-5,24,-4,-36,-43,-102,-254,27,30,-135,-21,165,-240,65,-72,64,73,228,69,-9,-5,70,209,60,2840,190,113,156,297,255,91596
342,100,-44,47,86,57,390,160,-72,81,231,205,16,85,173,299,-25,-69,-100,357,890,346,4,-154,408,4112,-159,-93,-97,64,-468,91597
291,93,-14,32,77,44,299,59,-83,9,63,136,75,198,104,232,-64,-80,-179,228,781,250,-55,-204,293,4047,-182,-134,-150,-23,-385,91598
231,84,-8,23,65,46,244,40,-32,39,97,174,44,331,29,201,-56,-40,-153,196,681,225,-51,-151,254,3947,-127,-101,-122,-9,-290,91599
156,67,-10,11,33,9,167,131,21,-31,73,112,130,45,1,164,-35,-12,-105,135,525,167,-29,-110,196,3776,-76,-54,-75,7,-162,91600
31,38,23,-2,5,-19,16,133,-26,117,97,29,83,-111,-92,50,-18,3,-35,-1,215,42,-7,-49,66,3381,-14,-12,-40,4,-14,91601
-18,21,30,-9,-19,-16,-35,128,7,50,87,-29,-185,-53,-28,2,-23,-7,-9,-56,94,2,-12,-25,18,3209,-9,-6,-18,1,49,91602
-197,-26,44,-44,-72,-63,-246,32,31,88,-139,-122,27,-220,-60,-175,-26,6,39,-211,-291,-177,-23,55,-170,2680,66,15,15,33,320,91603
-279,-45,57,-34,-71,-71,-329,-251,-30,89,-262,-68,23,-121,-61,-241,35,62,160,-246,-506,-231,35,174,-202,2336,169,104,125,124,437,91604
-222,-12,63,-6,-44,-46,-264,-69,6,49,-234,-44,-170,-50,1,-181,74,85,186,-201,-452,-189,71,186,-146,2377,186,129,144,146,336,91605
-54,12,18,6,-11,-12,-52,-33,33,-34,251,31,-267,118,31,-38,39,31,66,-65,-92,-63,44,47,-6,2845,61,61,58,68,42,91606
47,30,28,16,28,48,41,-91,145,-58,307,98,109,-9,16,48,17,6,7,20,132,15,34,-17,51,3135,-14,18,11,31,-69,91607
51,36,41,-1,36,46,-2,112,141,-154,-39,83,240,5,-49,28,-10,-18,-16,-9,112,-36,15,-33,15,3133,-39,2,-16,11,-85,91608
54,35,29,-1,28,27,24,118,60,-76,-36,3,72,144,9,33,1,-13,-17,-1,116,-51,17,-21,24,3165,-34,4,1,12,-52,91609
108,48,10,20,28,24,107,247,-53,76,140,89,-226,156,80,87,-4,-23,-43,61,242,2,4,-58,70,3342,-59,-24,-19,-3,-116,91610
147,46,-6,9,40,26,129,115,13,21,141,116,-85,163,70,103,-41,-47,-102,72,329,13,-30,-116,64,3475,-110,-67,-75,-38,-206,91611
140,49,-13,2,27,15,145,60,-9,-7,71,160,-271,40,53,128,-34,-34,-95,90,384,35,-21,-112,95,3536,-110,-60,-63,-37,-184,91612
103,45,-12,-5,13,-10,142,-121,-89,-11,16,128,-69,-48,-1,129,-3,-16,-63,99,367,41,1,-83,94,3526,-64,-35,-34,-11,-104,91613
47,48,5,13,11,-20,81,-107,-79,112,61,48,-32,101,-19,86,25,18,2,47,227,3,23,-2,57,3338,2,2,15,33,-5,91614
174,69,-11,28,44,25,232,121,-26,-113,186,1,46,120,14,177,-10,-19,-81,141,480,110,2,-105,158,3689,-92,-49,-57,-27,-228,91615
130,51,-8,18,28,15,162,40,31,-26,-57,-75,-172,-169,93,132,-26,-33,-102,88,419,66,-20,-107,105,3607,-83,-69,-83,-40,-145,91616
-24,10,16,-13,-16,-27,-63,102,95,-17,-143,-84,87,-296,-9,-19,-39,-18,-46,-89,60,-74,-30,-42,-57,3151,-18,-35,-45,-20,77,91617
-177,-21,35,-44,-48,-63,-228,-74,6,82,-153,-19,69,-108,-95,-123,0,36,71,-180,-223,-144,11,80,-135,2742,84,49,46,35,277,91618
-200,-15,58,-25,-42,-51,-228,-269,-34,79,-70,-116,-14,-42,-26,-137,50,78,115,-180,-304,-109,40,139,-121,2574,143,104,103,76,320,91619
-208,-18,48,-16,-43,-53,-228,-323,32,86,-119,5,52,-87,-23,-159,58,75,133,-183,-337,-94,43,141,-120,2485,142,102,115,64,327,91620
-191,-28,32,-25,-43,-50,-212,-66,83,-19,38,-7,38,-13,46,-158,32,36,118,-183,-303,-85,19,96,-108,2505,91,67,75,19,271,91621
-176,-42,39,-24,-27,-35,-233,-195,86,-56,-148,-28,30,-161,7,-184,8,14,90,-209,-343,-104,3,77,-126,2458,71,37,52,-7,185,91622
-95,-31,34,-8,-12,-9,-159,-32,62,19,-259,68,38,-191,-36,-135,-22,-10,33,-172,-218,-73,-10,17,-75,2601,17,8,26,-49,82,91623
-21,6,23,18,-1,-13,-51,93,104,78,-124,60,-49,-19,-19,-54,-7,5,-5,-92,-70,-25,0,-3,-12,2803,-15,12,16,-52,12,91624
61,52,7,36,24,-6,73,7,24,42,99,73,-52,-6,26,50,5,18,-27,-14,110,28,15,-31,50,3073,-25,3,5,-68,-43,91625
23,54,2,21,18,-11,52,144,136,108,318,102,392,-128,10,47,25,32,24,-6,84,3,49,5,28,3052,12,34,36,-56,29,91626
-54,23,6,-1,-9,-21,-38,-129,-13,65,200,107,531,-78,22,-10,46,47,61,-44,-41,-61,49,47,-21,2915,44,55,52,-21,115,91627
-91,1,3,-18,-23,-39,-69,-197,-92,-22,106,18,-20,53,10,-28,35,38,44,-71,-99,-113,42,50,-47,2856,41,44,51,-15,108,91628
-95,-9,8,-23,-27,-36,-69,-192,-44,-24,-129,46,-210,48,-21,-28,27,37,51,-72,-103,-129,34,48,-54,2834,44,45,54,-14,107,91629
-52,-7,-3,-22,-22,-41,-48,-171,-129,-126,-3,-15,-446,34,35,-1,16,20,35,-43,-46,-120,14,25,-24,2904,18,33,36,-19,38,91630
2,7,2,-26,-5,-18,1,-83,-164,-205,-6,1,-206,33,-18,17,-25,-21,-50,-29,43,-114,-20,-42,-15,3049,-44,-23,-28,-72,-103,91631
20,21,31,-5,18,28,-8,8,7,-204,-64,-53,-234,23,-42,-10,-44,-35,-76,-56,24,-130,-42,-53,-53,3029,-55,-46,-48,-85,-84,91632
-194,-28,74,-26,-33,-5,-264,-173,30,-9,-309,-247,-90,-264,-120,-201,-4,22,73,-226,-418,-298,-10,91,-220,2425,87,43,51,0,294,91633
-544,-107,95,-66,-130,-115,-601,-579,20,28,-389,-237,128,-312,-114,-442,95,142,371,-425,-1124,-513,98,384,-417,1440,360,248,275,195,786,91634
-568,-119,77,-57,-131,-130,-599,-383,58,41,-309,-151,264,-202,-116,-451,125,159,439,-430,-1231,-501,141,423,-385,1240,394,289,340,232,746,91635
-487,-111,66,-37,-97,-85,-539,-163,53,24,-416,-136,64,-315,-130,-432,83,104,346,-398,-1132,-461,109,325,-345,1331,293,229,265,167,526,91636
-247,-60,52,-3,-30,-20,-317,-78,38,30,-87,-38,101,-241,-90,-282,27,11,183,-255,-702,-272,67,141,-174,1864,109,114,135,50,162,91637
-129,-20,46,10,3,10,-185,-3,64,149,-11,11,-16,-107,34,-170,35,20,129,-160,-441,-131,67,97,-72,2182,73,94,109,14,111,91638
-128,-10,46,8,-4,7,-184,-66,72,130,35,70,-81,-99,81,-165,40,36,106,-168,-439,-113,59,95,-79,2170,87,92,114,6,117,91639
-85,4,32,7,5,15,-128,-19,-67,64,12,167,-118,-69,-22,-141,9,0,57,-146,-330,-69,35,42,-56,2287,35,57,78,-34,41,91640
-62,-1,12,6,14,14,-101,-33,-73,82,-164,38,-20,-41,58,-128,-14,-22,33,-119,-243,-32,5,4,-42,2388,2,27,39,-58,-14,91641
-81,11,26,12,16,2,-113,-18,9,100,-187,43,129,-5,80,-110,33,35,76,-113,-255,-20,64,65,-36,2366,52,71,83,-23,107,91642
-383,-77,43,-34,-90,-88,-426,-259,160,109,-308,-91,-85,-14,-8,-328,81,108,245,-321,-811,-262,101,252,-247,1619,230,181,205,91,570,91643
-857,-189,111,-77,-204,-191,-936,-520,223,-44,-673,-223,44,-408,-89,-724,154,204,556,-652,-1808,-655,162,581,-607,228,546,361,430,297,1174,91644
-824,-181,107,-39,-168,-163,-898,-622,111,-10,-878,-242,235,-377,-77,-740,138,175,581,-667,-1919,-689,169,570,-581,45,530,367,445,298,996,91645
-605,-119,81,-8,-102,-101,-663,-340,31,97,-535,-102,-186,-226,4,-601,97,117,419,-556,-1620,-584,149,410,-431,448,378,288,348,186,702,91646
-337,-63,43,14,-29,-34,-378,-118,14,138,-250,34,-61,-143,12,-380,79,70,276,-365,-1131,-390,136,252,-218,1101,219,212,248,99,296,91647
-216,-44,38,30,7,8,-257,-67,-89,102,-68,15,160,-23,86,-285,54,43,190,-292,-892,-318,107,168,-159,1426,145,165,182,46,199,91648
-354,-87,55,-4,-43,-26,-441,-206,-12,10,-192,-79,173,-137,-13,-433,32,42,215,-466,-1226,-509,89,204,-334,994,193,178,175,26,400,91649
-487,-116,89,-14,-81,-59,-585,-383,54,-69,-329,-81,36,-235,-28,-575,35,51,248,-612,-1577,-669,91,256,-471,529,242,200,211,28,534,91650
-574,-143,75,-24,-102,-92,-671,-234,89,97,-321,-195,-215,-261,-78,-627,82,103,326,-661,-1789,-731,142,330,-510,223,314,262,277,83,662,91651
-685,-161,95,-24,-115,-106,-777,-525,104,287,-331,-153,-200,-309,-166,-696,144,168,452,-736,-2088,-808,201,461,-568,-212,436,359,378,166,902,91652
-652,-159,83,-22,-111,-82,-730,-323,10,149,-289,-77,73,69,-116,-711,105,129,388,-756,-2102,-809,182,400,-569,-284,374,326,351,95,752,91653
-418,-93,60,18,-45,-19,-473,-127,39,69,-55,0,-137,-44,-30,-552,46,49,193,-635,-1696,-653,144,198,-417,209,182,196,207,-46,382,91654
-160,-30,15,46,20,16,-197,-39,-11,-48,100,127,-173,62,58,-349,0,-15,6,-465,-1177,-438,102,2,-232,881,9,93,74,-186,29,91655
-93,-17,-1,37,26,23,-124,31,-26,-137,16,176,-71,127,16,-295,-19,-35,-59,-429,-976,-362,82,-59,-216,1134,-49,46,11,-255,11,91656
-652,-150,67,-37,-124,-104,-702,-397,43,-227,-256,-155,-11,-81,-121,-697,83,122,313,-741,-1964,-695,167,345,-599,-310,330,279,285,-8,827,91657
-656,-160,46,-34,-134,-112,-699,-349,-11,-140,-118,-118,-138,-177,-105,-666,130,134,405,-626,-1921,-572,189,413,-488,-379,372,328,359,91,734,91658
-481,-123,13,-18,-82,-57,-544,-156,0,-153,-216,-45,-46,-49,-20,-519,123,100,354,-448,-1525,-363,185,339,-298,35,293,277,318,73,522,91659
-206,-64,-9,-9,5,27,-291,-125,-187,-211,-104,-3,-32,10,-3,-308,74,26,208,-207,-910,-84,164,174,-65,774,116,164,193,-20,88,91660
14,4,-2,41,74,90,-42,176,-52,-24,133,140,10,112,109,-116,62,7,106,15,-376,140,157,73,131,1460,8,115,128,-44,-138,91661
-60,-12,-4,46,29,36,-61,26,-75,117,89,196,-69,-181,33,-160,71,33,142,-41,-468,67,149,117,53,1357,65,137,138,-18,35,91662
159,40,-62,79,77,61,260,207,-129,7,269,196,-157,97,-9,-3,-16,-81,-45,85,-17,196,57,-91,196,2026,-127,1,-10,-156,-424,91663
417,97,-106,84,137,118,546,363,-180,-48,546,306,-153,164,86,154,-157,-233,-377,142,471,259,-93,-397,255,2823,-387,-212,-269,-404,-832,91664
486,112,-99,78,145,130,579,460,-158,223,488,368,34,201,139,184,-208,-261,-518,99,584,214,-151,-513,210,3095,-472,-299,-371,-499,-905,91665
186,28,-18,24,61,64,186,181,-31,163,40,204,2,34,96,-55,-156,-153,-348,-188,-68,-99,-104,-315,-89,2326,-273,-174,-248,-404,-284,91666
-672,-169,81,-84,-157,-143,-769,-209,40,45,-398,-98,-3,-410,-118,-700,47,126,258,-791,-1831,-784,88,325,-719,-62,335,227,206,-12,1122,91667
-975,-226,115,-91,-217,-187,-1073,-786,201,57,-344,-168,-51,-582,-150,-931,176,237,566,-987,-2597,-1004,223,616,-856,-1161,587,429,461,186,1407,91668
-1036,-236,121,-70,-216,-177,-1123,-811,182,9,-577,-332,21,-364,-183,-1028,150,210,594,-1063,-2875,-1104,212,616,-885,-1595,599,445,482,176,1320,91669
-1093,-271,133,-72,-219,-187,-1193,-894,227,-16,-783,-334,-93,-333,-238,-1138,126,177,593,-1168,-3144,-1218,186,615,-936,-2019,580,440,487,164,1308,91670
-1178,-284,161,-62,-215,-181,-1285,-722,259,43,-944,-314,525,-385,-126,-1223,186,233,698,-1253,-3453,-1290,262,720,-982,-2527,683,514,588,227,1518,91671
-1152,-277,177,-29,-195,-146,-1253,-622,215,26,-737,-273,34,-335,-69,-1228,200,234,723,-1232,-3510,-1274,302,728,-953,-2730,693,524,613,238,1446,91672
-946,-243,127,-5,-147,-101,-1021,-428,230,57,-385,-119,45,-103,-78,-1085,167,170,631,-1064,-3154,-1087,286,605,-765,-2346,553,468,540,155,1058,91673
-477,-137,54,52,-26,5,-509,-229,36,74,-339,42,41,53,28,-727,81,42,355,-730,-2235,-710,217,299,-403,-1177,247,300,330,-38,339,91674
34,-23,-20,96,94,113,37,150,-49,165,61,205,-16,95,124,-331,-19,-100,-33,-393,-1183,-323,124,-88,-65,224,-110,70,36,-301,-365,91675
1,-21,-24,74,67,90,3,-38,8,252,-154,208,-46,221,88,-323,-11,-62,-77,-418,-1125,-301,119,-82,-140,299,-93,63,17,-328,-131,91676
-611,-130,64,15,-72,-49,-628,-469,96,-13,-425,-25,-3,-35,-101,-747,129,142,379,-706,-2164,-663,245,405,-519,-1221,363,340,359,-3,831,91677
-610,-133,33,32,-85,-54,-589,-362,-1,-66,-288,12,83,-49,-62,-728,137,136,452,-590,-2120,-573,269,442,-420,-1254,390,355,409,88,751,91678
-517,-122,13,37,-65,-37,-469,-182,-40,-35,-191,36,-46,-54,-58,-663,111,85,392,-466,-1898,-464,245,370,-316,-1017,309,299,352,57,581,91679
-401,-94,-5,52,-41,-17,-313,-71,-66,96,-157,6,-90,87,4,-555,99,56,325,-350,-1615,-348,228,304,-192,-682,238,247,291,24,413,91680
-340,-62,-10,71,-13,-9,-242,-130,-113,-42,-160,53,-210,12,-25,-488,107,63,303,-281,-1452,-277,236,294,-135,-498,238,238,292,50,383,91681
-248,-50,-27,67,5,9,-163,60,-114,8,-89,55,-89,181,-35,-425,58,18,208,-213,-1234,-217,189,191,-80,-208,146,173,222,-7,226,91682
-118,-15,-43,73,34,41,-49,-20,-63,-7,-85,40,-135,145,6,-288,84,29,190,-103,-958,-94,209,164,39,177,109,180,190,-14,39,91683
-36,-8,-58,56,34,40,33,-46,7,39,139,103,47,162,53,-198,66,18,147,-58,-736,-29,200,106,107,514,54,153,141,-51,-35,91684
-353,-96,9,11,-56,-24,-339,-322,145,76,-209,-31,126,29,8,-495,64,51,288,-371,-1398,-345,187,254,-198,-334,211,231,237,23,484,91685
-583,-135,60,11,-96,-58,-599,-211,117,0,-484,-118,-360,-177,-81,-714,105,109,402,-585,-1958,-565,215,413,-402,-1103,360,313,351,127,823,91686
-697,-172,49,-15,-133,-104,-709,-383,50,47,-603,-147,-525,-50,-159,-820,100,98,410,-706,-2230,-690,202,434,-496,-1498,390,317,363,128,804,91687
-722,-184,52,-6,-126,-90,-751,-197,217,-1,-646,-157,-170,-350,-147,-866,93,94,436,-741,-2355,-724,200,452,-521,-1722,407,316,370,132,831,91688
-638,-154,43,17,-88,-56,-651,-171,157,73,-436,-175,224,-298,-78,-823,83,81,408,-682,-2223,-647,210,408,-444,-1604,354,303,360,128,703,91689
-623,-153,25,19,-88,-64,-625,-299,134,129,-422,-89,46,-123,-93,-791,109,97,433,-649,-2190,-618,242,428,-417,-1613,367,330,382,153,703,91690
-619,-153,42,32,-76,-49,-634,-142,119,166,-331,-25,-327,-133,13,-797,119,103,447,-661,-2214,-623,241,431,-412,-1697,382,347,396,154,730,91691
-623,-171,36,22,-85,-55,-650,-42,147,291,-87,-55,-73,-161,37,-824,95,82,413,-674,-2249,-643,219,408,-420,-1769,350,320,367,138,717,91692
-557,-139,33,40,-70,-24,-553,-83,164,181,14,-14,-57,-63,31,-743,113,85,408,-573,-2083,-546,239,412,-325,-1610,336,319,369,158,601,91693
-425,-106,5,46,-26,18,-383,174,175,-22,-196,-10,-65,-37,54,-607,106,67,322,-421,-1745,-397,226,322,-190,-1195,254,272,315,119,424,91694
-614,-153,31,21,-78,-29,-602,-79,151,228,-385,32,-159,-98,-31,-750,157,124,448,-532,-2095,-531,267,465,-329,-1702,400,345,414,217,803,91695
-773,-184,58,9,-124,-74,-765,-384,80,146,-419,10,99,18,-89,-864,213,188,633,-581,-2423,-602,339,642,-387,-2216,554,466,557,362,1010,91696
-368,-99,-20,57,-22,22,-300,-71,-45,108,-252,84,-53,231,72,-565,122,55,380,-286,-1655,-304,250,363,-65,-1216,288,301,362,207,327,91697
-113,-37,-51,97,50,85,-28,47,51,119,-79,84,71,83,44,-402,32,-55,173,-145,-1139,-143,173,143,70,-499,67,147,183,30,-45,91698
-103,-28,-45,86,52,67,-24,146,53,96,23,213,145,110,23,-395,3,-71,128,-147,-1075,-157,160,96,36,-379,28,104,134,-20,15,91699
-187,-50,-31,80,13,31,-93,116,107,123,-12,89,-16,239,96,-443,18,-35,152,-198,-1216,-227,154,136,-32,-534,86,130,157,5,142,91700
-255,-57,-24,71,-11,8,-147,18,10,244,36,42,52,182,24,-467,59,21,209,-235,-1349,-258,187,212,-77,-719,173,191,220,59,276,91701
-235,-58,-38,59,-7,22,-135,-55,-54,162,94,113,49,203,32,-434,62,16,205,-184,-1252,-206,191,201,-43,-617,156,184,218,56,238,91702
-460,-114,6,8,-57,-18,-449,-261,110,45,-168,-10,67,-6,-26,-626,78,62,316,-375,-1703,-400,205,331,-253,-1225,283,251,284,121,626,91703
-879,-208,117,-28,-128,-56,-982,-535,158,65,-485,-211,-25,-163,-183,-1007,159,158,632,-703,-2651,-757,277,650,-572,-2568,585,437,516,317,1220,91704
-828,-195,94,-3,-111,-37,-914,-296,126,43,-384,-195,60,-92,-94,-975,207,164,697,-634,-2618,-695,315,680,-458,-2613,599,476,566,367,1129,91705
-631,-158,34,38,-74,-23,-635,-258,36,-62,-317,-97,-6,175,2,-794,176,128,595,-477,-2212,-505,302,568,-257,-2131,484,422,494,315,689,91706
-258,-72,-37,105,10,36,-185,102,76,54,41,21,-181,345,77,-495,95,17,312,-215,-1433,-225,232,285,16,-1120,203,243,303,142,133,91707
-125,-29,-72,102,18,39,-26,378,93,229,97,142,-142,169,37,-373,61,-2,184,-132,-1097,-120,212,161,86,-661,108,185,203,52,7,91708
-70,-22,-71,84,31,45,20,327,65,171,159,190,-225,233,76,-322,60,-2,151,-84,-937,-67,204,123,107,-436,78,155,171,27,-14,91709
-51,-6,-62,89,50,70,39,290,-81,132,-2,234,-12,246,20,-293,55,-3,132,-62,-836,-42,189,116,110,-318,72,141,157,15,58,91710
-108,-22,-60,75,25,49,-11,86,-7,-22,75,129,-217,95,0,-326,54,2,149,-92,-894,-68,180,146,68,-388,95,152,165,24,164,91711
-133,-32,-71,54,1,13,-28,87,3,10,18,197,-50,252,91,-326,67,17,141,-87,-891,-68,187,153,65,-383,101,148,168,38,132,91712
-128,-35,-65,58,16,6,-24,122,80,50,88,208,2,83,52,-298,83,32,171,-50,-846,-40,209,179,92,-326,126,161,179,76,138,91713
-106,-40,-65,53,21,16,-22,62,29,113,252,126,-24,84,55,-284,65,-2,167,-13,-765,-18,175,165,105,-228,105,152,166,75,75,91714
-248,-71,-27,37,-23,2,-201,-86,153,138,106,69,-90,38,15,-415,78,36,245,-104,-1032,-136,166,263,-17,-592,196,201,221,144,345,91715
-360,-110,-21,22,-56,-30,-302,-191,114,302,110,-8,143,-56,-8,-514,60,32,296,-178,-1260,-223,150,304,-76,-884,249,206,262,171,394,91716
-7,-18,-86,64,39,52,104,93,-75,274,64,237,-68,185,111,-227,-2,-58,61,57,-588,43,98,64,193,34,15,64,101,36,-167,91717
152,22,-97,88,77,96,275,290,-143,218,192,249,-76,559,188,-99,-15,-80,-57,150,-250,154,82,-53,278,513,-86,-5,10,-40,-322,91718
212,34,-114,73,79,79,366,290,-89,143,308,234,-204,435,156,-19,-32,-103,-95,223,-14,229,82,-108,332,870,-142,-36,-41,-82,-395,91719
95,7,-85,59,40,59,248,178,-5,103,306,169,-91,244,146,-86,10,-46,-3,156,-205,145,126,-8,240,659,-51,27,23,-18,-180,91720
-1,-26,-73,39,9,33,106,90,-37,67,199,126,-73,178,36,-190,-8,-53,-2,32,-444,25,94,20,126,396,-21,23,26,-30,-58,91721
58,9,-80,46,32,51,174,32,-112,41,177,144,-213,275,12,-141,-15,-73,-15,77,-319,73,75,-14,176,570,-44,12,10,-37,-166,91722
-106,-2,-43,42,-2,13,-5,90,-126,150,15,80,-92,228,63,-222,63,30,157,10,-583,-4,150,163,85,177,126,144,143,93,213,91723
-413,-84,-20,0,-87,-72,-350,-71,-7,138,-157,-103,40,158,8,-425,150,151,376,-154,-1180,-203,220,414,-94,-665,355,280,338,282,713,91724
-452,-93,-8,3,-85,-54,-391,-168,-6,-8,96,-70,-89,54,-68,-457,185,171,448,-139,-1280,-208,249,478,-81,-869,408,325,402,338,735,91725
-327,-88,-47,4,-60,-19,-274,-118,38,17,-29,-21,-62,112,-118,-377,135,101,376,-33,-1025,-102,217,380,26,-582,297,255,321,269,390,91726
183,19,-99,59,71,109,260,271,-43,12,242,102,-43,303,88,-8,24,-58,35,290,-32,270,124,1,388,760,-61,23,62,34,-460,91727
410,80,-100,98,125,152,514,519,-56,41,280,223,19,386,109,179,-40,-125,-177,422,484,430,57,-192,505,1501,-226,-93,-96,-120,-670,91728
400,95,-108,93,111,123,544,583,-46,153,312,282,-159,305,129,213,-24,-101,-185,460,608,469,48,-180,493,1693,-211,-89,-105,-118,-561,91729
422,100,-125,76,108,119,571,493,-16,157,562,221,-291,367,121,250,-35,-114,-213,492,759,516,34,-211,496,1929,-229,-117,-150,-142,-608,91730
440,107,-115,71,101,114,587,360,-39,31,556,329,-143,272,114,278,-42,-109,-222,519,865,546,23,-214,503,2095,-237,-117,-159,-153,-619,91731
455,114,-123,68,100,104,589,396,-70,24,351,214,3,240,150,308,-25,-93,-202,537,947,570,25,-204,518,2228,-219,-103,-145,-141,-585,91732
183,52,-88,24,33,33,282,113,-44,-14,32,19,-62,-92,129,114,1,-26,-71,355,479,359,35,-44,299,1629,-58,-28,-55,-50,-99,91733
-424,-97,15,-44,-112,-81,-411,-370,60,-100,-204,-198,-7,-257,-67,-373,111,126,326,-49,-748,-94,124,375,-140,-19,349,208,244,226,821,91734
-771,-187,50,-84,-195,-144,-789,-533,8,-148,-525,-292,60,-298,-202,-662,169,185,597,-269,-1501,-358,185,630,-326,-1077,575,354,447,413,1157,91735
-677,-163,40,-43,-149,-113,-647,-421,-54,-109,-222,-276,6,-102,-140,-587,176,157,599,-176,-1412,-288,196,600,-183,-1003,524,354,459,432,849,91736
240,51,-80,80,85,93,371,332,-32,101,554,157,-28,149,114,110,19,-83,-2,399,298,365,73,-48,490,1361,-88,-16,33,33,-579,91737
463,95,-122,75,118,120,628,500,-28,187,453,216,-137,188,127,276,-60,-152,-247,462,779,445,10,-274,551,2138,-293,-153,-179,-170,-772,91738
372,83,-113,64,90,96,527,232,-98,222,255,145,-83,76,117,231,-14,-75,-175,365,605,329,44,-186,440,1999,-197,-82,-129,-127,-510,91739
138,36,-73,48,34,31,262,222,-23,183,171,72,-120,117,92,46,18,-4,-54,162,105,114,56,-30,220,1398,-32,1,-26,-47,-113,91740
93,18,-79,33,16,13,188,28,-38,57,99,17,-64,-34,22,-10,-13,-44,-82,94,-37,27,9,-41,158,1256,-44,-27,-45,-71,-144,91741
80,0,-81,12,9,20,158,9,123,35,-93,17,-101,58,34,-31,-41,-75,-123,67,-66,1,-17,-84,134,1258,-88,-61,-79,-109,-187,91742
-320,-79,26,-28,-82,-48,-321,-120,73,-20,-376,-115,-3,-91,2,-365,9,27,106,-222,-859,-321,34,177,-195,158,175,81,89,48,541,91743
-1043,-247,128,-107,-245,-204,-1107,-467,125,-33,-834,-339,101,-294,-182,-891,224,280,722,-610,-2270,-758,233,780,-604,-1898,729,474,555,466,1589,91744
-1072,-264,105,-86,-236,-194,-1107,-706,103,-115,-553,-394,274,-178,-113,-901,285,303,858,-523,-2371,-677,304,879,-496,-2209,793,545,673,593,1461,91745
-671,-169,48,-15,-127,-85,-654,-409,115,22,-290,-135,431,45,-36,-616,213,169,640,-211,-1621,-339,250,621,-147,-1323,545,394,511,461,754,91746
271,45,-78,94,115,131,378,339,-49,44,249,222,112,403,103,107,39,-74,40,427,239,400,123,-28,535,1173,-75,24,68,58,-662,91747
624,119,-140,99,180,182,750,599,-315,133,506,289,-56,458,145,388,-91,-195,-338,615,1091,659,-8,-373,691,2378,-381,-203,-230,-214,-1047,91748
574,108,-116,74,155,169,662,576,-332,-28,559,362,-73,313,116,377,-77,-169,-353,559,1092,621,-28,-346,586,2431,-356,-205,-243,-232,-852,91749
544,123,-110,76,149,161,636,588,-159,76,510,303,580,123,166,380,-69,-136,-309,553,1109,626,-20,-311,542,2494,-308,-171,-216,-202,-746,91750
535,132,-130,68,124,126,659,445,-251,135,363,172,362,299,58,398,-88,-151,-339,561,1196,636,-45,-336,521,2650,-328,-198,-248,-219,-782,91751
502,117,-135,50,95,91,612,451,-225,25,198,130,-22,379,11,379,-90,-141,-347,523,1170,606,-74,-328,477,2671,-319,-203,-259,-224,-698,91752
195,52,-75,10,32,32,262,43,-149,-24,56,-34,-33,168,59,139,-45,-54,-182,291,584,343,-40,-141,218,1924,-129,-102,-143,-123,-159,91753
-460,-90,31,-56,-126,-95,-475,-374,24,-1,-373,-250,36,-222,-131,-377,81,119,261,-153,-734,-164,68,327,-237,133,322,161,196,182,791,91754
-716,-156,69,-62,-177,-138,-736,-385,11,42,-376,-324,74,-266,-190,-588,160,185,522,-297,-1353,-356,148,571,-353,-750,526,315,397,372,1060,91755
-524,-117,31,-21,-116,-91,-518,-265,30,-89,-120,-202,-79,-83,-61,-456,137,129,461,-149,-1084,-228,156,461,-158,-410,420,278,354,343,657,91756
140,18,-81,51,43,40,220,213,-20,78,305,98,-103,251,18,71,32,-45,19,275,153,234,64,-17,344,1337,-38,5,38,44,-389,91757
307,62,-88,43,85,75,403,355,-71,85,93,171,-239,310,120,209,-28,-94,-197,314,513,285,5,-196,381,1914,-187,-96,-113,-117,-532,91758
215,20,-74,13,39,45,279,271,-106,29,104,66,-179,143,87,107,-47,-94,-212,176,298,144,-23,-187,232,1712,-168,-102,-135,-139,-368,91759
147,4,-59,9,24,37,166,144,-64,-26,104,45,-118,-92,-47,38,-41,-65,-137,100,115,54,-9,-114,147,1489,-108,-61,-83,-105,-238,91760
129,0,-60,-2,15,34,153,222,-36,20,162,49,-30,30,84,47,-25,-49,-100,110,117,58,0,-93,159,1508,-80,-33,-66,-90,-246,91761
105,12,-57,-15,5,18,126,179,-7,-26,96,12,154,66,82,62,9,-17,-77,97,92,57,25,-56,164,1478,-45,0,-39,-68,-165,91762
-94,-28,-20,-28,-35,-9,-112,158,-30,14,68,-17,127,-225,20,-109,27,28,10,-55,-290,-93,30,50,-1,949,63,39,28,-2,178,91763
-337,-75,20,-25,-73,-48,-385,-179,36,24,-263,-105,67,-284,-7,-296,93,97,224,-186,-790,-232,88,250,-153,220,251,166,188,148,552,91764
-223,-71,-11,-20,-47,-30,-256,115,34,73,-110,-49,29,-148,-15,-209,84,66,191,-60,-559,-96,96,194,-23,444,186,133,170,137,246,91765
25,-19,-49,-1,14,27,44,266,-135,52,-36,53,-182,-23,46,-16,42,-4,28,144,-41,126,57,22,165,1113,14,26,50,32,-145,91766
274,53,-79,45,71,75,363,250,-147,45,93,86,-69,63,111,169,-21,-81,-134,311,476,312,-8,-154,330,1819,-157,-69,-82,-97,-470,91767
380,93,-94,63,93,79,541,91,-258,-30,324,207,14,424,141,289,-32,-85,-217,398,771,423,-24,-232,409,2266,-224,-108,-138,-144,-545,91768
297,70,-97,36,63,37,464,-46,-173,-9,284,169,-264,222,89,272,-12,-53,-191,373,710,379,-13,-190,356,2208,-174,-90,-122,-120,-430,91769
273,70,-90,28,49,43,415,153,-120,-75,240,102,-366,96,1,256,-26,-50,-201,343,691,349,-21,-182,323,2204,-171,-103,-132,-113,-404,91770
315,83,-91,24,52,52,434,221,-106,39,86,95,-139,294,58,279,-38,-71,-234,370,764,361,-37,-221,335,2341,-207,-135,-159,-132,-484,91771
327,92,-75,43,68,60,451,170,-198,-106,100,139,-19,163,120,307,-20,-60,-209,398,824,389,-24,-210,343,2441,-182,-115,-149,-108,-468,91772
369,95,-75,33,79,68,476,505,-256,3,218,265,41,124,60,320,-49,-89,-258,403,891,389,-55,-260,340,2591,-232,-153,-189,-153,-502,91773
227,51,-42,2,29,36,278,203,-26,122,93,110,-67,158,86,175,-75,-97,-206,240,594,232,-77,-208,175,2240,-183,-146,-184,-123,-313,91774
294,56,-61,1,43,51,350,215,29,28,29,98,4,73,76,213,-116,-138,-275,278,724,261,-120,-280,224,2438,-252,-205,-234,-167,-496,91775
401,95,-77,27,81,83,460,488,28,-54,186,119,-44,168,72,304,-102,-133,-348,330,930,329,-116,-346,291,2749,-296,-240,-270,-199,-566,91776
176,42,-38,2,15,29,196,242,124,78,17,92,23,77,25,140,-47,-59,-208,146,489,160,-68,-191,97,2181,-141,-139,-163,-125,-215,91777
17,6,-11,-22,-25,-17,22,179,135,-56,78,82,-70,-108,-37,44,18,20,-49,43,167,71,7,-35,14,1717,13,-19,-39,-19,85,91778
-65,-19,4,-17,-33,-21,-67,-106,8,-104,24,-51,59,-70,-85,-35,18,15,-31,-49,-44,7,-11,2,-56,1419,48,-6,-9,1,123,91779
-85,-20,14,-23,-23,-9,-71,-1,25,-38,3,71,213,-91,-126,-71,3,-4,-38,-89,-97,-18,-41,-20,-82,1320,27,-17,-17,-26,122,91780
-48,-8,18,-18,-11,1,-31,45,52,-121,-143,79,53,39,-60,-57,17,-2,-11,-71,-49,14,-17,-23,-55,1336,13,-2,-6,-27,72,91781
-39,-11,11,-13,-18,-6,-22,133,32,-72,-89,26,170,11,-46,-54,10,3,-33,-81,-70,3,-9,-22,-56,1290,5,-9,-22,-39,41,91782
195,31,-58,14,24,30,279,152,-99,-18,138,72,-45,204,-3,120,-50,-84,-212,87,382,169,-78,-210,116,1907,-182,-135,-145,-167,-425,91783
675,151,-139,72,133,114,860,451,-107,-9,428,210,-114,147,134,524,-141,-203,-535,449,1421,555,-154,-556,482,3362,-513,-330,-391,-388,-1120,91784
723,160,-135,57,132,117,904,351,-93,82,324,266,-260,159,146,602,-158,-193,-595,502,1632,608,-154,-597,492,3726,-549,-361,-451,-417,-1076,91785
578,142,-91,38,99,80,690,320,-70,214,184,148,-29,43,131,511,-121,-143,-500,419,1386,486,-133,-477,363,3456,-425,-303,-380,-335,-710,91786
167,48,-28,-28,-4,-19,210,43,-103,105,136,76,619,-94,21,201,-56,-48,-231,171,622,175,-99,-200,67,2457,-142,-154,-189,-145,-96,91787
97,19,-23,-34,-18,-2,117,180,42,-81,134,8,-71,150,52,133,-52,-47,-159,158,471,128,-92,-140,50,2270,-115,-140,-138,-75,-123,91788
179,35,-38,-31,8,25,206,39,-48,-97,-174,-55,-277,9,17,197,-57,-71,-183,231,623,189,-94,-174,140,2483,-170,-158,-165,-82,-293,91789
226,44,-33,-24,26,30,266,-165,-54,-90,14,42,-411,94,49,251,-28,-48,-175,304,727,239,-65,-165,211,2643,-159,-131,-144,-46,-344,91790
281,49,-55,-12,37,38,336,-71,-158,-89,227,83,11,107,17,314,-45,-75,-224,354,869,283,-92,-215,252,2867,-194,-169,-181,-66,-400,91791
333,72,-60,-2,53,61,393,193,-154,-105,206,100,-52,147,14,354,-73,-93,-253,384,993,318,-109,-262,294,3069,-239,-200,-214,-88,-485,91792
480,109,-80,12,81,88,552,215,-142,-104,325,42,17,239,44,451,-108,-146,-360,460,1290,418,-156,-373,388,3498,-338,-267,-294,-149,-740,91793
694,154,-121,32,124,110,778,388,-244,-58,281,161,16,227,81,632,-145,-190,-526,587,1732,566,-198,-529,508,4166,-489,-370,-418,-253,-1006,91794
827,196,-104,45,170,144,910,579,-230,-74,446,199,-69,270,197,761,-155,-199,-598,669,2024,669,-202,-605,576,4623,-545,-398,-476,-306,-1129,91795
756,190,-89,9,134,124,809,529,-46,-35,334,232,-332,199,149,725,-147,-162,-558,597,1944,624,-196,-559,493,4577,-497,-374,-462,-293,-924,91796
219,66,-9,-49,-3,4,214,41,-49,-164,92,86,-65,15,21,312,-37,-3,-207,218,922,226,-102,-182,86,3198,-130,-135,-213,-56,5,91797
-26,7,34,-67,-42,-38,-77,-324,43,-189,-86,-28,65,-282,-70,79,2,35,-39,11,351,26,-70,-18,-110,2379,31,-37,-72,66,221,91798
-101,-8,60,-57,-42,-33,-180,-115,32,-75,-235,-186,125,-247,-59,-27,-16,30,-18,-103,91,-43,-90,9,-190,1987,48,-34,-48,66,240,91799
-73,2,60,-60,-37,-14,-145,15,53,-94,-294,-137,165,-257,-74,-15,-29,0,-38,-90,120,-6,-108,-28,-156,1978,13,-45,-60,46,131,91800
-86,-15,56,-60,-38,-5,-143,3,78,-20,-341,-143,223,-326,-47,-10,-5,22,-2,-86,96,17,-71,-1,-153,1897,36,-18,-26,77,170,91801
-139,-37,57,-54,-39,-20,-202,28,-55,-15,-248,-160,160,-298,-27,-75,3,28,27,-141,-37,-32,-55,33,-194,1680,58,-2,-3,90,203,91802
130,6,5,-21,21,17,113,80,-18,-103,-43,-116,193,-132,-23,118,-54,-74,-163,37,434,144,-95,-182,12,2326,-147,-120,-136,-50,-285,91803
638,144,-65,50,144,131,708,447,-58,-79,307,124,-93,176,122,529,-143,-199,-502,389,1455,511,-165,-531,378,3769,-473,-318,-390,-277,-1019,91804
714,186,-64,60,156,126,817,584,-13,-98,391,285,-97,270,91,625,-162,-195,-585,442,1705,559,-189,-591,407,4201,-515,-360,-463,-324,-1016,91805
486,137,-43,22,98,74,567,357,44,-45,332,255,-257,-4,34,461,-133,-136,-474,280,1305,357,-170,-461,216,3752,-384,-290,-389,-238,-588,91806
-20,36,17,-34,-24,-41,7,0,139,-11,-16,36,-332,-120,18,89,-18,28,-109,-11,323,-24,-88,-67,-129,2446,-11,-62,-106,31,200,91807
-117,-3,20,-48,-54,-66,-97,-225,112,-67,-154,-116,159,-140,4,38,42,85,73,4,100,-58,-13,82,-109,2111,116,41,36,172,278,91808
9,10,-16,-34,-25,-48,33,-63,80,-10,-164,-88,349,-53,2,127,5,22,-1,104,333,41,-34,-15,27,2419,9,-23,-22,135,-1,91809
142,39,-8,-9,2,-11,165,169,70,50,-54,48,319,-57,5,217,-29,-33,-118,198,592,125,-74,-117,132,2785,-107,-110,-113,70,-210,91810
189,42,3,-11,24,22,180,151,76,-72,4,-12,40,-74,88,227,-43,-53,-160,213,655,135,-96,-162,143,2911,-140,-148,-156,58,-237,91811
195,49,-6,-20,34,29,203,-65,-43,95,214,36,166,-104,8,237,-61,-66,-175,227,715,159,-104,-172,152,3008,-150,-160,-161,49,-284,91812
431,117,-31,25,95,77,467,375,-18,78,319,248,37,175,60,431,-70,-105,-285,404,1170,354,-112,-291,333,3644,-261,-216,-234,-9,-636,91813
820,209,-99,56,172,135,927,667,-117,88,549,479,-133,391,149,755,-149,-198,-553,646,2005,655,-179,-582,597,4823,-539,-376,-447,-213,-1207,91814
949,246,-117,60,194,153,1048,411,-127,36,556,355,-162,360,168,860,-185,-213,-672,695,2322,746,-232,-692,621,5312,-624,-444,-545,-314,-1282,91815
769,201,-72,15,147,119,793,368,-129,1,269,154,22,49,94,716,-184,-175,-605,528,2021,586,-234,-596,417,4952,-530,-398,-508,-293,-931,91816
142,46,17,-74,-7,-13,85,10,-145,-154,-305,-170,53,-201,-50,221,-91,-31,-239,87,798,100,-168,-183,-83,3318,-133,-176,-239,-53,77,91817
-75,-3,35,-83,-61,-63,-145,-92,-81,-77,-139,-213,206,-287,-100,38,-55,5,-75,-48,304,-54,-135,-34,-209,2614,-3,-87,-100,49,224,91818
-129,5,62,-58,-70,-81,-175,-13,160,-6,-315,-56,23,-351,-54,1,-21,39,2,-65,145,-78,-98,29,-210,2373,57,-31,-31,80,262,91819
-160,1,50,-57,-78,-82,-188,-268,61,-83,-180,-56,41,-131,41,-8,6,56,50,-80,58,-95,-54,59,-205,2228,91,17,6,93,321,91820
-240,-25,75,-72,-84,-77,-290,-305,87,-86,-95,-73,50,-165,-25,-111,8,65,82,-182,-200,-207,-50,96,-286,1855,130,41,32,82,374,91821
-289,-53,77,-69,-96,-88,-330,-287,49,-70,-110,-89,-133,-235,-25,-157,12,70,117,-233,-370,-266,-37,119,-328,1602,143,53,57,80,369,91822
21,19,24,-8,-3,-8,33,-25,64,-85,88,38,-88,-18,34,85,7,23,-12,-9,163,-10,-30,-40,-65,2301,-14,-19,-22,-8,-100,91823
508,124,-45,42,110,95,560,238,-98,97,207,145,-66,251,41,452,-102,-120,-386,299,1125,330,-127,-404,265,3633,-365,-256,-300,-270,-771,91824
643,166,-60,41,124,102,695,539,-181,76,151,151,-254,153,107,541,-170,-172,-525,360,1438,407,-184,-526,300,4133,-471,-337,-414,-387,-881,91825
531,133,-68,4,88,49,591,78,-109,-131,552,107,-276,64,46,498,-165,-166,-475,311,1377,373,-195,-481,230,4081,-433,-314,-391,-371,-715,91826
154,52,-18,-45,-16,-32,162,-187,-3,-3,119,-24,-223,-120,-47,227,-78,-43,-197,116,732,156,-131,-179,1,3189,-157,-154,-192,-159,-53,91827
106,51,-7,-39,-21,-36,105,-191,48,28,-90,-16,34,-89,-23,212,-35,-16,-69,154,666,180,-87,-75,39,3053,-60,-88,-100,-40,-61,91828
264,90,-5,-1,36,26,267,57,-21,10,23,70,245,58,66,323,-60,-59,-140,276,981,327,-120,-164,183,3495,-148,-146,-151,-69,-300,91829
321,95,-19,-14,42,33,330,154,-59,-17,-45,77,-64,8,64,362,-97,-97,-240,337,1168,388,-162,-240,228,3761,-218,-221,-221,-119,-430,91830
398,119,-27,-1,60,48,448,237,10,-87,231,194,-195,-88,82,469,-60,-73,-220,460,1414,516,-109,-234,340,4086,-231,-209,-208,-84,-491,91831
511,146,-34,10,98,83,549,148,-28,45,151,102,-107,83,84,556,-74,-98,-258,556,1685,614,-110,-283,422,4463,-279,-244,-253,-121,-596,91832
698,168,-74,17,129,114,707,192,-102,58,143,111,-22,62,29,688,-147,-179,-414,663,2089,732,-187,-451,527,5063,-441,-358,-369,-226,-974,91833
1051,251,-130,40,194,159,1113,627,-174,-103,655,300,-90,240,116,1007,-206,-250,-661,925,2867,1011,-263,-690,779,6194,-665,-503,-545,-368,-1441,91834
1105,289,-150,48,200,140,1219,722,-62,-63,697,305,-116,292,230,1128,-185,-204,-726,990,3122,1073,-270,-720,810,6641,-671,-501,-575,-393,-1394,91835
913,250,-112,10,137,91,1007,645,-165,-9,396,322,-6,191,70,983,-172,-172,-647,832,2800,886,-276,-619,600,6307,-575,-446,-534,-360,-1059,91836
420,144,-2,-37,38,17,436,212,-44,-192,-94,3,2,-273,-31,574,-104,-54,-335,454,1772,453,-228,-299,178,4988,-249,-261,-323,-175,-323,91837
105,54,26,-74,-47,-51,69,-252,-54,-213,60,-150,18,-214,-44,301,-78,-2,-170,186,1014,128,-208,-121,-75,4056,-80,-168,-198,-78,37,91838
-128,10,63,-94,-97,-94,-173,-373,100,46,-12,-162,53,-187,-55,119,1,82,13,-15,407,-129,-124,54,-253,3283,89,-32,-47,23,345,91839
-344,-49,95,-122,-148,-141,-428,-393,177,34,-414,-289,2,-140,-41,-88,23,118,127,-228,-205,-368,-81,167,-424,2479,203,51,46,78,584,91840
-420,-82,123,-112,-146,-124,-560,-729,123,-35,-479,-216,-36,-220,-104,-213,30,127,164,-360,-584,-515,-66,206,-515,1947,237,75,90,80,671,91841
-444,-97,125,-103,-126,-103,-601,-620,109,-60,-361,-221,-79,-293,-100,-298,4,89,157,-441,-783,-587,-69,172,-568,1657,215,64,84,33,654,91842
-272,-60,112,-78,-62,-48,-419,-434,133,-107,-429,-98,40,-241,-105,-219,-48,7,35,-361,-565,-483,-92,40,-444,1895,81,-13,-2,-48,289,91843
91,7,47,-54,9,25,3,-51,-6,-165,-191,91,-1,48,-70,52,-133,-114,-226,-104,198,-168,-178,-237,-167,2860,-207,-191,-199,-233,-328,91844
342,75,-6,-8,63,54,311,-10,-161,-69,147,133,180,92,-11,317,-108,-117,-313,171,838,145,-158,-331,90,3663,-308,-216,-260,-263,-559,91845
477,129,-36,15,80,73,475,122,-52,-84,280,92,250,166,85,484,-102,-108,-343,360,1303,377,-149,-367,274,4243,-347,-243,-292,-238,-626,91846
490,147,-26,26,93,91,517,179,-58,-76,280,179,-293,161,96,560,-76,-85,-305,489,1555,521,-122,-313,373,4525,-298,-232,-263,-142,-576,91847
712,204,-57,43,144,128,758,394,-154,69,414,185,-96,31,110,754,-104,-146,-410,733,2153,775,-172,-422,596,5303,-421,-328,-348,-154,-942,91848
1017,275,-91,72,204,170,1081,470,-116,146,726,334,50,207,155,1000,-158,-217,-571,1012,2902,1066,-226,-593,835,6354,-592,-453,-487,-214,-1321,91849
1283,328,-149,82,256,205,1398,634,-195,41,991,355,-122,436,303,1272,-191,-265,-684,1313,3694,1381,-259,-735,1099,7466,-727,-541,-591,-237,-1645,91850
1487,384,-180,81,297,236,1636,712,-151,-15,752,323,-173,524,282,1516,-213,-286,-801,1552,4372,1631,-298,-843,1293,8455,-848,-622,-683,-260,-1905,91851
1623,427,-196,84,309,249,1788,976,-186,-15,854,474,57,613,295,1685,-239,-302,-904,1715,4864,1782,-352,-927,1401,9244,-938,-697,-765,-286,-2054,91852
1768,464,-219,89,338,249,1957,982,-303,-50,1057,526,-171,627,376,1851,-263,-317,-994,1848,5300,1904,-385,-1017,1502,9987,-990,-761,-835,-297,-2200,91853
1815,481,-232,65,339,238,2003,939,-405,-174,1146,398,-83,581,269,1922,-303,-345,-1083,1868,5537,1920,-437,-1105,1482,10488,-1051,-831,-926,-359,-2249,91854
1705,455,-204,24,294,205,1856,755,-467,-300,1057,344,-75,461,181,1864,-310,-337,-1075,1755,5407,1793,-463,-1071,1333,10497,-1012,-818,-948,-368,-2094,91855
1460,410,-131,-5,222,148,1577,530,-308,-263,824,212,-5,301,198,1700,-268,-246,-945,1554,4931,1557,-434,-915,1101,10028,-854,-711,-841,-292,-1597,91856
1047,313,-51,-53,127,49,1100,379,-205,-260,537,73,26,139,168,1356,-215,-145,-705,1186,4012,1139,-397,-663,718,8970,-595,-562,-659,-168,-1040,91857
587,199,24,-102,18,-36,540,40,-176,-123,24,-129,205,-65,45,923,-184,-74,-484,701,2849,608,-387,-430,255,7581,-353,-432,-508,-86,-484,91858
84,59,84,-192,-113,-136,-61,-242,1,-243,-322,-277,169,-277,-80,451,-156,-11,-275,158,1541,22,-362,-214,-241,5957,-112,-285,-349,-28,142,91859
-339,-58,156,-217,-191,-206,-551,-430,135,-84,-561,-474,153,-409,-131,41,-82,99,-14,-286,359,-435,-262,47,-616,4395,151,-97,-137,75,649,91860
-629,-120,203,-203,-248,-251,-875,-604,215,-13,-596,-554,99,-413,-170,-230,-4,183,194,-586,-533,-744,-163,256,-852,3167,355,74,48,161,1082,91861
-855,-168,235,-200,-285,-290,-1114,-820,245,-77,-707,-615,122,-581,-236,-445,71,254,381,-798,-1243,-959,-88,419,-1005,2129,520,217,223,236,1384,91862
-817,-159,233,-173,-244,-252,-1059,-765,281,51,-545,-393,198,-497,-179,-435,116,268,441,-761,-1314,-892,2,448,-902,1865,516,271,270,250,1221,91863
-476,-97,153,-113,-160,-175,-669,-409,150,-2,-82,-138,256,-267,-93,-205,42,129,228,-496,-678,-587,-21,198,-609,2567,247,109,110,97,589,91864
-42,-1,84,-61,-46,-85,-187,-146,-12,-97,-35,-108,348,-86,-19,94,-75,-34,-113,-158,226,-203,-153,-131,-258,3685,-85,-128,-122,-96,-95,91865
403,105,18,-8,71,18,343,130,-88,-48,361,53,97,25,23,490,-106,-87,-323,300,1321,293,-192,-343,184,5052,-321,-260,-267,-179,-655,91866
726,191,-48,22,144,72,735,444,-11,-102,461,176,79,233,94,828,-108,-123,-419,704,2266,732,-183,-457,546,6266,-462,-329,-356,-181,-1058,91867
1074,274,-120,45,222,119,1140,615,-260,-85,683,426,53,339,119,1177,-143,-191,-590,1092,3245,1121,-233,-633,889,7588,-635,-460,-498,-222,-1505,91868
1413,372,-174,68,286,174,1539,863,-395,-34,1079,449,-204,512,205,1526,-193,-251,-787,1463,4232,1496,-305,-828,1204,8970,-812,-606,-650,-262,-1903,91869
1693,437,-223,78,331,209,1856,934,-468,-135,1133,499,155,506,275,1815,-255,-319,-954,1765,5100,1817,-381,-1003,1454,10233,-984,-742,-802,-328,-2252,91870
1922,505,-245,77,368,240,2068,1262,-479,45,1232,637,-165,688,315,2046,-318,-385,-1106,1998,5830,2044,-453,-1154,1635,11353,-1131,-861,-947,-383,-2538,91871
2089,548,-229,76,398,268,2187,1241,-405,-78,1310,581,-55,533,282,2226,-343,-412,-1214,2156,6355,2194,-520,-1242,1722,12221,-1209,-937,-1045,-392,-2683,91872
2093,564,-217,46,386,252,2183,990,-325,-91,1183,641,-149,564,315,2331,-323,-360,-1201,2212,6561,2230,-517,-1224,1719,12715,-1180,-916,-1047,-348,-2577,91873
2194,602,-235,42,400,261,2345,978,-319,-138,1092,635,-142,710,317,2472,-310,-348,-1277,2283,6905,2313,-512,-1303,1774,13377,-1234,-945,-1103,-388,-2668,91874
2115,587,-221,31,362,231,2293,1076,-381,-172,962,606,-109,655,282,2394,-354,-373,-1340,2146,6816,2181,-568,-1339,1608,13468,-1253,-1000,-1164,-440,-2545,91875
1852,528,-168,-14,301,174,1997,895,-373,-221,836,285,-184,412,251,2152,-386,-372,-1307,1846,6268,1861,-632,-1285,1265,12957,-1171,-999,-1169,-446,-2195,91876
1368,404,-70,-91,169,79,1357,358,-195,-197,584,-80,74,-94,112,1706,-375,-296,-1056,1360,5148,1342,-644,-1024,770,11667,-902,-867,-1009,-333,-1554,91877
864,264,51,-145,55,-5,724,275,-71,-230,32,-223,102,-311,-44,1258,-299,-170,-737,895,3913,819,-584,-703,315,10157,-566,-660,-762,-170,-797,91878
467,174,121,-168,-24,-76,268,-1,-9,-238,11,-346,163,-407,-193,916,-199,-40,-476,517,2857,406,-483,-421,-34,8819,-286,-449,-533,-22,-218,91879
94,86,171,-184,-100,-148,-142,-424,56,-279,-76,-441,102,-533,-229,576,-125,50,-248,139,1850,22,-394,-191,-348,7497,-65,-285,-352,80,262,91880
-168,16,188,-196,-154,-200,-396,-411,95,-364,-219,-480,116,-484,-232,330,-90,94,-111,-135,1122,-247,-334,-67,-553,6511,57,-184,-239,126,535,91881
-264,-13,201,-199,-171,-205,-498,-423,157,-308,-346,-419,281,-484,-255,206,-72,98,-50,-256,713,-365,-307,-7,-624,5917,111,-136,-159,143,581,91882
-161,15,170,-168,-139,-174,-371,-426,85,-55,-185,-391,14,-365,-168,267,-81,69,-84,-186,806,-275,-284,-50,-494,5963,48,-146,-166,107,303,91883
119,82,131,-101,-42,-92,-59,-243,67,-26,170,-376,-15,-441,-73,510,-81,39,-187,64,1352,16,-258,-184,-195,6601,-104,-194,-223,55,-93,91884
328,129,86,-86,19,-35,179,-62,106,-52,283,-163,224,-176,-9,680,-108,-11,-305,272,1837,244,-290,-322,21,7201,-254,-279,-313,-14,-381,91885
462,163,85,-78,37,-15,331,292,-68,-79,58,-105,266,-85,54,776,-114,-42,-360,411,2164,391,-293,-376,147,7609,-312,-327,-353,-32,-543,91886
480,166,88,-70,37,-20,363,229,-117,-157,81,-101,130,17,18,812,-98,-39,-333,463,2276,448,-279,-364,217,7754,-302,-314,-350,-1,-568,91887
536,184,75,-71,56,-5,416,197,-14,-102,227,-80,-102,-128,13,850,-128,-67,-380,510,2413,499,-309,-410,274,7970,-347,-361,-392,-10,-620,91888
571,185,52,-73,58,-5,476,61,9,-194,376,-113,527,-9,37,906,-120,-68,-398,581,2558,568,-281,-417,331,8183,-359,-358,-398,0,-625,91889
663,211,37,-52,90,14,579,197,-3,-295,417,-58,294,165,8,1011,-99,-55,-404,685,2764,673,-266,-426,425,8490,-374,-350,-401,11,-707,91890
725,211,27,-54,94,19,631,307,-84,-99,506,-44,-97,31,-32,1031,-159,-109,-496,715,2899,688,-331,-510,432,8728,-451,-424,-473,-54,-850,91891
733,218,17,-60,81,1,657,331,-35,-51,275,-65,-103,-72,105,1032,-178,-122,-528,715,2944,685,-373,-535,425,8855,-466,-446,-500,-50,-909,91892
765,245,13,-43,97,19,733,127,-28,-132,114,-90,-190,62,67,1081,-177,-113,-525,742,3053,723,-371,-541,458,9049,-474,-448,-509,-51,-929,91893
706,240,43,-43,95,17,627,246,-124,-86,140,-158,-46,-70,76,1029,-169,-102,-504,682,2923,656,-366,-512,372,8941,-438,-434,-493,-36,-788,91894
631,201,37,-81,64,-17,513,370,-154,-106,242,-145,123,-49,55,967,-194,-119,-521,605,2781,576,-381,-522,285,8815,-444,-459,-506,-50,-738,91895
592,178,38,-90,51,-28,462,219,-93,-154,366,-41,154,-77,49,941,-188,-104,-507,560,2695,529,-366,-505,236,8757,-417,-447,-494,-40,-702,91896
507,170,63,-96,32,-48,368,-106,-47,-24,208,-87,84,173,-24,873,-153,-53,-394,478,2488,449,-329,-409,152,8491,-320,-362,-416,15,-502,91897
401,157,112,-91,34,-32,241,-124,26,-229,-112,-136,22,-107,-62,788,-78,22,-265,400,2221,370,-259,-283,69,8122,-205,-268,-316,86,-302,91898
362,134,110,-98,33,-21,157,-251,-85,-364,-175,-295,146,-115,-57,726,-104,-6,-303,296,2067,310,-291,-305,-17,7925,-214,-286,-326,66,-282,91899
387,124,101,-92,24,-25,186,-83,-82,-285,-144,-255,157,-326,-164,722,-129,-49,-345,274,2061,302,-323,-346,-25,7931,-259,-310,-350,26,-397,91900
315,120,102,-86,12,-52,133,122,60,-234,-167,-315,192,-257,-110,689,-97,1,-268,252,1932,281,-283,-268,-50,7759,-194,-251,-293,76,-235,91901
157,107,137,-86,-22,-82,-29,-48,198,-101,-145,-349,151,-183,-59,568,-30,82,-110,136,1563,166,-210,-100,-138,7252,-22,-121,-164,187,63,91902
31,62,140,-115,-63,-132,-154,-337,15,-112,-155,-361,122,-301,-56,449,-55,64,-90,7,1259,29,-237,-76,-232,6849,-1,-124,-149,175,90,91903
340,126,80,-77,18,-44,181,-4,-95,-96,388,-97,57,-308,20,660,-133,-39,-345,182,1794,233,-302,-338,-4,7583,-248,-273,-322,9,-489,91904
505,150,66,-74,66,15,340,5,77,-168,333,-106,145,-176,15,788,-154,-68,-481,277,2114,333,-311,-473,109,8052,-385,-354,-421,-99,-671,91905
371,122,98,-99,34,-16,171,-1,17,-131,-39,-147,232,-64,-26,672,-132,-28,-407,159,1799,195,-273,-379,-8,7682,-293,-305,-367,-66,-384,91906
-31,40,166,-130,-54,-107,-270,-348,41,-204,-427,-376,219,-373,-116,318,-68,65,-158,-139,901,-161,-229,-103,-328,6495,-40,-149,-187,79,229,91907
-226,-18,184,-137,-93,-143,-491,-522,75,-257,-382,-389,291,-294,-102,141,-28,104,1,-268,410,-314,-179,38,-433,5821,80,-57,-59,165,447,91908
-310,-38,204,-133,-108,-135,-598,-379,101,-258,-472,-422,-233,-330,-210,47,-12,119,102,-351,105,-426,-144,107,-485,5370,137,1,15,203,530,91909
-399,-49,228,-122,-108,-149,-682,-269,194,-162,-517,-365,22,-359,-215,-57,-3,139,182,-468,-229,-545,-118,180,-563,4902,206,60,81,227,667,91910
-522,-82,234,-110,-130,-183,-777,-479,133,-138,-462,-386,21,-502,-179,-169,21,165,254,-599,-602,-660,-101,255,-648,4378,296,118,140,263,814,91911
-609,-106,206,-130,-163,-223,-823,-677,168,-248,-490,-359,209,-456,-195,-238,51,178,282,-657,-833,-718,-61,286,-665,4025,328,155,185,278,885,91912
-459,-69,163,-96,-136,-182,-624,-441,182,-270,-291,-282,191,-198,-154,-124,55,138,201,-531,-576,-570,-48,196,-509,4285,220,110,133,202,557,91913
94,50,111,-17,22,-23,-51,-223,30,46,110,-27,89,-8,-8,268,-48,-15,-145,-201,431,-184,-113,-167,-138,5609,-132,-89,-133,-47,-290,91914
393,110,86,0,104,52,199,-99,-20,96,146,44,48,28,9,459,-149,-118,-403,-57,1016,4,-202,-440,-12,6409,-375,-263,-334,-241,-657,91915
412,97,82,-31,99,55,174,2,-32,38,-1,-66,206,-194,5,461,-210,-155,-515,-87,1111,-5,-273,-520,-66,6573,-444,-349,-420,-331,-649,91916
-190,-27,162,-101,-59,-96,-455,-378,60,123,-191,-306,149,-348,-111,14,-97,10,-150,-467,45,-406,-186,-90,-529,5063,-34,-110,-144,-69,404,91917
-375,-39,182,-96,-112,-153,-579,-329,198,117,-414,-246,114,-296,-97,-73,30,124,168,-455,-279,-419,-62,192,-535,4481,203,82,96,189,579,91918
-132,20,135,-41,-36,-95,-308,-190,83,-139,-301,-88,58,-155,-52,132,41,108,140,-208,225,-140,-25,119,-282,5060,117,52,66,203,254,91919
56,60,96,-21,22,-49,-126,-262,-70,-180,48,-138,122,-103,-27,279,24,64,17,-39,658,37,-54,-5,-146,5579,-3,-35,-15,151,54,91920
101,72,93,-17,25,-39,-59,-152,-42,-53,48,-111,107,-210,-86,296,-45,-7,-60,-3,820,85,-114,-85,-125,5801,-80,-106,-85,90,-113,91921
255,114,73,4,63,-6,138,-54,-48,-61,-1,23,51,-113,-11,435,-68,-38,-123,154,1194,246,-133,-155,17,6307,-164,-141,-142,62,-353,91922
474,166,27,24,101,27,390,161,-5,-142,163,109,131,50,69,651,-43,-33,-197,338,1671,446,-99,-249,214,6992,-249,-166,-190,21,-603,91923
1072,296,-65,86,241,142,1048,467,-58,1,581,298,49,393,202,1105,-192,-213,-675,654,2797,802,-226,-739,576,8682,-689,-457,-558,-329,-1500,91924
964,256,-38,25,189,113,909,387,-36,75,513,133,-159,141,123,1000,-277,-242,-813,429,2610,593,-312,-815,342,8613,-733,-533,-670,-479,-1271,91925
325,111,74,-72,37,-27,169,-107,11,0,96,-164,-95,-157,-33,480,-196,-91,-500,-101,1270,5,-263,-441,-228,6916,-359,-313,-435,-315,-267,91926
-672,-137,236,-197,-210,-238,-976,-856,181,-70,-588,-593,6,-723,-275,-386,-76,128,95,-881,-910,-863,-178,184,-1022,3993,248,45,6,26,1186,91927
-1179,-250,313,-216,-308,-328,-1533,-1002,389,-125,-915,-690,320,-861,-281,-817,82,287,574,-1224,-2195,-1284,1,628,-1300,2148,652,364,385,316,1838,91928
-1276,-270,305,-193,-314,-329,-1625,-766,446,-165,-970,-613,464,-614,-264,-906,163,343,737,-1284,-2636,-1365,110,749,-1271,1440,766,490,527,393,1858,91929
-1351,-299,306,-185,-317,-323,-1704,-779,329,-3,-1162,-606,63,-661,-278,-1027,146,324,751,-1411,-3024,-1496,116,759,-1325,856,771,500,555,363,1869,91930
-1503,-342,330,-170,-329,-312,-1860,-1094,403,-117,-1110,-644,10,-945,-293,-1219,169,348,843,-1585,-3557,-1678,146,861,-1436,20,864,567,644,399,2029,91931
-1548,-356,331,-155,-317,-299,-1884,-1178,381,-87,-1029,-752,147,-899,-371,-1302,204,359,918,-1644,-3853,-1730,218,915,-1438,-512,911,629,709,415,2066,91932
-1413,-329,300,-103,-278,-262,-1701,-968,324,14,-763,-667,216,-662,-278,-1242,184,304,838,-1560,-3719,-1630,224,825,-1310,-486,804,581,668,336,1787,91933
-1128,-274,244,-65,-211,-207,-1389,-706,410,64,-740,-508,239,-605,-183,-1055,115,202,608,-1374,-3217,-1410,158,602,-1086,72,580,445,520,180,1294,91934
-1004,-240,227,-41,-176,-182,-1267,-651,420,146,-673,-307,283,-555,-206,-951,143,215,600,-1269,-3008,-1283,204,582,-967,235,544,452,518,166,1228,91935
-972,-236,196,-42,-177,-190,-1204,-656,297,121,-510,-265,290,-375,-175,-899,184,250,638,-1187,-2883,-1166,247,613,-881,261,562,484,548,197,1189,91936
-954,-220,181,-44,-169,-189,-1148,-491,368,105,-650,-276,130,-389,-174,-856,207,257,642,-1098,-2735,-1048,265,627,-804,302,574,488,554,237,1187,91937
-725,-152,146,-3,-104,-128,-865,-476,233,41,-434,-182,-28,-119,-120,-653,202,228,569,-846,-2172,-751,278,539,-553,882,464,454,519,234,882,91938
-474,-98,99,30,-39,-67,-565,-287,184,15,-248,-47,-15,-87,-62,-450,136,142,436,-597,-1507,-463,233,383,-328,1650,300,341,404,157,510,91939
-358,-56,80,41,-11,-38,-445,-170,184,86,-150,18,175,-28,-64,-361,95,95,362,-477,-1167,-329,186,319,-246,2056,229,267,326,130,373,91940
-235,-44,55,35,15,-20,-325,-171,74,198,-251,-47,82,-78,-55,-266,50,29,259,-357,-809,-195,134,213,-158,2518,125,176,235,81,158,91941
-191,-50,47,21,19,-12,-288,-155,56,68,-106,38,17,-109,-57,-230,38,10,205,-313,-638,-137,120,168,-136,2736,86,134,183,63,119,91942
-229,-55,60,16,-6,-24,-324,-95,121,-33,41,28,153,-300,-93,-239,44,32,208,-323,-674,-177,102,182,-173,2709,110,145,194,86,234,91943
-322,-68,78,-14,-37,-56,-422,-269,64,-153,-305,-108,119,17,-59,-301,70,77,267,-400,-901,-283,107,260,-263,2454,193,202,240,118,419,91944
-475,-92,104,-17,-67,-82,-599,-289,86,43,-421,-123,7,-48,-135,-431,88,117,376,-565,-1314,-489,149,347,-423,1948,303,277,300,137,647,91945
-603,-133,124,-18,-87,-94,-751,-345,212,103,-564,-212,169,-101,-169,-555,94,139,420,-710,-1702,-681,165,407,-555,1453,373,315,339,137,810,91946
-698,-149,151,-25,-110,-104,-863,-497,139,29,-676,-218,41,-369,-189,-656,122,172,468,-784,-2006,-805,191,471,-646,1018,440,354,396,158,1019,91947
-831,-173,182,-21,-144,-111,-992,-616,231,1,-653,-301,12,-380,-162,-772,168,216,580,-870,-2355,-935,235,586,-720,491,533,438,490,226,1167,91948
-916,-206,173,-26,-158,-132,-1067,-525,257,18,-558,-323,82,-454,-242,-876,157,199,614,-963,-2620,-1048,234,617,-792,105,555,445,511,222,1199,91949
-984,-225,161,-33,-179,-152,-1139,-626,262,161,-570,-335,-179,-436,-190,-949,166,205,658,-1028,-2832,-1132,257,638,-843,-228,583,476,536,218,1268,91950
-972,-207,159,-11,-152,-134,-1080,-820,220,-63,-652,-273,11,-185,-170,-920,203,241,686,-993,-2858,-1102,302,659,-788,-348,614,512,586,235,1255,91951
-1008,-225,164,-14,-156,-123,-1114,-713,130,-108,-705,-209,143,-211,-239,-970,196,244,685,-1034,-2991,-1130,312,672,-802,-595,620,506,594,219,1296,91952
-1057,-251,172,-29,-159,-134,-1194,-550,105,-83,-539,-348,246,-442,-287,-1069,166,204,667,-1119,-3194,-1216,281,667,-864,-933,601,491,578,192,1314,91953
-1035,-259,158,-38,-162,-130,-1181,-495,203,-173,-681,-323,139,-400,-194,-1081,147,176,652,-1110,-3180,-1185,261,648,-823,-1019,577,472,563,188,1266,91954
-941,-232,142,-31,-137,-102,-1083,-496,201,-148,-693,-255,69,-303,-185,-993,168,185,656,-1004,-2988,-1059,281,633,-704,-859,555,485,567,197,1154,91955
-920,-216,141,-6,-123,-92,-1047,-624,138,-4,-617,-169,98,-305,-202,-943,219,229,727,-923,-2889,-947,335,704,-613,-867,616,542,626,271,1127,91956
-683,-152,107,43,-52,-37,-754,-302,16,-2,-271,-66,-33,-179,-76,-746,191,178,584,-704,-2350,-689,318,562,-383,-258,478,454,537,215,775,91957
-476,-110,49,53,-18,-23,-509,-51,89,52,197,-93,-62,-29,-18,-603,91,66,341,-582,-1840,-496,223,340,-247,387,256,284,356,64,407,91958
-427,-115,25,35,-24,-32,-451,-59,-70,139,-45,-39,-13,-6,-25,-567,28,10,266,-549,-1628,-431,168,258,-227,634,173,212,270,0,307,91959
-366,-93,37,38,-9,-7,-386,-82,21,57,-221,60,31,-27,29,-504,50,21,268,-492,-1467,-352,196,255,-169,839,168,217,271,10,261,91960
-352,-70,25,52,-12,-22,-377,-179,105,70,-184,123,167,-14,45,-483,102,64,314,-463,-1432,-322,235,306,-152,872,223,263,319,57,334,91961
-315,-59,9,52,-5,-14,-326,-169,70,251,-118,49,32,14,17,-432,115,78,298,-399,-1312,-269,248,290,-114,1022,204,256,305,57,304,91962
-518,-112,49,13,-47,-43,-583,-217,141,68,-296,-53,17,-56,-66,-585,139,136,423,-537,-1704,-445,255,431,-297,496,345,323,390,140,764,91963
-1169,-258,176,-61,-195,-159,-1350,-645,253,-98,-845,-278,177,-361,-213,-1128,247,292,887,-987,-3073,-987,354,897,-792,-1413,803,601,724,426,1706,91964
-1293,-293,193,-42,-214,-181,-1491,-831,125,-19,-720,-340,-6,-452,-212,-1241,293,304,1022,-1030,-3424,-1076,410,1019,-814,-1979,904,683,843,536,1699,91965
-1078,-263,111,-15,-170,-154,-1242,-717,95,-22,-545,-207,-51,-369,-112,-1085,229,222,877,-859,-3051,-916,364,845,-634,-1538,735,581,729,432,1279,91966
-535,-146,41,58,-20,-9,-678,-235,79,111,-135,-14,193,-7,2,-681,140,82,522,-517,-2076,-536,288,464,-276,-241,365,361,468,176,485,91967
-285,-91,20,79,34,39,-369,-18,87,155,10,164,39,64,-19,-480,91,36,302,-376,-1539,-361,243,265,-151,465,194,249,302,18,231,91968
-356,-85,27,74,6,2,-372,-110,21,277,-10,163,-350,-42,5,-532,76,49,288,-437,-1615,-415,217,278,-245,347,219,243,294,6,356,91969
-367,-81,27,73,-5,14,-370,-325,-97,256,-58,-1,-259,-47,-37,-563,54,26,270,-471,-1628,-442,190,263,-284,285,208,212,274,-15,324,91970
-332,-60,16,73,3,11,-320,-267,6,270,-154,20,36,24,-71,-532,47,16,253,-435,-1514,-391,176,233,-248,403,180,206,254,-48,313,91971
-321,-55,18,73,2,3,-314,-124,41,169,70,37,141,51,36,-506,54,25,268,-408,-1449,-362,186,244,-225,460,177,220,255,-40,356,91972
-480,-103,42,34,-47,-28,-515,-120,55,132,-76,-8,193,-126,-17,-625,78,66,353,-514,-1710,-457,213,338,-337,63,277,271,309,24,618,91973
-963,-220,107,-25,-163,-139,-1050,-504,125,120,-566,-174,212,-384,-220,-992,189,206,706,-796,-2656,-794,309,713,-646,-1288,626,492,582,265,1315,91974
-1071,-245,123,-16,-171,-145,-1131,-715,219,134,-633,-274,114,-329,-246,-1068,262,266,855,-817,-2926,-830,378,854,-638,-1737,749,599,714,398,1435,91975
-965,-208,113,31,-126,-93,-994,-608,156,82,-465,-163,30,-319,-169,-990,271,254,843,-721,-2795,-756,396,835,-485,-1627,720,602,720,421,1259,91976
-360,-90,-7,102,12,37,-326,-299,58,-2,-108,149,-31,-115,34,-532,157,72,476,-310,-1670,-319,325,414,-1,-92,304,365,439,171,223,91977
-32,-13,-66,115,79,80,33,112,-9,88,119,269,-19,319,126,-298,38,-56,168,-149,-998,-140,213,106,174,913,32,165,185,-61,-172,91978
-90,-30,-57,86,34,42,-28,42,76,237,261,274,-59,167,93,-347,15,-59,102,-199,-1057,-243,175,86,98,923,21,117,138,-99,-43,91979
-233,-62,-28,55,-4,5,-175,-1,44,225,-1,185,-184,123,112,-423,44,9,165,-288,-1305,-356,183,183,-4,653,128,169,195,-27,216,91980
-275,-76,-16,34,-8,3,-236,37,-22,141,-23,124,-130,106,58,-450,60,25,210,-319,-1420,-410,196,222,-39,545,166,203,227,6,270,91981
-259,-71,5,39,3,12,-249,-219,-34,94,27,84,69,69,22,-459,23,-9,169,-338,-1441,-440,163,174,-81,550,120,157,196,-28,194,91982
-570,-127,68,25,-61,-41,-602,-278,63,55,-417,-19,26,127,-95,-731,67,71,334,-570,-2061,-693,191,372,-365,-318,325,252,317,84,806,91983
-1570,-358,198,-91,-311,-262,-1689,-871,347,-16,-1343,-538,281,-497,-263,-1510,271,352,1057,-1209,-4037,-1394,349,1126,-1063,-3135,1043,696,854,576,2338,91984
-1886,-429,230,-84,-364,-307,-2026,-1048,282,-13,-1344,-547,245,-589,-230,-1786,391,449,1440,-1375,-4840,-1564,467,1464,-1194,-4443,1342,931,1145,846,2652,91985
-1510,-347,173,4,-251,-200,-1578,-637,159,85,-806,-378,364,-408,-251,-1517,376,357,1309,-1070,-4190,-1207,485,1270,-834,-3801,1128,851,1055,754,1885,91986
-396,-103,-26,133,15,36,-295,178,-17,127,197,123,194,196,11,-584,213,91,617,-261,-1889,-262,380,503,54,-835,394,427,560,309,121,91987
128,18,-106,149,132,137,263,345,-142,222,432,241,-298,405,-3,-162,54,-79,121,34,-673,141,227,41,322,825,-32,127,171,-55,-499,91988
68,19,-72,122,113,115,159,148,-167,154,53,218,-279,255,22,-211,28,-70,64,-49,-666,96,182,33,176,855,-18,111,113,-115,-277,91989
-34,3,-71,88,65,70,55,-9,-87,53,119,235,-180,182,37,-257,63,-2,94,-101,-749,66,203,108,91,719,75,153,147,-72,-92,91990
0,4,-73,72,55,65,73,190,-101,95,130,162,-30,452,20,-213,74,8,83,-49,-602,126,218,85,109,886,43,146,144,-80,-108,91991
5,-7,-75,64,40,59,52,173,-11,165,152,172,-185,418,22,-232,41,-40,41,-67,-549,99,160,42,64,942,0,100,88,-125,-120,91992
-315,-84,-14,14,-31,10,-321,-112,70,77,-263,61,-270,-64,-52,-491,60,30,204,-310,-1152,-181,172,218,-202,148,180,188,196,-27,415,91993
-1045,-241,115,-43,-186,-125,-1124,-610,161,17,-645,-328,-20,-400,-209,-1063,209,233,731,-783,-2648,-729,305,770,-701,-1917,696,511,591,332,1546,91994
-1327,-305,147,-51,-242,-172,-1412,-704,221,27,-660,-451,67,-469,-185,-1318,271,296,992,-937,-3340,-956,361,1011,-828,-2935,912,641,789,531,1803,91995
-1168,-261,128,-6,-186,-124,-1225,-673,268,86,-573,-225,22,-102,-189,-1206,274,260,971,-782,-3177,-848,385,962,-623,-2760,844,633,793,545,1488,91996
-253,-67,-39,103,28,64,-190,-57,30,179,47,238,-69,359,1,-491,131,11,410,-134,-1443,-178,290,326,128,-384,229,281,391,176,11,91997
251,43,-137,128,143,145,372,206,-131,271,417,350,-42,346,123,-60,18,-102,-45,195,-370,154,187,-89,468,1209,-135,32,59,-121,-564,91998
208,42,-120,111,109,113,330,295,-120,282,430,244,18,225,96,-59,22,-87,-67,173,-383,79,158,-72,414,1321,-102,38,44,-117,-426,91999
189,51,-85,109,110,124,305,154,-122,102,217,281,-103,133,74,-66,7,-78,-46,161,-414,19,140,-47,375,1388,-76,43,39,-110,-374,92000
125,32,-66,77,88,116,213,117,-136,35,109,257,-280,117,18,-101,22,-49,-19,117,-513,-57,132,-13,318,1324,-50,52,47,-84,-230,92001
85,23,-60,75,73,103,148,185,-110,128,136,92,-187,67,9,-138,25,-44,2,80,-595,-95,130,17,277,1253,-15,66,61,-55,-89,92002
-176,-48,-45,23,2,28,-129,48,-140,77,-78,-109,-5,40,-40,-340,32,-5,111,-114,-1040,-288,117,161,46,655,120,128,140,20,244,92003
-1101,-242,107,-65,-211,-159,-1144,-603,60,99,-741,-334,-66,-469,-214,-1056,241,277,784,-697,-2820,-914,285,872,-601,-1873,802,541,640,483,1712,92004
-1362,-291,144,-40,-254,-201,-1406,-663,224,1,-827,-339,-15,-459,-257,-1267,358,374,1106,-809,-3427,-1017,413,1148,-698,-2914,1045,725,897,734,1970,92005
-1083,-249,76,-8,-195,-141,-1058,-516,207,-72,-642,-160,11,-268,-124,-1065,313,266,955,-618,-2906,-746,393,948,-447,-2379,826,621,784,625,1331,92006
-289,-74,-60,90,3,27,-155,-48,6,-51,-37,181,123,247,86,-452,171,47,428,-121,-1350,-120,291,369,128,-356,286,299,402,249,11,92007
130,16,-127,112,101,112,283,385,-141,153,181,343,-217,499,136,-132,32,-85,6,56,-443,174,162,-30,314,889,-73,51,83,-78,-500,92008
28,-3,-73,80,64,92,127,199,-80,216,182,251,-398,119,118,-209,28,-43,-11,-64,-555,104,134,-1,143,727,-36,62,72,-98,-229,92009
-84,-37,-61,52,26,40,-11,61,13,26,141,207,-189,63,64,-283,42,-17,44,-152,-720,34,142,57,25,473,24,95,92,-87,-49,92010
-118,-58,-58,37,10,27,-82,83,-65,93,2,159,44,157,35,-326,24,-43,40,-202,-792,-20,137,47,-46,376,16,79,68,-107,17,92011
-149,-67,-41,28,11,29,-150,32,-56,149,-90,150,27,180,85,-371,12,-35,58,-257,-873,-75,121,65,-104,252,30,84,80,-114,71,92012
-297,-92,-11,13,-27,0,-320,48,9,153,-242,112,28,225,42,-479,67,35,186,-349,-1166,-186,156,196,-206,-178,161,184,183,-29,357,92013
-757,-178,76,-9,-125,-86,-816,-325,31,59,-348,-73,-74,67,-133,-819,191,192,555,-636,-2145,-535,272,571,-517,-1524,524,418,459,229,1108,92014
-902,-208,66,-11,-157,-123,-925,-351,100,60,-437,-151,-7,-52,-83,-943,213,206,673,-681,-2485,-634,307,682,-539,-2035,616,476,560,324,1163,92015
-731,-170,33,18,-115,-80,-707,-209,149,102,-505,-105,-100,53,-22,-820,189,141,565,-526,-2200,-522,294,560,-362,-1665,495,410,494,258,879,92016
-270,-70,-30,83,-4,20,-198,84,18,102,-84,162,-194,353,58,-467,110,28,251,-206,-1354,-213,234,244,-2,-488,178,220,278,63,119,92017
9,-23,-90,83,45,65,124,168,-134,35,270,268,-182,323,52,-218,31,-57,24,-1,-746,-34,172,3,192,422,-35,79,96,-91,-274,92018
168,40,-87,109,97,109,294,182,-47,71,282,216,-120,457,68,-50,43,-53,-35,174,-395,94,169,-45,344,984,-87,48,51,-95,-375,92019
255,44,-115,97,107,109,373,352,-63,63,326,173,-200,232,46,19,-7,-105,-129,267,-151,147,116,-130,400,1387,-176,-32,-34,-140,-519,92020
373,68,-112,93,129,141,481,390,-247,-44,334,200,-37,89,112,101,-60,-144,-240,347,146,209,50,-225,462,1828,-265,-110,-124,-193,-650,92021
442,105,-102,107,148,164,555,568,-146,-84,167,243,15,199,162,175,-63,-133,-257,412,342,264,34,-242,515,2151,-264,-126,-139,-182,-666,92022
326,84,-84,92,104,119,455,292,-87,138,92,231,-298,335,173,122,-41,-109,-180,347,237,218,37,-163,421,2033,-183,-79,-103,-134,-481,92023
89,24,-58,52,48,68,190,93,46,115,68,167,-230,87,11,-76,-10,-60,-44,149,-202,54,56,-21,208,1461,-44,-2,-17,-50,-113,92024
-109,-31,-34,7,-17,18,-41,-35,26,4,-38,33,58,91,-36,-245,31,1,83,-34,-616,-86,92,107,38,882,91,75,98,41,202,92025
-188,-30,-19,17,-22,2,-117,-165,-5,74,-172,36,-150,98,37,-292,65,35,165,-112,-781,-108,120,180,-17,602,163,131,158,87,304,92026
-218,-51,-41,5,-32,-11,-151,-47,11,94,-57,34,-445,141,-3,-340,34,2,125,-200,-870,-145,92,144,-73,460,128,116,123,33,196,92027
-234,-61,-28,10,-30,-29,-175,62,-20,-63,-64,1,-315,102,92,-374,23,5,103,-279,-944,-174,94,111,-141,331,107,107,99,-17,235,92028
-405,-95,12,5,-78,-58,-381,-271,167,-86,-304,-42,-235,-21,48,-503,94,85,242,-436,-1336,-310,165,253,-279,-246,246,220,206,46,546,92029
-550,-129,42,-14,-99,-61,-570,-200,149,-49,-415,-151,-77,-166,-17,-635,117,122,318,-583,-1727,-444,185,344,-412,-830,333,282,288,75,752,92030
-704,-182,66,-40,-135,-85,-764,-305,139,109,-562,-203,145,-314,-69,-802,128,134,380,-759,-2148,-600,187,415,-554,-1445,398,323,346,102,903,92031
-780,-196,72,-35,-143,-105,-823,-410,174,83,-529,-238,104,-201,-123,-873,160,165,444,-829,-2387,-666,234,469,-604,-1830,450,383,398,109,957,92032
-711,-179,66,1,-117,-76,-707,-366,120,121,-420,-112,45,-168,-50,-826,155,144,418,-766,-2314,-618,242,433,-533,-1804,413,367,391,82,849,92033
-739,-194,67,-3,-124,-81,-757,-222,116,193,-362,-15,23,-132,-11,-894,120,127,401,-797,-2423,-681,217,412,-584,-1992,391,329,366,55,876,92034
-810,-213,73,8,-134,-83,-855,-307,11,67,-408,-46,15,-168,-83,-971,119,124,442,-857,-2651,-767,228,471,-628,-2341,439,361,399,70,926,92035
-710,-203,38,6,-120,-69,-741,-331,54,-19,-546,-93,-152,-113,-16,-932,75,56,350,-792,-2513,-727,189,360,-553,-2190,328,291,333,0,690,92036
-532,-166,8,18,-69,-38,-510,17,-12,-87,-380,-66,73,62,-15,-764,64,16,265,-602,-2128,-576,177,263,-374,-1711,222,226,266,-44,489,92037
-366,-117,1,56,-21,17,-317,-82,-50,-86,-190,63,9,151,-49,-598,74,24,238,-404,-1766,-423,187,225,-194,-1246,184,215,248,-39,306,92038
-158,-51,-26,82,31,76,-75,93,-23,-47,15,172,-29,263,103,-415,74,13,172,-181,-1313,-235,188,148,16,-641,103,180,192,-44,60,92039
10,-10,-90,87,51,76,141,212,-52,-22,166,205,-108,395,57,-202,85,0,117,67,-807,-20,211,88,219,10,29,146,153,-52,-112,92040
194,45,-121,99,91,90,391,215,-81,-40,268,282,-219,555,89,-10,47,-39,-1,282,-256,190,164,-29,399,736,-78,63,60,-88,-367,92041
332,84,-135,104,113,122,508,403,-207,-45,162,293,-182,506,137,135,38,-56,-96,415,159,342,130,-92,522,1320,-140,2,-11,-110,-482,92042
471,105,-142,110,139,165,614,396,-180,-39,417,267,-23,313,98,272,27,-81,-153,522,510,474,120,-165,630,1851,-212,-34,-60,-135,-691,92043
777,164,-195,117,185,192,985,644,-294,117,758,374,-231,459,197,537,-72,-192,-423,707,1260,727,34,-448,826,2937,-478,-213,-287,-320,-1219,92044
699,164,-164,106,169,159,921,617,-251,53,405,414,-148,384,160,459,-113,-192,-482,552,1164,609,-27,-485,655,2921,-484,-249,-339,-400,-1000,92045
370,97,-115,56,65,82,544,149,-54,-76,270,271,-156,316,82,164,-102,-127,-366,210,478,282,-33,-339,292,2093,-312,-181,-256,-349,-493,92046
-318,-63,1,-28,-99,-60,-233,-146,69,26,-251,-67,-338,-99,-77,-400,6,43,44,-350,-960,-297,43,116,-276,164,143,90,48,-94,538,92047
-700,-156,67,-55,-171,-119,-694,-277,163,-23,-391,-276,-202,-216,-126,-725,106,144,356,-649,-1921,-625,136,427,-540,-1155,433,288,289,110,1050,92048
-834,-210,79,-75,-198,-126,-872,-527,223,-80,-474,-352,-56,-119,-169,-872,121,150,425,-793,-2355,-784,147,483,-639,-1789,473,330,360,139,1098,92049
-872,-226,106,-54,-176,-106,-943,-684,156,62,-543,-251,-91,-149,-136,-952,129,148,480,-866,-2600,-856,195,505,-671,-2167,484,370,396,134,1124,92050
-940,-241,98,-37,-180,-139,-1006,-453,172,107,-407,-166,-32,-348,28,-1024,171,186,555,-942,-2877,-945,252,576,-722,-2605,549,432,453,168,1198,92051
-1009,-248,121,-15,-185,-141,-1064,-468,150,136,-549,-109,61,-356,-98,-1095,208,234,619,-1017,-3177,-1026,304,641,-778,-3063,629,491,537,203,1301,92052
-985,-251,104,3,-160,-123,-1042,-563,48,210,-492,-172,-32,-260,-148,-1121,177,194,588,-1052,-3298,-1065,281,597,-777,-3273,599,480,525,143,1182,92053
-505,-159,8,51,-54,-13,-515,-84,86,215,-212,-22,77,-11,4,-792,67,46,240,-783,-2461,-736,197,238,-445,-2181,245,264,275,-116,411,92054
-283,-111,-22,67,-12,32,-265,127,-16,140,-20,108,-53,49,61,-625,19,-4,58,-652,-2014,-589,159,71,-318,-1611,71,164,137,-258,162,92055
-352,-120,-26,31,-53,-21,-304,60,13,92,84,4,-102,162,27,-635,58,38,92,-664,-2027,-571,186,99,-362,-1697,111,193,155,-243,302,92056
-769,-191,63,-5,-129,-87,-770,-169,156,120,-190,-192,6,-87,-112,-941,142,161,375,-895,-2781,-824,238,415,-652,-2831,414,366,365,-42,1006,92057
-849,-224,75,8,-127,-75,-875,-446,149,97,-392,-224,-16,-366,-84,-1026,175,170,511,-856,-2911,-785,279,533,-635,-3208,489,422,469,78,1059,92058
-475,-146,14,52,-28,16,-436,-50,8,108,-199,13,-73,-126,3,-710,128,78,368,-489,-2031,-369,255,343,-261,-2196,270,315,346,6,468,92059
-183,-67,-52,87,25,54,-83,257,-103,67,168,118,-109,200,70,-431,103,21,237,-165,-1236,-6,233,201,40,-1260,117,224,248,-35,66,92060
84,6,-93,136,83,102,232,409,8,256,418,244,-160,382,144,-165,78,-28,87,117,-490,319,202,57,298,-342,-19,113,139,-86,-273,92061
185,11,-122,113,97,105,348,452,6,229,405,256,-238,458,112,-89,5,-102,-39,212,-94,427,124,-74,366,187,-152,-4,15,-163,-495,92062
439,84,-149,133,150,144,625,530,-54,264,472,327,-162,355,170,125,-37,-155,-187,397,473,613,82,-235,545,1009,-300,-97,-114,-243,-827,92063
927,204,-220,167,249,226,1157,824,-261,165,880,557,-182,499,273,540,-136,-280,-559,685,1476,917,-12,-617,854,2537,-643,-327,-392,-501,-1515,92064
891,191,-205,128,218,208,1104,851,-176,131,896,484,-275,445,204,530,-187,-288,-682,576,1469,782,-83,-689,725,2767,-679,-379,-491,-599,-1383,92065
466,84,-117,64,106,117,572,628,-16,30,620,309,-236,262,42,161,-158,-187,-482,168,517,295,-78,-452,290,1683,-416,-246,-363,-493,-652,92066
-448,-112,49,-29,-102,-59,-470,-252,147,16,-227,-93,-216,-181,-77,-581,17,66,107,-527,-1482,-536,62,193,-439,-874,203,142,81,-122,807,92067
-998,-242,119,-77,-234,-159,-1074,-766,167,-160,-661,-294,-116,-525,-145,-1055,123,195,509,-938,-2858,-1066,171,578,-830,-2714,583,391,404,131,1456,92068
-1145,-299,115,-79,-258,-174,-1233,-710,134,-51,-628,-234,-86,-390,-136,-1212,166,214,630,-1086,-3417,-1270,221,679,-907,-3479,674,458,521,194,1570,92069
-1188,-312,131,-48,-242,-157,-1267,-573,303,76,-722,-289,102,-331,-197,-1290,190,228,699,-1158,-3744,-1398,266,722,-923,-3956,700,512,584,203,1578,92070
-1229,-327,140,-39,-237,-137,-1311,-513,250,1,-613,-326,272,-547,-195,-1356,182,213,729,-1223,-4022,-1483,279,752,-954,-4381,716,544,618,199,1558,92071
-1314,-346,151,-34,-233,-147,-1410,-457,196,-21,-663,-360,-43,-539,-169,-1437,212,241,806,-1290,-4333,-1578,331,833,-997,-4864,787,608,697,251,1652,92072
-1262,-347,116,-37,-233,-152,-1362,-627,253,-21,-707,-295,-114,-321,-134,-1431,204,221,773,-1286,-4343,-1535,341,790,-940,-4981,748,597,684,215,1530,92073
-828,-242,57,17,-125,-41,-880,-253,230,56,-487,-119,-86,-89,30,-1114,120,98,474,-999,-3516,-1171,288,468,-615,-3973,433,425,471,-2,806,92074
-584,-207,25,28,-60,4,-631,-211,57,80,-322,-6,-160,-3,127,-914,67,15,273,-844,-2959,-942,239,267,-460,-3318,243,305,306,-153,495,92075
-619,-213,1,30,-80,-29,-645,-109,65,106,-110,60,-52,-21,88,-898,98,68,304,-827,-2885,-849,266,303,-486,-3364,284,330,332,-136,621,92076
-988,-277,45,1,-163,-126,-999,-430,182,128,-510,-84,27,-190,-40,-1187,187,201,574,-1044,-3498,-999,342,601,-742,-4406,564,505,534,50,1285,92077
-1058,-289,49,31,-179,-128,-1024,-437,173,227,-672,-84,118,-250,-50,-1249,229,220,719,-1031,-3563,-892,392,718,-736,-4791,642,573,644,168,1351,92078
-892,-242,3,51,-139,-89,-796,-380,116,223,-619,-66,-145,-156,16,-1125,195,158,638,-875,-3061,-581,385,609,-564,-4393,526,498,578,115,1036,92079
-753,-206,-4,77,-95,-44,-645,-302,119,308,-368,-12,-47,19,80,-1013,191,134,570,-735,-2633,-330,358,537,-408,-4033,456,442,526,95,831,92080
-591,-173,-34,86,-59,-12,-462,-21,168,63,28,-26,17,68,74,-866,151,81,465,-572,-2169,-112,316,422,-248,-3556,345,363,439,38,581,92081
-502,-163,-70,67,-57,-7,-344,110,37,-46,178,72,-153,83,29,-795,83,11,357,-488,-1860,-12,257,308,-177,-3181,228,275,341,-43,363,92082
-391,-132,-57,90,-19,25,-249,163,-40,103,115,252,-211,32,108,-718,71,-6,300,-405,-1664,25,258,249,-90,-2898,171,249,290,-78,280,92083
29,-38,-122,136,77,113,191,315,-122,129,371,501,-223,310,182,-370,8,-111,26,-110,-870,240,197,-39,225,-1740,-104,103,85,-240,-333,92084
181,-12,-146,122,107,142,340,274,-137,244,357,474,-137,356,224,-218,-24,-138,-116,-12,-579,232,153,-145,308,-1149,-204,18,-23,-329,-471,92085
36,-27,-80,101,79,117,155,134,-44,221,271,296,-121,197,201,-321,7,-68,-29,-108,-950,-14,171,-20,168,-1451,-67,85,52,-253,-83,92086
-383,-116,-13,50,-31,19,-315,-13,62,197,-171,6,112,-247,81,-658,65,39,225,-401,-1873,-476,201,263,-152,-2539,203,232,235,-85,590,92087
-593,-175,-18,25,-102,-45,-534,-350,0,59,-144,-53,9,-344,-34,-828,100,73,378,-515,-2385,-714,239,397,-275,-3149,340,304,349,23,751,92088
-517,-156,-22,46,-66,-12,-441,-185,-68,36,-2,90,-26,-59,-60,-774,98,63,377,-441,-2354,-714,245,375,-198,-3051,314,306,354,32,621,92089
-478,-151,-31,48,-55,-12,-394,9,0,-68,-49,38,108,56,-24,-751,100,42,361,-398,-2341,-725,233,356,-157,-2965,302,298,353,41,554,92090
-442,-130,-28,67,-42,14,-337,5,-11,-56,-181,94,36,68,-32,-704,103,53,362,-347,-2299,-700,247,360,-101,-2866,303,308,363,48,494,92091
-362,-115,-45,77,-30,33,-236,-50,52,12,-117,129,-192,-159,43,-620,104,39,334,-259,-2120,-626,248,323,-19,-2654,265,289,328,48,405,92092
-219,-77,-65,93,10,52,-47,128,57,87,19,124,-126,41,95,-486,92,16,246,-116,-1756,-459,244,243,99,-2208,180,219,265,14,191,92093
-63,-37,-101,104,39,70,151,105,-123,133,391,288,-126,217,151,-337,78,-19,142,12,-1333,-260,230,140,226,-1682,87,162,192,-35,-14,92094
5,-12,-113,102,41,76,239,151,-120,171,349,259,-132,206,91,-272,64,-29,88,53,-1083,-143,204,68,242,-1393,37,127,142,-76,-98,92095
-50,-25,-88,95,40,74,155,192,-55,173,161,292,-124,28,95,-328,46,-33,100,-17,-1108,-126,183,88,157,-1496,55,127,140,-81,-34,92096
-261,-87,-79,44,-21,19,-118,11,-2,131,-161,111,-144,-34,-10,-503,60,-9,197,-195,-1420,-200,183,197,-30,-2026,166,176,195,-32,266,92097
-454,-135,-33,19,-67,-12,-365,44,36,97,-307,11,-106,-104,51,-652,121,69,326,-355,-1725,-224,224,350,-175,-2612,311,265,300,55,581,92098
-669,-204,-4,-19,-126,-60,-632,-151,73,-47,-318,-37,-81,-159,-40,-849,133,109,420,-576,-2116,-301,240,446,-375,-3333,414,332,374,86,833,92099
-785,-231,46,-8,-130,-61,-790,-307,149,144,-524,-110,89,-80,-17,-1000,146,139,518,-752,-2455,-372,260,520,-503,-3948,501,395,446,103,1003,92100
-1005,-275,65,-18,-178,-101,-1020,-490,212,281,-664,-131,104,-40,-133,-1194,197,195,669,-963,-2969,-534,326,661,-672,-4740,648,501,552,165,1325,92101
-1125,-294,63,-26,-201,-133,-1114,-661,151,88,-593,-156,-30,-105,-166,-1278,247,241,776,-1051,-3276,-616,389,753,-718,-5275,723,597,635,203,1413,92102
-1098,-305,38,-22,-196,-128,-1082,-685,88,-96,-510,-195,-68,-252,-112,-1300,208,193,697,-1061,-3318,-659,356,685,-692,-5393,642,539,587,148,1305,92103
-1010,-280,47,7,-159,-77,-976,-392,105,71,-445,-179,-61,-66,-32,-1251,194,164,653,-963,-3271,-688,355,652,-592,-5331,607,511,584,150,1185,92104
-796,-239,6,32,-105,-32,-715,-247,95,87,-391,-19,-250,90,55,-1069,142,81,518,-730,-2864,-588,307,515,-380,-4755,446,409,467,69,770,92105
-507,-181,-59,46,-31,42,-399,-206,-94,72,-379,20,-186,155,15,-807,109,15,391,-413,-2242,-394,289,356,-75,-3875,275,322,360,4,400,92106
-127,-87,-114,86,65,124,30,8,-181,46,107,162,145,289,88,-479,51,-70,211,-26,-1417,-106,249,147,281,-2695,65,185,225,-63,-117,92107
276,23,-178,135,145,197,495,338,-240,39,162,422,35,465,152,-102,11,-122,-28,383,-470,226,201,-63,632,-1327,-142,27,65,-128,-634,92108
616,114,-233,175,212,220,903,632,-309,35,265,473,24,697,259,247,-15,-170,-201,741,400,528,180,-237,930,-54,-311,-82,-74,-181,-1009,92109
895,193,-267,196,260,245,1230,886,-354,32,648,697,-50,822,317,545,-38,-213,-357,1048,1209,801,108,-392,1177,1157,-447,-190,-212,-214,-1305,92110
1108,258,-307,196,285,263,1482,932,-403,50,977,650,-59,886,319,777,-85,-250,-489,1308,1909,1021,41,-512,1363,2211,-561,-296,-328,-244,-1586,92111
1320,299,-348,186,311,283,1711,1076,-370,85,926,621,-239,795,375,1008,-140,-315,-658,1540,2613,1249,-41,-678,1526,3284,-716,-435,-472,-301,-1904,92112
1450,334,-351,169,324,305,1813,1142,-360,41,1055,617,-236,712,347,1150,-177,-348,-758,1664,3101,1394,-90,-773,1591,4052,-811,-515,-573,-327,-1989,92113
1386,325,-326,144,297,276,1735,907,-442,-6,1128,548,-220,523,309,1124,-204,-358,-740,1623,3151,1368,-138,-752,1486,4244,-779,-525,-602,-305,-1868,92114
1313,327,-303,123,276,247,1663,842,-302,155,1065,648,-152,624,210,1119,-180,-306,-695,1588,3166,1382,-145,-696,1411,4375,-704,-503,-567,-247,-1679,92115
1186,292,-265,102,238,224,1489,814,-277,251,981,443,47,531,176,1040,-170,-273,-629,1461,3005,1302,-166,-612,1266,4223,-613,-465,-530,-188,-1412,92116
1010,234,-216,68,180,199,1235,619,-172,257,660,430,9,267,187,891,-173,-243,-574,1233,2687,1171,-169,-552,1055,3868,-537,-418,-496,-177,-1246,92117
603,137,-165,-7,75,98,731,326,-94,197,302,266,-16,207,101,539,-115,-146,-395,789,1835,838,-133,-352,637,2768,-318,-287,-362,-128,-659,92118
-6,-5,-55,-58,-57,-28,27,47,-1,-65,-192,-90,24,-47,-97,10,-51,-21,-113,161,437,298,-97,-38,52,917,25,-78,-137,-6,202,92119
-593,-144,78,-109,-181,-110,-655,-416,85,-102,-652,-243,91,-560,-86,-575,8,84,176,-498,-1067,-292,-63,262,-530,-1144,350,120,92,105,956,92120
-1066,-275,153,-155,-288,-196,-1214,-783,175,-36,-917,-411,105,-824,-160,-1033,95,190,448,-1002,-2363,-771,40,534,-963,-2957,614,315,320,197,1568,92121
-1449,-366,194,-159,-356,-287,-1604,-979,382,21,-946,-410,169,-681,-206,-1346,221,333,754,-1337,-3419,-1100,197,823,-1215,-4497,888,549,585,336,2069,92122
-1583,-406,175,-156,-374,-303,-1713,-1068,413,-12,-957,-492,24,-616,-224,-1501,251,351,866,-1452,-3916,-1234,269,908,-1261,-5311,945,625,693,357,2084,92123
-1473,-382,159,-101,-307,-240,-1601,-914,345,5,-880,-504,121,-432,-235,-1469,265,329,876,-1324,-3911,-1183,313,905,-1110,-5448,908,638,729,371,1875,92124
-1012,-267,97,-11,-176,-117,-1080,-509,185,25,-406,-296,25,-323,-111,-1088,244,234,718,-858,-3037,-790,318,705,-632,-4420,676,537,620,311,1208,92125
-402,-123,-31,59,-38,-6,-319,154,-101,258,-53,86,50,-114,47,-518,177,93,400,-213,-1616,-216,265,356,-7,-2587,302,322,387,173,299,92126
460,80,-174,143,167,169,659,630,-201,263,627,514,-130,466,206,217,52,-113,-85,609,372,550,169,-173,750,83,-235,-22,0,-73,-937,92127
1203,253,-276,212,331,291,1487,1091,-235,391,1017,691,-94,844,323,858,-94,-306,-548,1301,2215,1198,23,-646,1341,2631,-709,-353,-370,-300,-1888,92128
1770,400,-368,248,445,378,2138,1454,-392,317,1415,822,31,911,399,1406,-218,-441,-901,1888,3782,1746,-120,-973,1806,4847,-1031,-605,-664,-436,-2613,92129
2271,536,-455,273,525,445,2735,1778,-573,331,1796,936,-169,1010,486,1946,-295,-529,-1197,2442,5271,2262,-233,-1261,2253,7019,-1309,-819,-908,-511,-3231,92130
2675,649,-510,278,591,508,3183,1713,-630,70,1861,1047,-640,1194,490,2385,-359,-603,-1462,2887,6556,2681,-337,-1515,2581,8963,-1543,-1023,-1137,-588,-3690,92131
3056,741,-554,271,653,560,3604,1896,-652,49,2133,1158,-409,1347,580,2784,-435,-683,-1720,3286,7787,3067,-451,-1759,2877,10869,-1782,-1225,-1365,-676,-4118,92132
3270,816,-566,257,678,579,3854,2061,-668,29,2260,1201,-303,1416,653,3090,-456,-686,-1852,3570,8676,3351,-528,-1867,3045,12335,-1879,-1321,-1494,-673,-4313,92133
3183,809,-556,203,622,494,3759,1833,-748,-54,1806,1110,-339,1316,525,3147,-430,-625,-1821,3585,8901,3367,-569,-1818,2966,12916,-1795,-1308,-1497,-589,-4038,92134
2976,777,-503,155,556,443,3501,1653,-574,-89,1618,813,-243,1022,463,3026,-444,-597,-1746,3392,8699,3201,-617,-1747,2718,12918,-1684,-1300,-1476,-528,-3686,92135
2722,709,-410,107,490,409,3108,1449,-542,-99,1549,520,-192,553,389,2774,-495,-597,-1695,3068,8196,2899,-697,-1664,2369,12535,-1579,-1290,-1473,-513,-3287,92136
2344,596,-334,23,381,322,2602,1222,-505,-244,1233,464,-120,280,293,2438,-485,-530,-1547,2626,7374,2511,-714,-1496,1926,11707,-1383,-1188,-1380,-455,-2779,92137
1597,430,-182,-84,200,173,1696,810,-259,-342,563,175,48,217,96,1806,-396,-362,-1203,1837,5668,1792,-670,-1106,1193,9696,-943,-942,-1116,-296,-1730,92138
557,185,-5,-198,-42,-41,472,-1,23,-244,-159,-256,318,-486,-76,909,-220,-91,-618,790,3171,814,-509,-491,237,6507,-299,-523,-662,-30,-207,92139
-393,-55,139,-283,-259,-240,-601,-694,296,-192,-634,-576,262,-721,-243,51,-79,115,-93,-193,757,-101,-341,51,-615,3330,240,-135,-236,182,1029,92140
-1106,-241,254,-332,-410,-370,-1406,-1139,356,-223,-1062,-751,277,-1087,-267,-634,26,260,327,-954,-1246,-830,-215,460,-1246,605,649,163,123,342,1841,92141
-1536,-337,316,-314,-478,-426,-1889,-1390,407,-158,-1356,-808,485,-1272,-294,-1084,135,374,636,-1431,-2654,-1293,-81,752,-1598,-1435,936,411,409,450,2388,92142
-1718,-399,325,-295,-496,-434,-2065,-1332,395,-74,-1233,-841,396,-1022,-358,-1304,196,419,805,-1619,-3397,-1491,10,892,-1705,-2656,1054,533,571,494,2473,92143
-1442,-337,272,-206,-382,-332,-1696,-1196,350,-90,-1100,-684,305,-590,-334,-1106,219,370,774,-1300,-3021,-1221,88,806,-1349,-2409,915,512,578,466,1940,92144
-790,-187,150,-105,-204,-169,-940,-814,130,-151,-636,-426,237,-253,-157,-577,172,232,490,-643,-1696,-608,90,471,-694,-844,541,316,388,331,946,92145
37,11,2,-1,6,-2,21,-248,-4,-22,-42,-83,134,7,48,143,84,54,52,198,204,178,25,14,88,1553,41,20,81,135,-240,92146
1048,243,-179,103,232,186,1188,680,-241,111,618,437,106,573,208,1045,-73,-195,-517,1186,2655,1129,-112,-600,988,4772,-591,-375,-367,-155,-1711,92147
1938,453,-329,168,425,333,2218,1378,-403,232,1309,760,18,885,405,1864,-225,-419,-1044,2060,4969,1981,-279,-1148,1769,7955,-1147,-741,-813,-399,-2866,92148
2604,638,-438,208,559,443,2997,1678,-485,92,1794,863,20,912,515,2522,-343,-544,-1454,2760,6876,2652,-407,-1540,2349,10669,-1532,-1034,-1150,-549,-3694,92149
3155,784,-507,226,665,532,3618,1893,-728,68,2002,979,-121,1191,604,3097,-440,-662,-1802,3364,8552,3219,-543,-1880,2804,13115,-1862,-1311,-1462,-675,-4362,92150
3609,906,-541,240,748,594,4093,2178,-819,93,2368,1144,-456,1397,643,3571,-515,-744,-2095,3846,9993,3679,-678,-2160,3155,15295,-2135,-1530,-1725,-765,-4816,92151
3923,987,-584,221,779,614,4412,2179,-892,-87,2399,1125,-407,1426,624,3914,-616,-837,-2335,4172,11094,4001,-823,-2391,3363,17110,-2346,-1718,-1957,-853,-5156,92152
4039,1024,-598,187,777,596,4530,2087,-929,-267,2260,1051,-251,1299,574,4102,-674,-871,-2463,4321,11758,4137,-934,-2500,3405,18353,-2417,-1837,-2100,-861,-5269,92153
3751,975,-534,112,673,498,4191,1842,-677,-311,2050,917,-173,1060,560,3981,-627,-745,-2313,4154,11517,3952,-948,-2302,3138,18371,-2190,-1751,-2006,-696,-4665,92154
3452,922,-456,60,576,416,3827,1626,-587,-104,1961,809,-141,933,491,3801,-573,-636,-2130,3936,11080,3727,-938,-2095,2881,18097,-1965,-1638,-1875,-541,-4162,92155
3211,877,-393,27,515,356,3520,1454,-591,-277,1633,644,-101,764,413,3628,-545,-573,-2002,3670,10627,3491,-939,-1964,2636,17827,-1817,-1556,-1792,-447,-3781,92156
3019,838,-327,-16,463,322,3240,1432,-469,-395,1601,504,-36,639,431,3475,-542,-553,-1944,3391,10177,3245,-965,-1907,2395,17557,-1725,-1524,-1761,-432,-3540,92157
2612,729,-238,-87,358,219,2720,1108,-408,-389,1204,308,-116,181,295,3107,-544,-497,-1823,2880,9211,2781,-993,-1756,1924,16617,-1543,-1444,-1683,-412,-2979,92158
1954,554,-118,-173,201,75,1932,582,-289,-284,796,140,-16,-20,159,2538,-477,-369,-1496,2190,7635,2108,-940,-1412,1278,14801,-1180,-1208,-1430,-286,-2083,92159
1340,401,-40,-244,36,-42,1241,385,-112,-372,319,-115,67,-303,-25,2009,-398,-225,-1178,1567,6110,1498,-857,-1074,719,12939,-841,-978,-1163,-150,-1276,92160
922,299,39,-275,-49,-105,759,54,-121,-404,-184,-298,19,-305,-88,1604,-315,-130,-964,1097,4915,1050,-790,-840,318,11459,-611,-813,-965,-57,-795,92161
615,202,101,-287,-93,-123,380,-208,-47,-325,-273,-382,93,-516,-119,1286,-261,-65,-775,748,3976,705,-704,-665,27,10233,-432,-682,-810,5,-419,92162
456,162,124,-273,-108,-147,226,-150,39,-212,-310,-414,220,-443,-217,1118,-227,-35,-650,579,3437,527,-661,-554,-109,9484,-329,-593,-685,47,-270,92163
356,130,126,-269,-126,-182,113,-191,104,-112,-342,-460,155,-558,-180,1001,-196,-14,-537,499,3098,450,-611,-456,-168,8967,-256,-525,-591,92,-181,92164
490,158,98,-227,-67,-139,254,-91,133,-205,-174,-424,213,-576,-144,1093,-194,-35,-543,646,3305,591,-575,-507,-16,9170,-321,-529,-585,84,-449,92165
839,243,51,-155,31,-49,661,414,22,-169,248,-230,289,-284,-10,1369,-227,-111,-704,960,4002,907,-586,-686,284,10034,-520,-627,-695,3,-1020,92166
1229,342,-26,-99,113,13,1149,423,-179,-152,489,40,132,-95,121,1761,-229,-164,-873,1357,4937,1315,-574,-878,651,11243,-733,-711,-806,-75,-1535,92167
1549,432,-68,-63,204,83,1537,612,-129,-167,745,138,370,149,237,2063,-256,-215,-1019,1670,5780,1646,-582,-1052,947,12378,-915,-805,-939,-176,-1962,92168
1677,451,-95,-81,221,106,1674,717,-281,-255,703,68,57,93,218,2179,-323,-287,-1165,1799,6240,1790,-675,-1189,1042,13065,-1049,-936,-1080,-262,-2127,92169
1796,478,-135,-86,236,119,1811,520,-273,-148,759,142,-44,246,157,2303,-379,-334,-1291,1932,6661,1937,-730,-1294,1125,13712,-1155,-1036,-1183,-319,-2297,92170
1974,536,-135,-66,283,152,1996,815,-164,-229,964,172,71,440,250,2480,-380,-357,-1374,2098,7154,2123,-750,-1383,1255,14445,-1237,-1086,-1241,-334,-2468,92171
2019,556,-135,-77,286,151,2032,788,-346,-309,1018,251,177,630,203,2544,-392,-362,-1415,2154,7377,2177,-788,-1415,1283,14883,-1264,-1115,-1284,-354,-2473,92172
1991,540,-130,-107,267,127,1990,629,-312,-216,842,345,68,403,188,2539,-416,-364,-1407,2124,7410,2146,-816,-1409,1254,15089,-1244,-1119,-1301,-352,-2423,92173
1933,546,-93,-97,260,126,1913,443,-212,-327,770,131,-124,234,176,2537,-374,-300,-1343,2104,7335,2114,-798,-1339,1217,15158,-1163,-1070,-1239,-279,-2287,92174
1884,527,-73,-114,250,119,1834,560,-208,-562,668,38,-135,201,213,2525,-353,-283,-1321,2065,7261,2056,-778,-1295,1196,15224,-1130,-1046,-1215,-242,-2200,92175
1813,503,-62,-147,224,102,1742,508,-211,-598,576,114,-100,199,173,2477,-352,-275,-1272,1985,7120,1957,-765,-1262,1137,15212,-1103,-1029,-1201,-225,-2117,92176
1815,515,-43,-139,233,103,1731,428,-236,-487,804,16,-110,90,187,2437,-400,-297,-1309,1919,7043,1863,-824,-1296,1087,15310,-1134,-1069,-1235,-258,-2068,92177
1805,507,-52,-148,221,86,1712,425,-198,-489,814,31,-55,20,143,2415,-432,-323,-1363,1861,6953,1748,-865,-1339,1040,15399,-1160,-1106,-1273,-282,-2087,92178
1814,502,-62,-154,226,82,1705,512,-271,-350,743,128,-100,90,169,2441,-434,-332,-1402,1852,6951,1692,-870,-1368,1060,15616,-1178,-1133,-1285,-290,-2135,92179
1757,487,-57,-178,194,53,1608,566,-262,-322,881,90,-35,129,22,2428,-411,-317,-1379,1821,6856,1626,-870,-1328,1028,15679,-1143,-1121,-1257,-255,-2038,92180
1749,499,-33,-162,202,60,1582,625,-202,-312,912,95,100,48,65,2447,-391,-293,-1312,1829,6839,1624,-831,-1273,1036,15782,-1101,-1059,-1216,-211,-2019,92181
1825,515,-27,-139,223,89,1648,692,-244,-295,799,59,-58,-41,133,2483,-427,-311,-1359,1852,6957,1665,-851,-1318,1062,16087,-1145,-1094,-1248,-234,-2131,92182
1771,502,6,-143,215,95,1601,753,-274,-249,584,58,197,-68,72,2451,-384,-262,-1304,1796,6840,1618,-836,-1259,977,16036,-1084,-1036,-1212,-214,-1998,92183
1650,469,12,-159,181,53,1497,523,-140,-385,461,-91,372,-202,57,2345,-385,-239,-1232,1659,6612,1530,-825,-1205,831,15789,-1036,-1010,-1183,-205,-1830,92184
1467,423,13,-178,122,-2,1326,275,-127,-311,455,-260,323,-260,-17,2176,-377,-208,-1160,1467,6217,1387,-804,-1123,634,15323,-943,-972,-1116,-181,-1590,92185
1245,358,65,-203,67,-51,1036,216,-116,-382,371,-268,65,-329,-32,1931,-377,-188,-1104,1193,5646,1157,-822,-1042,351,14606,-838,-928,-1053,-173,-1331,92186
939,293,125,-213,9,-113,680,29,-14,-409,82,-347,196,-317,-133,1669,-313,-98,-928,899,4918,878,-776,-836,73,13648,-628,-797,-897,-75,-831,92187
650,236,151,-256,-55,-172,398,-270,-5,-297,47,-405,176,-475,-161,1457,-254,-34,-744,657,4266,654,-720,-670,-128,12772,-467,-668,-757,-2,-520,92188
421,177,204,-260,-94,-186,130,-368,143,-266,-225,-437,-38,-524,-116,1224,-230,9,-583,429,3641,430,-668,-537,-329,11926,-343,-561,-643,51,-272,92189
243,120,233,-256,-123,-200,-112,-431,185,-387,-302,-506,58,-713,-111,1001,-206,23,-462,203,3047,214,-605,-427,-512,11105,-247,-476,-556,57,-46,92190
65,63,247,-281,-158,-225,-320,-711,223,-203,-546,-612,450,-875,-283,803,-180,34,-353,-20,2477,1,-555,-341,-675,10335,-173,-410,-480,65,164,92191
-126,23,270,-280,-186,-251,-498,-718,262,-224,-439,-516,287,-760,-308,643,-131,93,-230,-192,1929,-177,-488,-203,-793,9553,-40,-304,-346,136,441,92192
-182,27,290,-249,-173,-249,-561,-490,236,-199,-503,-560,320,-692,-224,555,-99,134,-168,-263,1603,-260,-445,-142,-813,9065,14,-237,-269,154,488,92193
-84,30,262,-223,-136,-212,-473,-321,304,-211,-348,-605,221,-645,-222,582,-125,86,-221,-248,1625,-233,-461,-218,-733,9073,-77,-271,-306,94,273,92194
-40,39,251,-209,-111,-191,-409,-245,283,-387,-374,-602,310,-589,-198,597,-127,69,-225,-221,1621,-212,-442,-227,-663,9036,-95,-270,-302,64,159,92195
53,61,204,-202,-106,-200,-251,-322,146,-461,-526,-376,178,-449,-148,678,-138,48,-298,-107,1811,-103,-440,-296,-534,9268,-164,-314,-339,34,-63,92196
180,121,176,-161,-71,-187,-61,-173,17,-319,-338,-369,58,-395,-116,821,-91,78,-275,91,2108,74,-380,-283,-332,9615,-176,-281,-305,75,-245,92197
551,201,116,-103,30,-104,392,142,-66,-235,128,-249,77,-24,-21,1163,-112,13,-398,488,2962,473,-367,-435,73,10704,-363,-367,-395,32,-697,92198
1125,334,16,-51,155,15,1050,399,-117,-336,607,13,136,217,72,1654,-191,-114,-711,1025,4298,1037,-429,-779,595,12487,-717,-598,-631,-112,-1427,92199
1532,424,-52,-9,255,98,1526,548,-208,-275,765,161,22,374,106,2031,-263,-223,-973,1454,5412,1477,-509,-1032,968,14027,-979,-776,-845,-235,-1973,92200
1902,515,-95,13,340,190,1929,883,-245,-163,902,272,118,440,118,2353,-351,-337,-1204,1807,6412,1849,-619,-1268,1267,15471,-1203,-954,-1050,-334,-2481,92201
2147,569,-121,8,385,235,2152,1076,-334,-207,1033,206,102,448,154,2549,-453,-449,-1407,2002,7120,2068,-761,-1458,1395,16574,-1397,-1134,-1241,-432,-2816,92202
2182,590,-99,1,390,222,2155,1063,-313,-233,993,167,129,326,235,2624,-462,-429,-1448,2053,7381,2122,-783,-1482,1390,17096,-1394,-1151,-1283,-419,-2680,92203
1926,525,-70,-69,287,129,1861,795,-257,-265,959,127,68,132,139,2473,-441,-366,-1351,1832,6995,1893,-769,-1360,1137,16776,-1243,-1090,-1228,-355,-2275,92204
1520,435,3,-130,179,34,1385,528,-209,-171,366,187,81,76,44,2146,-389,-264,-1143,1437,6136,1479,-743,-1139,739,15812,-996,-956,-1082,-256,-1678,92205
995,323,90,-190,55,-76,785,110,-14,-282,74,-139,195,-117,-100,1690,-321,-138,-852,916,4897,930,-682,-828,241,14298,-674,-747,-869,-115,-933,92206
341,171,203,-245,-99,-206,65,-223,138,-440,-266,-447,215,-508,-198,1112,-237,14,-497,267,3288,258,-612,-442,-350,12267,-273,-494,-589,60,32,92207
-199,41,310,-289,-209,-276,-578,-588,142,-493,-736,-560,383,-715,-362,612,-124,150,-158,-267,1812,-319,-505,-96,-817,10333,67,-243,-315,206,720,92208
-685,-79,393,-316,-302,-341,-1143,-861,293,-409,-1020,-743,330,-692,-445,128,-48,238,105,-792,426,-865,-418,153,-1256,8467,314,-66,-95,290,1267,92209
-1119,-196,446,-360,-380,-415,-1632,-1155,447,-572,-1268,-948,486,-898,-469,-308,18,333,347,-1257,-849,-1354,-316,403,-1626,6689,557,122,129,377,1772,92210
-1505,-303,489,-364,-439,-463,-2060,-1447,527,-533,-1479,-966,810,-1074,-483,-703,92,413,610,-1656,-2041,-1777,-213,658,-1933,4988,811,325,360,471,2310,92211
-1778,-384,541,-361,-469,-489,-2398,-1359,560,-409,-1616,-1115,511,-1360,-539,-1038,153,460,811,-1984,-3041,-2104,-121,843,-2168,3493,983,482,532,523,2584,92212
-1917,-426,545,-333,-485,-486,-2551,-1377,507,-327,-1530,-1154,239,-1324,-580,-1241,202,488,940,-2165,-3707,-2283,-18,943,-2244,2432,1066,587,659,542,2717,92213
-1900,-422,537,-292,-453,-438,-2498,-1508,458,-355,-1485,-938,264,-1124,-584,-1291,220,476,973,-2183,-3932,-2276,49,960,-2173,1903,1047,614,709,516,2597,92214
-1741,-410,490,-259,-399,-388,-2318,-1293,396,-305,-1317,-872,245,-981,-535,-1229,167,398,874,-2081,-3785,-2134,39,849,-2009,1902,898,556,645,411,2253,92215
-1520,-366,425,-216,-337,-349,-2048,-1188,355,-73,-1027,-628,308,-622,-418,-1076,149,350,764,-1858,-3394,-1888,53,734,-1772,2189,767,490,589,346,1879,92216
-1183,-295,349,-160,-250,-284,-1619,-1098,225,-42,-952,-449,362,-306,-327,-799,122,274,608,-1492,-2650,-1487,45,550,-1412,2963,577,385,485,269,1352,92217
-583,-141,251,-73,-96,-143,-900,-653,185,10,-362,-370,218,-117,-167,-292,65,148,334,-881,-1264,-801,11,252,-832,4571,243,205,284,131,541,92218
193,72,133,33,96,26,36,-67,21,26,251,18,106,343,14,404,-5,2,-55,-73,654,88,-48,-147,-87,6934,-184,-58,-7,-33,-455,92219
851,238,0,93,239,134,825,345,-168,25,478,338,38,406,105,1018,-99,-144,-406,619,2449,836,-150,-538,522,9245,-569,-317,-310,-192,-1342,92220
1338,349,-106,118,330,195,1394,636,-316,-4,829,455,-84,503,152,1489,-188,-249,-682,1137,3878,1399,-239,-825,962,11173,-855,-524,-554,-308,-1917,92221
1686,450,-146,130,393,238,1793,832,-289,-23,1084,458,-35,776,244,1853,-247,-309,-899,1526,4963,1803,-318,-1015,1256,12725,-1050,-687,-745,-369,-2262,92222
1787,490,-144,107,404,253,1864,882,-269,-153,1059,478,45,600,289,1966,-313,-365,-1046,1608,5422,1885,-423,-1136,1276,13538,-1147,-804,-883,-419,-2299,92223
1567,444,-78,62,328,205,1548,766,-247,-203,911,403,5,430,193,1795,-322,-317,-1002,1363,5046,1595,-457,-1047,1005,13291,-1018,-769,-866,-377,-1916,92224
1131,336,-8,-19,196,93,1047,671,-221,-171,589,188,-55,215,56,1465,-260,-208,-799,937,4131,1106,-433,-800,586,12286,-748,-607,-718,-258,-1219,92225
509,201,87,-95,36,-37,357,-10,-48,-303,21,-123,-15,-8,-63,957,-155,-44,-452,349,2707,447,-353,-433,35,10573,-351,-379,-458,-83,-297,92226
-282,-3,213,-199,-157,-210,-558,-612,271,-423,-445,-561,93,-455,-221,253,-66,126,-34,-411,793,-395,-272,18,-658,8161,105,-98,-136,128,762,92227
-865,-140,343,-233,-262,-293,-1250,-929,341,-502,-783,-762,277,-678,-329,-307,34,264,326,-1020,-855,-1072,-169,396,-1184,5983,485,158,165,292,1513,92228
-1309,-261,433,-245,-342,-362,-1779,-1138,385,-330,-876,-826,553,-838,-445,-768,113,352,625,-1528,-2242,-1616,-58,675,-1591,4092,755,376,410,402,2113,92229
-1768,-397,478,-285,-440,-437,-2318,-1302,509,-165,-1270,-899,614,-1086,-485,-1275,143,405,868,-2057,-3644,-2182,3,904,-2003,2148,981,556,616,466,2620,92230
-2140,-505,520,-292,-509,-484,-2745,-1578,556,-103,-1630,-992,408,-1211,-484,-1707,164,455,1059,-2488,-4864,-2639,58,1096,-2329,414,1168,680,789,504,3010,92231
-2424,-566,536,-275,-549,-520,-3015,-1709,691,-13,-1758,-1079,483,-1242,-510,-1991,262,543,1273,-2765,-5792,-2927,176,1307,-2511,-1022,1368,861,994,593,3306,92232
-2551,-591,537,-248,-562,-524,-3114,-1734,759,21,-1525,-1031,294,-1204,-496,-2134,338,595,1415,-2872,-6359,-3034,298,1445,-2551,-2016,1473,985,1149,647,3442,92233
-2442,-561,512,-199,-513,-483,-2952,-1468,691,55,-1513,-824,310,-956,-517,-2136,315,525,1337,-2835,-6372,-2945,334,1358,-2436,-2311,1362,949,1111,539,3137,92234
-2331,-540,472,-151,-461,-448,-2801,-1429,556,28,-1501,-655,353,-895,-393,-2064,354,523,1340,-2696,-6267,-2770,405,1336,-2275,-2460,1317,969,1127,517,2975,92235
-2127,-499,441,-116,-385,-361,-2551,-1223,577,147,-1209,-749,424,-690,-411,-1913,357,495,1283,-2470,-5916,-2503,439,1249,-2043,-2265,1210,942,1100,464,2691,92236
-1829,-443,372,-68,-307,-275,-2185,-1088,384,101,-938,-561,301,-523,-372,-1687,311,412,1147,-2159,-5278,-2125,435,1097,-1747,-1698,1035,851,1005,385,2279,92237
-1366,-346,269,-8,-207,-190,-1621,-804,302,114,-627,-225,242,-278,-274,-1312,246,274,904,-1661,-4176,-1566,380,822,-1301,-501,746,670,802,250,1506,92238
-707,-168,189,84,-42,-33,-875,-299,248,273,-293,-104,179,-174,-142,-776,148,129,559,-1012,-2618,-824,286,462,-731,1337,365,421,526,80,633,92239
-216,-40,114,127,87,57,-320,-120,44,147,137,57,154,38,18,-334,83,45,295,-497,-1331,-241,230,200,-292,2905,94,236,326,-20,30,92240
158,46,25,138,156,108,118,122,-43,131,459,85,62,233,97,29,2,-50,79,-74,-225,215,159,-24,59,4310,-136,71,137,-117,-456,92241
417,117,-16,134,202,152,415,336,-64,94,569,214,-25,420,35,319,-4,-75,-34,251,617,551,139,-140,316,5425,-247,-6,30,-143,-683,92242
510,151,-27,122,200,154,509,376,20,-57,505,247,-188,528,121,461,2,-66,-74,374,1033,667,107,-161,422,6049,-257,-44,-19,-104,-704,92243
358,140,1,83,154,101,333,328,-73,-96,300,242,-191,295,77,377,8,-24,-54,242,826,486,71,-104,294,5924,-175,-21,0,-66,-440,92244
115,89,56,50,99,55,46,103,87,-61,172,64,-5,205,5,157,15,11,38,-31,272,140,59,12,50,5310,-52,38,60,-26,-42,92245
-250,-21,102,-14,-3,-22,-389,-355,86,-96,-4,-115,42,5,-112,-182,20,57,196,-421,-594,-319,65,180,-285,4291,128,136,162,44,426,92246
-645,-120,199,-48,-77,-65,-885,-622,137,-151,-522,-306,133,-239,-162,-577,39,123,389,-872,-1665,-830,93,388,-665,2957,357,257,296,125,949,92247
-970,-201,252,-61,-160,-126,-1275,-815,292,49,-905,-520,179,-366,-243,-924,79,175,534,-1256,-2627,-1265,120,567,-991,1701,535,367,434,198,1412,92248
-1259,-269,286,-89,-224,-189,-1597,-1133,310,125,-866,-512,232,-539,-276,-1181,175,278,741,-1547,-3461,-1593,212,782,-1204,551,752,537,623,308,1831,92249
-1544,-332,314,-105,-294,-269,-1849,-1144,375,63,-946,-564,311,-668,-279,-1393,275,395,961,-1781,-4219,-1862,326,1004,-1364,-535,969,720,815,425,2200,92250
-1795,-393,357,-105,-345,-315,-2108,-1048,386,-11,-1148,-474,115,-649,-341,-1636,316,457,1117,-2037,-4978,-2136,397,1166,-1557,-1651,1129,842,950,484,2501,92251
-1945,-443,387,-101,-359,-301,-2313,-1078,449,244,-1216,-538,84,-739,-354,-1874,293,436,1181,-2257,-5566,-2347,421,1211,-1718,-2578,1163,876,996,468,2645,92252
-2030,-489,396,-96,-362,-282,-2416,-1130,391,261,-1111,-598,211,-733,-305,-2028,270,391,1203,-2386,-5964,-2472,419,1219,-1814,-3265,1152,879,1021,424,2611,92253
-1885,-463,353,-65,-315,-238,-2238,-839,308,241,-1069,-495,356,-635,-259,-1975,239,325,1105,-2304,-5834,-2368,412,1110,-1707,-3270,1045,819,964,329,2300,92254
-1815,-449,321,-43,-297,-227,-2130,-924,351,393,-1026,-466,272,-611,-316,-1939,247,322,1085,-2229,-5750,-2252,420,1075,-1635,-3361,1010,805,948,296,2195,92255
-1715,-414,307,3,-252,-184,-1991,-819,348,313,-829,-486,223,-511,-264,-1851,262,309,1058,-2087,-5575,-2088,446,1046,-1520,-3317,972,806,945,289,2099,92256
-1635,-402,248,9,-240,-187,-1854,-647,402,330,-670,-345,186,-375,-267,-1746,296,322,1068,-1906,-5317,-1878,497,1042,-1368,-3205,935,816,960,305,2012,92257
-1367,-322,200,48,-167,-142,-1520,-536,182,325,-638,-147,169,-150,-182,-1502,274,274,977,-1581,-4643,-1497,504,921,-1076,-2535,788,740,883,244,1552,92258
-1039,-246,134,81,-96,-79,-1115,-417,166,172,-379,-129,117,-151,-157,-1225,200,170,792,-1218,-3776,-1068,450,699,-781,-1573,559,612,708,136,971,92259
-671,-158,83,135,-1,15,-719,-126,50,69,-39,-54,147,-117,-30,-915,162,119,638,-848,-2925,-648,414,533,-471,-573,393,499,583,75,593,92260
-396,-90,46,153,60,65,-426,-117,24,159,-59,41,96,190,34,-671,150,87,489,-562,-2217,-346,385,398,-235,290,261,392,480,19,343,92261
-252,-46,-5,138,67,56,-204,-50,-9,248,15,207,50,343,100,-488,132,58,362,-369,-1691,-138,353,296,-72,966,168,310,386,-14,161,92262
-177,-23,-43,137,61,54,-93,84,17,204,222,265,-120,516,85,-379,106,34,300,-265,-1358,-45,322,239,19,1423,126,265,331,-29,102,92263
-180,-12,-20,131,58,57,-139,61,-25,96,179,265,-153,424,38,-368,121,63,331,-293,-1342,-86,319,270,18,1501,170,296,346,-4,150,92264
-268,-27,21,114,39,46,-266,-82,66,-40,109,219,-134,249,57,-454,121,74,335,-415,-1540,-256,296,297,-72,1299,207,296,346,6,333,92265
