91,13,-12,20,30,32,96,398,121,92,213,-21,-16,45,0,12,-17,-51,-62,46,37,88,7,-65,87,-74,-71,-59,-11,-44,-111,114220
51,10,1,16,22,17,83,358,100,-35,271,69,-56,100,-14,10,10,-9,-15,42,-19,80,34,-5,83,-136,-15,-21,27,5,-39,114221
88,29,-25,33,29,5,151,211,-1,9,169,147,20,31,30,66,28,10,1,108,104,143,60,-2,151,36,-14,-6,39,20,-61,114222
-108,-7,-10,6,-25,-36,-77,10,-14,23,-137,57,-59,-99,-110,-98,0,17,65,-58,-266,-31,24,66,-26,-446,62,24,70,54,209,114223
-451,-97,56,-42,-84,-83,-491,-390,179,-38,-178,-153,-59,-158,-138,-400,50,92,295,-318,-1014,-319,62,293,-297,-1481,299,156,230,194,687,114224
-470,-113,71,-22,-77,-57,-555,-473,251,18,-366,-222,168,-266,-107,-432,115,133,366,-329,-1156,-334,125,378,-278,-1740,360,220,316,269,736,114225
-320,-82,32,1,-56,-44,-374,-170,145,6,-253,-128,89,-177,-109,-298,122,131,323,-198,-870,-200,148,310,-124,-1410,287,199,293,240,458,114226
-83,-20,-16,28,3,-8,-37,-36,-16,-11,-97,49,-77,47,42,-74,82,69,189,-2,-322,7,132,148,88,-701,125,116,172,124,87,114227
68,27,-28,45,33,22,115,65,-25,-33,43,86,-151,187,100,32,22,7,13,56,-8,84,64,-5,132,-266,-4,12,54,9,-128,114228
33,9,-30,23,20,4,43,111,47,-15,111,23,52,136,87,-14,9,0,-26,0,-76,17,41,-16,55,-343,-2,-4,24,-12,-35,114229
54,12,-19,26,41,21,51,200,178,41,-19,126,167,167,42,22,35,36,-14,24,-21,50,66,10,76,-296,17,18,48,11,-21,114230
4,-20,-29,-5,12,6,-14,3,95,-28,-65,-6,-9,118,-10,-22,36,17,-1,-2,-59,20,55,1,28,-361,9,0,35,-17,9,114231
-5,-29,-17,-11,-1,5,-36,-26,-47,9,22,-28,-28,-206,-84,-39,4,-6,-1,-25,-85,-10,34,-3,-4,-376,-1,2,20,-20,-2,114232
-53,-30,10,3,-3,26,-75,121,-4,111,-143,6,161,-103,-63,-106,-20,-17,33,-79,-205,-74,21,15,-67,-536,19,-1,29,-24,61,114233
-241,-55,49,6,-20,-7,-259,-90,119,-23,-349,21,151,49,23,-241,51,52,179,-185,-567,-186,72,179,-184,-1055,162,103,147,91,388,114234
-302,-54,45,7,-39,-34,-309,-77,266,50,-379,15,-35,-138,-15,-251,106,110,270,-178,-693,-195,128,272,-171,-1256,240,164,227,177,506,114235
-248,-47,43,17,-26,-7,-270,-2,263,80,-172,13,66,-6,78,-245,85,86,221,-150,-669,-184,109,226,-135,-1228,207,122,201,159,452,114236
-15,0,11,43,30,38,-31,120,43,193,-108,75,88,-10,38,-93,6,-15,43,-19,-264,-35,33,39,13,-644,24,8,57,40,28,114237
158,38,-3,60,66,73,165,240,-79,39,10,174,-74,201,55,45,-33,-63,-63,108,90,108,0,-86,139,-120,-90,-66,-31,-36,-227,114238
157,28,-9,41,55,67,130,148,-81,-95,134,126,-120,326,9,39,-55,-67,-79,115,102,92,-16,-103,105,-77,-93,-85,-52,-50,-205,114239
147,31,-9,39,57,57,125,158,-78,-112,183,50,-148,205,2,70,-12,-27,-52,149,127,124,23,-47,128,-18,-57,-56,-11,-19,-134,114240
126,29,-27,28,28,34,140,25,-122,16,-40,117,-206,59,-64,84,5,-10,-49,165,148,139,22,-46,137,48,-49,-43,-8,-21,-106,114241
140,33,-45,22,26,32,166,46,-137,-1,176,237,-153,149,-9,124,-7,-23,-63,184,233,167,12,-71,161,185,-73,-43,-24,-36,-217,114242
0,20,7,18,6,15,19,-179,44,2,-35,32,-249,107,26,2,11,-1,8,56,-59,25,33,14,21,-185,21,-4,25,3,63,114243
-200,-28,54,3,-33,-12,-198,-225,55,-31,-172,-131,-149,-117,20,-160,62,77,163,-80,-466,-114,83,174,-104,-789,171,91,138,124,356,114244
-240,-46,25,-7,-46,-36,-236,-230,65,-15,-190,-107,40,-179,51,-168,103,108,247,-89,-543,-110,142,245,-82,-934,216,157,196,168,404,114245
-183,-45,-19,-6,-50,-55,-155,-135,41,-29,-19,-35,-25,15,-35,-119,80,72,208,-50,-416,-57,116,184,-20,-780,163,133,168,124,225,114246
-43,-14,-33,6,-20,-20,-1,56,-58,57,138,-21,-93,41,-82,-18,41,19,94,22,-126,37,67,55,67,-401,56,52,72,43,-133,114247
81,16,-23,20,25,36,85,6,-77,81,161,34,-75,59,55,38,-6,-19,-35,50,88,89,30,-59,103,-117,-58,-26,-23,-39,-158,114248
74,1,15,-10,35,58,31,122,-70,50,77,71,-165,177,46,10,-42,-51,-75,2,63,38,-14,-95,50,-137,-86,-68,-64,-75,-146,114249
46,-13,22,-21,29,57,-2,152,-13,75,52,-12,0,-7,62,-22,-44,-41,-68,-25,15,9,-32,-78,15,-204,-60,-59,-58,-67,-83,114250
16,-16,1,-1,19,20,1,-114,-67,53,-87,-30,40,-6,66,-57,-48,-34,-74,-54,-21,-10,-56,-74,-16,-271,-65,-70,-57,-60,-128,114251
21,2,-10,15,18,11,47,-75,-30,-10,180,-3,-55,38,35,-24,-24,-23,-61,-32,23,19,-35,-58,3,-222,-57,-57,-45,-43,-132,114252
-12,11,-34,14,-6,-18,66,69,0,-66,160,18,41,165,91,29,61,56,72,29,34,79,78,56,65,-234,47,55,69,51,65,114253
-37,17,-28,10,-4,-10,32,-35,5,-31,-151,23,-221,233,42,28,91,86,115,44,-22,72,94,103,70,-299,103,97,112,101,136,114254
9,10,-23,-7,16,23,21,-119,-54,-103,-277,-45,-155,352,43,23,36,18,27,29,17,58,23,22,59,-221,37,10,41,28,29,114255
-16,-20,-17,-18,0,20,-75,-69,44,-96,-172,-22,-52,242,5,-54,-40,-44,-6,-33,-91,-10,-24,-27,-33,-325,-23,-42,-27,-32,21,114256
-7,-12,-9,-10,-11,4,-93,-85,-1,-102,-24,8,3,350,42,-54,-39,-43,-17,-13,-88,-7,-23,-24,-29,-301,-28,-38,-29,-31,0,114257
56,25,-6,7,25,33,-16,250,-63,-110,-37,145,40,3,49,34,11,-9,-6,88,66,71,18,-22,60,-92,-21,-14,-10,-11,-84,114258
46,5,-13,-14,12,27,-3,184,31,-78,-139,121,117,-130,49,29,11,-16,-13,90,51,59,22,-30,42,-87,-28,-23,-24,-32,-85,114259
130,12,-18,0,33,51,111,175,0,-22,54,114,47,-29,-3,78,-22,-55,-95,132,173,80,-22,-106,65,99,-98,-88,-86,-85,-211,114260
36,-2,1,17,6,29,38,-5,41,25,42,163,168,-114,-54,-9,-34,-38,-73,47,-33,-13,-35,-67,-32,-166,-59,-61,-63,-65,-44,114261
44,15,-17,21,-5,3,96,29,54,75,-51,181,103,-60,39,26,-12,-21,-34,73,24,20,-3,-46,13,-84,-45,-25,-47,-48,-112,114262
88,20,-43,18,10,6,149,-28,-101,-25,282,-41,10,42,74,72,-3,-20,-65,107,139,64,-5,-69,54,82,-54,-42,-65,-58,-152,114263
118,37,-13,32,25,36,146,27,-184,4,180,-254,-17,70,15,83,-8,-23,-76,98,169,74,-9,-76,55,105,-69,-45,-62,-63,-144,114264
118,34,-12,17,24,40,148,-92,-120,21,198,37,-104,-41,20,59,-30,-52,-94,69,174,54,-21,-100,43,133,-94,-78,-93,-79,-171,114265
90,19,-27,0,16,17,146,222,-66,31,46,105,121,17,22,47,-42,-58,-87,39,180,45,-34,-101,32,132,-95,-74,-94,-78,-179,114266
-25,1,-16,-3,-11,-19,24,113,4,37,68,16,255,-129,-10,-41,-19,-12,-29,-46,-35,-35,-30,-25,-51,-171,-7,-36,-44,-24,91,114267
11,6,-6,20,-2,3,33,-1,-110,-15,106,-52,74,-80,4,-55,-53,-46,-78,-56,-37,-46,-54,-70,-54,-142,-60,-76,-71,-59,-9,114268
20,-6,-1,6,0,1,7,101,51,40,-9,-68,-65,-129,1,-61,-51,-63,-77,-75,-59,-67,-63,-85,-72,-180,-81,-85,-83,-73,-54,114269
44,11,4,20,10,10,52,159,94,139,157,-94,12,-176,-60,-16,-15,-42,-63,-32,20,-14,-36,-57,-20,-112,-64,-52,-63,-53,-125,114270
27,20,-1,25,5,1,43,175,-44,183,71,-42,138,-78,14,-9,-5,-15,-39,-30,20,1,-28,-26,-8,-104,-32,-35,-39,-17,-83,114271
27,18,8,28,8,-1,32,84,34,66,-56,51,103,-81,6,-1,19,20,4,-21,11,15,-2,20,6,-137,9,-4,5,17,0,114272
96,29,10,35,26,18,97,-136,-33,110,-24,14,-78,-189,26,30,0,-15,-50,23,125,48,-17,-47,52,25,-59,-42,-35,-34,-77,114273
212,44,-26,36,40,43,226,39,40,8,158,-2,-83,-106,18,104,-60,-83,-162,92,368,116,-66,-173,108,382,-176,-116,-140,-138,-331,114274
228,41,-36,42,44,44,268,120,27,-55,85,-1,82,50,89,139,-75,-96,-185,114,437,136,-86,-192,115,508,-193,-125,-160,-138,-382,114275
160,49,-15,31,37,33,234,34,25,-33,-131,183,-46,144,92,135,-23,-32,-102,110,346,136,-30,-102,81,405,-90,-56,-91,-75,-229,114276
29,21,-10,8,-7,-14,118,58,-118,43,-29,169,-46,169,98,55,25,27,-17,50,128,51,8,-2,4,93,19,3,-23,1,-93,114277
-28,8,-13,8,-27,-35,71,38,-86,65,-102,-51,53,0,12,9,18,20,-26,24,18,13,15,6,-34,-48,8,-2,-15,6,12,114278
29,24,3,28,7,8,74,-56,53,59,-30,-10,108,24,-7,24,-25,-27,-69,35,58,2,-25,-57,-32,18,-57,-46,-55,-42,-31,114279
50,15,-10,11,15,17,53,-31,-81,82,-105,-66,-21,-55,-28,16,-64,-61,-99,30,86,-6,-73,-105,-38,62,-93,-71,-87,-80,-203,114280
4,-1,-27,-1,3,-15,19,-146,-76,182,-8,-142,-24,29,38,9,-24,-27,-55,23,36,-11,-41,-59,-45,-3,-48,-36,-58,-51,-79,114281
26,6,-15,9,8,-12,45,13,-14,74,88,-21,-99,29,32,32,0,-11,-56,45,72,14,-12,-43,-32,38,-29,-30,-55,-29,-26,114282
208,64,-33,28,48,33,249,181,32,93,164,198,-27,199,70,182,-8,-30,-136,180,427,161,-3,-140,111,523,-118,-75,-99,-70,-285,114283
337,79,-51,35,68,62,392,264,30,32,124,213,37,246,59,282,-61,-91,-256,242,719,235,-59,-260,184,946,-243,-156,-198,-164,-514,114284
335,77,-36,13,67,67,383,393,12,-59,322,119,31,180,-3,275,-89,-119,-305,215,755,215,-97,-311,145,1029,-271,-206,-256,-209,-497,114285
284,83,-9,15,69,77,315,88,6,30,271,25,74,99,28,221,-94,-105,-285,143,642,165,-108,-280,82,893,-237,-203,-251,-192,-349,114286
24,16,19,-1,-2,17,17,50,-171,-21,75,-89,16,-218,6,-6,-66,-53,-120,-50,114,-43,-89,-109,-120,184,-81,-107,-126,-94,27,114287
-27,-4,35,-6,-19,3,-19,-81,-70,21,-56,-101,-40,-153,-83,-9,-1,8,-5,-26,20,-31,-28,-9,-79,40,3,-21,-24,-3,96,114288
-56,-6,16,-11,-16,-10,-31,28,-51,33,-154,-58,95,-51,-74,-9,46,41,57,-10,-15,-17,15,43,-55,-38,61,17,28,38,139,114289
-25,-2,3,0,-4,-4,-22,-4,-122,-78,-140,-103,87,76,-7,16,53,32,33,3,24,13,41,26,-19,2,39,2,14,11,68,114290
-21,-3,11,0,0,0,-32,73,-115,-136,-99,-119,-50,31,49,2,20,10,-9,-21,-11,-13,-4,6,-41,-28,5,-15,-11,-17,61,114291
-38,-8,1,-13,-19,-9,-46,114,-49,-150,-154,-81,50,233,33,-32,-10,-5,-2,-43,-47,-44,-32,-6,-59,-86,-4,-17,-18,-21,37,114292
22,14,-4,8,-4,-2,32,-58,22,-139,179,-43,20,147,83,29,-6,-7,-20,16,78,25,-24,-32,0,84,-17,-23,-32,-12,-70,114293
204,52,-30,21,42,31,231,18,-83,57,237,9,-30,48,-36,178,-29,-36,-134,145,444,169,-40,-149,133,583,-118,-76,-100,-88,-327,114294
265,57,-36,7,52,45,278,-71,-61,27,211,84,-173,118,-2,225,-55,-68,-201,176,593,207,-58,-222,161,822,-183,-121,-159,-139,-428,114295
216,42,-24,-3,40,45,250,53,-110,-152,122,24,-162,187,67,235,-25,-19,-144,175,549,200,-31,-163,136,785,-126,-77,-122,-101,-326,114296
-16,-18,-15,-50,-28,-22,12,-81,-58,-163,84,-169,-194,-118,14,64,5,38,-15,25,134,35,-9,-9,-29,225,24,-3,-13,-4,22,114297
-96,-21,-5,-29,-31,-37,-54,-44,-38,-30,-53,-188,20,-166,1,-13,30,48,58,-41,-60,-31,26,63,-73,-56,74,36,41,45,142,114298
-2,5,7,-7,0,2,21,-131,-76,-160,116,-144,8,-189,-41,23,-7,-16,-13,-8,61,0,-27,-19,-44,121,-13,-20,-26,-12,12,114299
3,10,29,2,16,24,-18,-114,-75,-125,-107,-114,-65,-125,-24,4,-9,-8,8,-16,27,-23,-18,-9,-64,59,-1,2,-29,8,45,114300
34,19,14,-2,14,15,7,-51,-84,16,3,-21,-25,42,-16,43,-6,5,-9,23,96,5,-12,-25,-27,142,-13,0,-31,5,-49,114301
116,46,3,15,24,28,119,87,-17,15,131,44,-105,218,57,139,22,9,-35,102,267,90,3,-58,56,371,-35,-19,-31,2,-94,114302
108,38,-8,11,13,8,123,46,69,45,-132,44,72,327,69,134,31,14,-24,100,271,89,15,-36,54,397,-36,-9,-29,6,-66,114303
204,42,-51,11,22,1,219,92,-50,2,-17,205,46,91,36,203,-19,-36,-129,153,478,154,-28,-140,120,695,-134,-72,-118,-71,-290,114304
234,52,-22,12,40,37,236,250,8,59,89,85,-68,8,65,209,-73,-70,-207,150,539,151,-81,-212,98,810,-188,-131,-176,-132,-302,114305
169,37,11,8,38,43,143,-29,23,54,151,-12,-93,-136,109,142,-62,-62,-181,86,388,77,-81,-166,19,630,-146,-114,-150,-127,-104,114306
-13,-13,23,-22,-20,-9,-56,-70,138,-29,-82,-80,39,21,78,3,-5,-2,-33,-28,22,-50,-23,-22,-100,127,-13,-10,-42,-24,111,114307
-15,1,-7,-26,-30,-35,10,-36,30,-70,-158,-7,104,-24,22,40,9,11,12,20,83,-8,-13,-4,-34,191,2,13,-23,-4,34,114308
-20,19,14,5,-10,-12,21,-85,45,-41,-173,32,16,-166,19,51,45,55,63,40,66,21,18,58,-6,141,60,61,35,39,114,114309
-2,12,27,4,4,19,-5,-2,68,-60,55,-29,38,-7,12,21,-2,10,8,6,48,0,-23,2,-36,118,9,6,-6,0,37,114310
-22,2,32,-18,-6,35,-54,135,-54,-149,-237,-15,112,102,-51,-23,-30,-19,-2,-26,-23,-31,-46,-13,-73,39,-9,-9,-20,-23,24,114311
-16,14,25,-13,-4,20,-45,76,-69,-22,-95,-42,190,66,-21,-3,8,10,27,-7,-18,1,-2,16,-37,29,27,19,13,-4,7,114312
31,19,4,-14,-5,5,9,97,-56,56,13,-18,-99,-25,-51,43,3,3,-22,30,71,41,-16,-29,-2,155,-13,-6,-12,-18,-17,114313
35,7,-1,-11,-12,2,17,191,19,55,-157,-66,-72,-127,19,32,-23,-23,-43,6,91,26,-24,-60,-14,185,-42,-29,-44,-50,-28,114314
41,4,-1,-13,-12,5,40,180,-19,-58,80,-88,-16,48,13,32,-23,-27,-30,19,109,40,-15,-59,-8,216,-46,-12,-38,-58,-74,114315
25,6,3,-11,-15,-12,36,130,-68,44,111,-48,-85,-121,-47,43,8,10,-13,20,109,45,1,-24,-13,192,-9,13,-6,-27,-57,114316
-13,2,11,-7,-6,-1,12,4,119,-49,109,-36,-126,-97,27,28,26,28,8,4,36,15,11,8,-32,88,21,31,21,6,-51,114317
-31,-6,17,1,-8,-4,2,-174,67,108,162,-25,29,58,38,9,35,40,25,-8,-16,-8,18,28,-38,17,45,45,33,35,60,114318
-8,14,14,13,3,-2,51,-121,-117,45,112,4,-62,81,37,42,28,25,-5,6,74,-3,4,-14,-6,137,19,22,3,26,-4,114319
-48,1,-4,-12,-25,-22,-21,-295,-23,109,-214,-2,0,-25,48,-14,-5,6,-2,-52,-11,-54,-11,-19,-58,43,14,17,-8,25,51,114320
29,12,3,-6,7,7,25,24,9,-82,35,-86,-81,-87,31,48,24,28,22,8,96,4,28,1,0,169,26,34,17,52,6,114321
21,2,5,-10,8,22,-10,-117,-11,46,48,-101,-67,-60,-70,23,8,9,-10,-19,56,-48,0,-18,-33,106,6,-4,-4,25,11,114322
26,4,9,-7,9,22,-5,-135,-7,13,42,13,37,-28,2,22,2,11,-35,-15,57,-42,-18,-40,-34,110,-16,-19,-27,17,-31,114323
41,4,-17,-12,4,4,38,71,-135,-36,17,133,-18,75,-11,36,-14,-16,-60,11,116,-21,-24,-65,-20,200,-46,-29,-52,-15,-54,114324
69,22,-9,10,14,7,80,102,-93,3,-173,81,-30,128,3,65,-17,-16,-67,38,179,12,-33,-75,-3,303,-49,-30,-52,-25,-89,114325
60,26,6,16,16,7,79,34,-114,27,-156,34,12,-62,17,91,30,31,-25,65,178,51,-2,-17,17,298,-1,5,-2,12,-48,114326
-25,8,19,-10,0,-4,-17,-48,22,-29,-26,-45,-56,46,7,44,64,69,72,33,20,30,56,72,-15,77,67,75,62,61,107,114327
-38,4,12,-9,-4,-9,-3,124,81,41,93,6,-62,127,5,46,48,59,75,40,11,48,41,71,-10,42,72,70,67,62,70,114328
-39,16,18,13,-9,-13,7,-73,-82,-33,82,14,-79,-12,69,27,37,51,69,36,7,62,31,66,-11,20,67,65,65,49,73,114329
-24,13,17,16,0,-5,-3,-163,-103,-2,-49,22,-78,-30,50,6,-6,9,54,24,9,70,-12,25,-23,38,23,36,34,0,35,114330
3,0,12,-7,0,11,-4,15,54,-36,127,39,-21,11,-17,20,-9,-1,11,41,38,99,1,-4,-20,86,1,14,10,-17,48,114331
-18,1,18,-5,-3,10,-50,143,9,51,-17,-24,21,-18,-24,17,23,31,33,45,-4,122,29,31,-26,6,35,33,37,13,136,114332
60,14,14,3,27,38,14,124,-54,76,-144,0,144,81,-33,54,13,11,-19,66,90,166,3,-26,15,151,-19,-10,-4,-32,-34,114333
204,31,-23,-5,52,50,187,249,-62,66,157,61,85,35,34,152,-65,-82,-182,131,421,256,-68,-197,95,635,-185,-139,-144,-155,-339,114334
210,48,-18,4,52,39,214,360,-63,45,253,52,-33,97,20,180,-71,-79,-200,132,504,254,-75,-203,89,740,-198,-142,-167,-155,-324,114335
174,42,-33,-9,28,11,183,202,-97,10,244,10,116,-113,16,168,-52,-45,-182,109,457,212,-76,-169,75,694,-156,-109,-138,-120,-204,114336
35,13,-2,-18,-2,-22,39,-86,68,47,1,-6,142,-274,-39,79,6,24,-44,26,188,91,-19,-36,-5,324,-16,-20,-23,-12,102,114337
-2,3,2,-18,-12,-28,14,-256,146,-31,19,41,-23,92,-12,59,26,34,-1,-2,108,25,-6,9,-19,220,28,8,8,23,84,114338
34,21,2,-2,4,-14,54,158,106,114,127,18,-36,303,79,88,25,32,-18,17,177,2,-10,-8,13,309,3,6,-5,27,-14,114339
-49,7,26,-11,-9,-28,-61,-65,97,-17,170,90,-8,236,72,28,51,67,57,-38,14,-100,32,64,-23,100,68,61,47,85,191,114340
-17,-12,9,-20,-4,-11,-30,53,32,-101,-103,16,121,-72,-16,19,-3,0,0,-51,51,-164,-25,-12,-27,172,0,1,-5,37,34,114341
5,-12,15,-11,14,14,-27,11,14,-208,-141,-111,-15,-152,-39,-24,-66,-56,-82,-93,37,-227,-89,-78,-70,166,-70,-70,-78,-28,-61,114342
51,-7,12,-5,19,13,31,-49,-42,-184,-109,-99,29,-83,-70,11,-74,-72,-108,-56,123,-197,-87,-113,-37,278,-100,-90,-96,-60,-142,114343
96,22,-6,-2,30,14,106,29,-15,0,-39,77,114,-19,20,62,-62,-68,-113,14,239,-115,-74,-126,22,451,-111,-90,-105,-72,-208,114344
127,25,-15,-5,25,-5,140,-48,-23,38,-83,-20,-38,16,37,134,-25,-21,-97,84,358,-10,-34,-105,74,592,-90,-50,-77,-52,-184,114345
90,24,-19,-9,3,-18,110,54,-159,-52,-61,58,-130,39,26,144,16,22,-52,112,329,37,-1,-53,70,550,-41,-15,-30,-21,-62,114346
-15,24,31,10,4,-17,-29,-223,41,43,-31,136,-91,68,13,50,52,60,62,44,75,3,37,55,-20,188,55,50,61,47,120,114347
-40,13,20,3,3,-14,-58,-182,163,105,100,67,-133,73,11,21,46,46,68,30,23,33,35,67,-38,98,53,47,52,39,84,114348
-23,-3,1,-10,-10,-4,-49,-63,-74,-82,32,-89,36,-99,9,21,20,23,16,36,40,65,14,27,-31,140,18,13,14,21,59,114349
-38,-2,12,-8,-10,-6,-60,-112,-30,-21,-224,34,-38,-19,-36,0,16,33,25,32,-18,68,0,30,-49,71,39,25,18,28,118,114350
18,-6,17,-8,12,12,3,-164,106,85,21,114,-71,43,-13,19,-19,-12,-7,56,76,105,-7,-24,-13,199,-18,-23,-19,-18,-60,114351
9,-13,5,-28,9,7,-3,-213,81,-49,20,12,34,103,-31,24,-31,-33,-25,40,73,110,-17,-45,-30,228,-39,-47,-37,-42,-42,114352
65,9,-15,-16,27,21,37,-21,33,-283,23,43,-30,103,15,91,3,1,-14,100,176,172,15,-35,37,357,-29,-19,-18,-23,-107,114353
271,53,-25,11,75,76,213,205,-43,-204,297,203,123,222,56,247,-21,-48,-165,224,573,310,-5,-175,169,930,-166,-103,-122,-113,-356,114354
457,105,-22,41,122,114,396,307,-127,104,295,248,86,172,92,386,-63,-85,-313,319,952,422,-53,-312,278,1464,-295,-202,-243,-200,-620,114355
507,113,-58,32,113,89,467,419,-68,105,144,57,11,327,49,441,-95,-118,-392,341,1151,436,-98,-390,302,1755,-363,-255,-306,-255,-712,114356
179,38,-12,-10,27,8,137,63,63,-41,-205,-201,34,137,-90,185,-63,-45,-190,85,541,154,-78,-173,25,963,-155,-122,-171,-145,-26,114357
-50,-3,30,-27,-23,-28,-98,37,99,-148,-245,-148,-83,-142,-92,-32,-28,8,11,-86,29,-64,-59,2,-130,243,12,-10,-37,-17,184,114358
-47,7,28,-25,-18,-22,-46,46,26,20,-70,-71,10,-190,-62,-17,3,35,44,-77,30,-66,-12,42,-74,215,46,26,8,23,155,114359
-59,12,37,-11,-24,-38,-18,-28,-17,55,-7,-66,378,-43,-52,19,51,84,94,-49,33,-59,41,99,-35,174,107,68,67,81,195,114360
-32,11,36,2,-18,-23,-2,-47,-15,-17,-263,-67,388,-6,33,38,46,63,66,-39,84,-57,37,66,-23,218,76,49,52,61,160,114361
-17,3,39,-2,-1,-3,-43,-3,-6,-21,-120,-89,230,-9,24,20,18,32,51,-60,68,-83,13,31,-30,194,38,28,31,32,55,114362
219,26,0,3,60,57,173,86,-59,-7,306,18,241,-300,30,144,-86,-99,-166,53,482,43,-100,-193,97,787,-191,-132,-147,-137,-468,114363
1319,293,-155,124,321,291,1413,967,-180,160,1054,494,-168,459,264,1036,-288,-380,-910,832,2723,892,-260,-986,886,3922,-938,-597,-699,-615,-2155,114364
1708,381,-253,126,371,308,1882,1082,-293,50,1169,687,-326,667,326,1404,-394,-469,-1315,1083,3746,1187,-373,-1331,1069,5499,-1250,-821,-1009,-893,-2544,114365
1467,343,-216,78,278,219,1624,1025,-317,-4,878,542,-268,539,249,1274,-365,-385,-1225,935,3472,1038,-358,-1193,807,5269,-1107,-759,-955,-834,-2005,114366
397,121,1,-58,28,4,379,127,-42,-33,42,-8,128,-36,-45,437,-184,-106,-556,209,1406,239,-241,-455,-25,2527,-381,-352,-468,-376,-196,114367
-246,-35,94,-109,-107,-115,-378,-262,154,-91,-370,-330,260,-598,-126,-101,-33,63,6,-194,-42,-220,-107,78,-420,523,101,-37,-42,7,596,114368
-210,-36,76,-78,-102,-104,-313,-332,159,-68,-235,-282,213,-310,-157,-80,-19,62,82,-137,-104,-172,-73,107,-322,421,109,-2,17,62,403,114369
-233,-23,73,-48,-104,-118,-275,-307,137,-79,-216,-108,64,-138,-136,-82,28,91,139,-115,-202,-156,-25,162,-273,261,160,54,79,127,470,114370
-194,-5,75,-13,-70,-96,-200,-279,113,57,16,-30,161,-189,-84,-42,67,102,176,-70,-178,-106,19,182,-190,259,178,87,118,156,374,114371
-161,-16,72,-26,-46,-64,-170,-146,189,56,-131,-23,-8,-185,14,-43,36,61,139,-67,-145,-104,-3,127,-171,293,125,53,83,111,258,114372
77,22,36,15,18,5,71,-23,-8,54,-118,62,-95,-34,28,108,-23,-15,-17,68,258,39,-51,-37,-3,829,-35,-45,-25,-1,-152,114373
593,141,-73,55,118,81,692,272,-234,43,488,186,34,229,147,533,-133,-170,-422,425,1362,433,-155,-451,370,2377,-429,-307,-323,-257,-947,114374
902,218,-134,76,171,114,1072,523,-129,40,880,361,112,282,156,819,-200,-247,-697,628,2102,668,-225,-705,553,3449,-660,-461,-523,-438,-1338,114375
1040,248,-152,55,192,131,1199,651,-59,-54,850,466,-140,259,137,935,-252,-290,-850,691,2483,737,-285,-849,585,4060,-788,-556,-665,-562,-1419,114376
287,107,7,-29,22,-4,297,112,-101,29,195,82,132,-138,-39,350,-121,-72,-370,141,1066,163,-183,-322,-19,2161,-269,-246,-334,-259,-75,114377
-204,-5,91,-59,-82,-94,-280,-257,4,-54,-263,-133,64,-169,-69,-43,10,82,61,-159,28,-182,-64,91,-313,649,114,6,-5,31,469,114378
-143,-17,62,-57,-75,-77,-231,-136,3,-36,-500,-41,134,-172,-96,-14,-1,60,45,-119,65,-137,-60,54,-230,651,74,-6,2,23,332,114379
-203,-48,57,-74,-83,-85,-304,-129,79,-59,-214,-140,71,-364,-166,-70,17,77,111,-171,-88,-175,-38,116,-244,396,116,41,58,61,361,114380
-143,-35,70,-49,-48,-56,-256,-118,102,-6,-14,-164,73,-204,-98,-48,12,50,89,-145,-36,-138,-45,96,-210,435,90,28,38,43,305,114381
-105,-29,61,-42,-31,-45,-211,-36,169,2,-27,-33,198,-209,-108,-14,10,52,89,-100,16,-92,-34,92,-167,480,100,46,45,56,224,114382
56,8,22,-28,-4,-20,12,90,24,35,108,-12,38,-42,-107,130,-3,19,7,34,348,60,-42,-10,-10,932,-4,-3,-14,-4,-116,114383
672,157,-64,51,142,113,724,378,-66,59,545,219,58,245,133,632,-122,-152,-418,462,1594,520,-124,-462,437,2687,-439,-275,-334,-286,-1078,114384
822,198,-101,51,167,131,901,497,-215,41,702,352,34,308,126,754,-184,-204,-624,535,1986,603,-202,-634,462,3325,-587,-405,-501,-424,-1204,114385
681,157,-71,-5,114,89,717,450,-64,30,580,200,-24,276,-16,628,-207,-200,-600,410,1775,479,-236,-599,304,3122,-545,-403,-506,-421,-979,114386
119,31,45,-61,-13,-12,52,-12,17,-64,-23,-159,28,-288,-124,179,-108,-48,-241,8,638,36,-161,-190,-137,1627,-153,-179,-233,-164,8,114387
-182,-38,87,-72,-70,-66,-296,-262,-24,-132,-302,-273,150,-317,-143,-66,-9,49,30,-167,-68,-190,-83,84,-316,640,105,-23,-11,56,451,114388
-193,-32,85,-70,-64,-68,-298,-356,116,-57,-162,-204,119,-8,-143,-70,9,62,95,-151,-168,-176,-43,123,-265,500,134,24,55,110,411,114389
-209,-47,51,-76,-79,-91,-287,-372,69,-157,-175,-232,-80,-28,-59,-80,24,57,123,-142,-201,-184,-20,132,-234,441,132,38,81,111,359,114390
-210,-31,49,-43,-69,-87,-246,-205,106,-19,-130,-185,-126,-273,-35,-66,46,71,161,-129,-232,-188,-5,163,-195,376,159,71,99,139,386,114391
-187,-35,57,-28,-46,-65,-221,-239,145,-105,-113,-136,-88,-268,-51,-67,36,59,142,-126,-222,-191,-17,149,-177,373,135,56,82,127,361,114392
-105,-29,34,-35,-41,-48,-136,-108,97,-48,56,-66,75,-206,-26,-23,1,26,82,-83,-79,-139,-34,83,-121,544,79,16,44,99,141,114393
140,39,5,1,25,-1,168,-97,-8,-28,179,96,-72,-57,-35,201,-30,-15,-85,103,423,48,-68,-83,67,1226,-71,-76,-61,-2,-209,114394
215,58,-19,4,42,7,257,-17,-130,51,106,136,-134,-110,3,236,-78,-66,-202,125,591,75,-123,-192,77,1486,-171,-161,-158,-93,-355,114395
209,55,-14,-5,38,10,224,-22,-56,-74,130,105,-62,150,-11,218,-80,-73,-210,104,609,67,-107,-207,57,1516,-184,-157,-178,-127,-343,114396
38,26,25,-16,-4,-13,2,-24,-38,-41,53,23,-103,143,-40,79,-59,-30,-77,-5,283,-49,-72,-78,-78,1055,-67,-72,-99,-54,-42,114397
-109,-17,50,-47,-32,-42,-200,-103,36,-95,-141,-120,-57,-238,-56,-38,-42,0,32,-111,-37,-145,-62,33,-186,581,27,-26,-10,5,135,114398
-58,-28,30,-48,-35,-50,-151,-165,-4,-57,82,-115,-93,-162,-79,-13,-57,-23,14,-76,38,-83,-73,11,-154,643,-5,-37,-19,-32,47,114399
-119,-28,49,-31,-35,-46,-189,-74,87,-31,136,-67,-161,-136,-101,-49,-16,13,87,-94,-69,-93,-48,74,-178,438,66,25,32,-2,120,114400
-147,-25,51,-26,-37,-40,-213,-54,64,98,39,-28,-196,-16,-55,-83,-11,23,86,-108,-132,-88,-45,81,-190,320,74,26,35,2,176,114401
-143,-20,34,-41,-51,-59,-182,-42,-3,3,-22,-25,33,-28,4,-55,9,51,89,-67,-104,-27,-7,101,-145,330,90,43,59,35,201,114402
-98,-3,41,-12,-29,-48,-114,266,-74,92,76,-35,22,-175,22,21,55,88,127,-6,-23,43,50,133,-78,428,131,87,111,75,222,114403
-120,-10,35,-17,-35,-48,-142,71,134,-106,101,-192,138,-92,-31,9,71,105,151,-21,-76,27,70,164,-89,352,158,107,139,99,255,114404
-196,-47,44,-49,-50,-54,-259,-214,161,-206,-38,-193,74,-167,-85,-84,59,88,177,-112,-277,-70,43,187,-163,99,160,100,145,104,327,114405
-276,-72,61,-50,-54,-56,-369,-227,211,-238,-283,-215,154,-144,-33,-195,16,48,189,-215,-514,-206,4,189,-246,-201,163,86,130,111,346,114406
-202,-48,38,-26,-39,-42,-256,-131,34,-129,-280,-122,44,-158,13,-146,-17,9,115,-176,-394,-181,-31,114,-189,-25,108,44,79,79,209,114407
-104,-16,26,-20,-24,-30,-146,-235,-26,-50,75,-1,-15,-47,-51,-76,-21,-13,49,-127,-223,-144,-37,47,-117,224,43,15,37,40,64,114408
-102,-19,42,-12,-17,-30,-141,-187,76,185,-55,38,8,48,-62,-55,19,30,83,-107,-230,-149,11,97,-101,227,85,49,64,88,152,114409
-85,-26,21,-23,-20,-34,-103,49,108,111,15,-11,57,-1,-66,-32,5,9,59,-94,-167,-148,16,59,-74,328,53,28,41,80,73,114410
-141,-24,24,-19,-37,-42,-161,-82,27,-10,-219,-127,-160,26,-110,-69,14,26,100,-132,-270,-211,23,98,-113,185,94,56,76,103,175,114411
-142,-34,27,-17,-34,-39,-173,-174,-1,-35,-318,-101,-78,-126,-88,-102,9,17,102,-154,-304,-242,4,90,-121,149,85,54,69,101,164,114412
-209,-57,58,-19,-39,-35,-259,-274,63,70,-162,-132,93,-292,-108,-189,-29,-4,107,-230,-470,-326,-29,110,-204,-86,98,35,67,97,207,114413
-299,-68,84,-14,-53,-35,-381,-234,86,-42,-115,-268,-4,-276,-89,-259,34,69,254,-270,-717,-386,43,257,-247,-482,237,147,174,193,435,114414
-455,-90,89,-26,-91,-77,-518,-281,97,-93,-215,-266,-4,-322,-43,-364,111,156,428,-324,-1020,-455,127,417,-304,-958,389,271,323,306,739,114415
-714,-142,121,-46,-151,-130,-776,-522,242,0,-539,-298,23,-336,-130,-575,140,195,583,-495,-1548,-630,162,590,-471,-1756,541,355,438,403,1043,114416
-326,-74,44,1,-58,-40,-344,-27,38,49,-128,-14,7,68,-87,-281,62,58,301,-209,-813,-297,99,285,-152,-823,244,176,244,218,184,114417
7,-9,-3,27,12,18,-8,152,-45,151,147,31,93,-30,-7,-12,0,-12,49,22,-113,-6,43,38,63,93,23,32,60,41,-158,114418
11,-8,-18,16,2,-2,14,-48,10,-78,50,16,10,-37,1,19,18,7,41,50,-3,78,60,14,63,205,15,32,39,5,-91,114419
-46,-10,-2,4,3,2,-56,12,18,-81,-184,-29,-70,-10,-3,-11,29,25,75,10,-88,88,64,62,-5,64,58,57,56,9,22,114420
-22,-19,-4,-16,2,9,-60,-157,66,-55,-73,-72,-270,-24,-3,-33,-19,-15,11,5,-50,125,23,9,-25,106,-3,0,4,-49,-59,114421
11,-6,-15,-7,3,10,1,-69,13,85,-15,56,-19,94,21,6,-17,-15,-21,48,58,189,19,-21,1,246,-30,-8,-20,-74,-105,114422
-314,-60,29,-34,-77,-64,-347,-174,2,93,-324,-52,-58,69,5,-219,74,109,208,-174,-558,-27,86,239,-237,-593,226,149,166,98,567,114423
-1256,-271,182,-120,-293,-257,-1389,-910,133,-44,-892,-513,17,-420,-251,-975,268,367,894,-806,-2513,-745,249,945,-875,-3312,893,579,687,572,1970,114424
-1317,-275,212,-70,-267,-220,-1461,-794,230,58,-883,-421,171,-298,-223,-1088,296,353,1045,-862,-2891,-842,292,1040,-839,-3909,971,652,809,677,1880,114425
-1062,-241,167,-36,-184,-132,-1183,-735,235,-80,-530,-301,117,-303,-154,-955,212,225,846,-749,-2564,-747,221,834,-641,-3498,762,510,660,560,1297,114426
-377,-118,21,18,-34,-6,-406,-10,-1,-108,-111,11,32,-64,-6,-433,84,38,382,-290,-1263,-294,132,341,-124,-1727,291,222,320,265,149,114427
145,8,-51,70,81,90,192,429,-81,108,53,121,111,280,134,37,32,-24,35,78,-142,86,112,-7,254,-153,-26,47,72,50,-382,114428
70,-10,-50,39,51,53,120,159,-60,-41,-94,68,162,161,88,11,45,-3,48,22,-162,2,107,16,181,-138,14,67,74,43,-192,114429
49,-2,-43,30,45,40,76,-10,-126,-102,175,-54,-48,-13,76,-4,36,-2,62,-8,-182,-56,84,34,149,-109,20,66,63,64,-130,114430
3,2,-17,23,29,35,10,8,-152,-178,99,-64,-30,121,10,-28,62,32,85,-29,-250,-99,101,87,113,-183,63,88,97,95,4,114431
-1,4,-15,32,23,18,-1,9,-138,-42,188,-32,-77,183,-33,-15,60,40,70,-24,-239,-107,94,83,115,-165,70,87,91,103,22,114432
-205,-36,4,-6,-43,-47,-189,-181,67,-5,32,-79,39,-8,-96,-158,79,77,192,-144,-566,-253,121,200,-28,-622,174,163,153,170,319,114433
-667,-134,72,-43,-143,-134,-671,-468,204,-39,-399,-171,-72,-62,-139,-541,159,190,522,-456,-1524,-593,197,540,-348,-1996,491,360,390,378,1001,114434
-809,-172,109,-34,-156,-126,-845,-519,110,-17,-556,-208,-18,-150,-180,-699,180,212,654,-563,-1920,-691,214,671,-436,-2601,599,434,504,452,1214,114435
-909,-210,138,-33,-161,-131,-992,-677,32,169,-669,-252,105,-398,-169,-835,184,216,741,-641,-2244,-776,213,744,-518,-3128,664,471,576,495,1302,114436
-298,-84,24,44,-19,4,-320,48,20,156,-138,118,-3,-188,12,-365,85,41,348,-198,-1079,-278,132,308,-39,-1632,246,215,294,233,210,114437
124,14,-40,76,79,82,170,390,-17,118,264,270,62,306,112,17,16,-50,11,108,-109,112,86,-12,248,-326,-54,32,54,3,-343,114438
140,21,-57,61,72,66,201,309,-29,76,270,220,-87,363,137,44,-13,-67,-64,125,52,170,43,-71,214,-118,-91,-18,-22,-72,-356,114439
105,15,-49,48,58,61,132,182,6,73,86,145,-198,363,154,-20,-47,-83,-103,66,0,139,-11,-99,120,-181,-115,-62,-67,-113,-274,114440
96,0,-53,34,43,56,94,229,-4,91,35,93,-65,271,5,-41,-65,-97,-126,36,-6,143,-24,-112,82,-179,-133,-76,-86,-140,-272,114441
120,14,-48,38,47,50,154,211,-15,26,2,110,-162,24,85,7,-43,-73,-100,78,107,201,5,-93,117,-42,-111,-54,-71,-131,-261,114442
-203,-36,-7,-1,-41,-28,-186,-175,142,-220,-206,47,33,58,44,-203,39,47,117,-120,-475,-16,73,142,-110,-836,124,99,92,33,407,114443
-1259,-270,159,-100,-284,-255,-1377,-930,241,-209,-945,-433,75,-522,-297,-1056,257,343,869,-848,-2672,-833,243,939,-853,-3879,869,565,660,541,2017,114444
-1442,-322,202,-85,-300,-264,-1593,-960,169,-76,-944,-474,360,-569,-329,-1256,310,365,1120,-962,-3284,-1001,323,1133,-889,-4816,1036,705,868,721,2040,114445
-1151,-268,157,-27,-195,-158,-1269,-825,159,10,-655,-433,401,-399,-157,-1078,262,255,958,-780,-2878,-837,286,942,-620,-4333,842,595,759,635,1503,114446
-313,-90,11,72,11,25,-310,-64,32,110,121,6,144,99,5,-409,136,66,447,-192,-1265,-210,207,386,41,-2163,298,295,396,297,147,114447
251,37,-69,104,125,134,332,348,-59,4,463,312,-241,310,106,49,7,-93,-8,160,-45,168,100,-60,385,-431,-127,29,39,-26,-570,114448
246,19,-73,74,107,124,266,435,42,18,211,306,-180,124,68,12,-79,-158,-140,78,10,79,2,-163,274,-266,-195,-57,-85,-119,-537,114449
204,19,-52,54,85,109,210,340,64,240,147,183,155,79,50,9,-44,-104,-85,71,-20,60,29,-99,236,-266,-128,-28,-52,-72,-373,114450
182,20,-69,55,64,65,208,243,15,115,29,121,175,143,96,25,-22,-61,-102,84,18,66,38,-90,220,-198,-115,-39,-48,-50,-325,114451
136,22,-71,67,31,26,185,211,-73,159,148,97,-21,118,49,-5,-28,-62,-118,53,-32,27,26,-81,170,-233,-103,-50,-62,-50,-256,114452
-26,13,-28,54,10,11,14,168,-83,151,246,67,50,129,-13,-104,17,-8,-4,-38,-312,-85,54,46,51,-613,17,31,29,20,72,114453
-349,-69,33,-1,-62,-38,-394,-57,108,122,-132,-86,153,-84,-53,-372,77,74,245,-272,-989,-328,108,285,-185,-1556,246,190,199,164,531,114454
-535,-123,80,-16,-98,-48,-642,-178,105,-49,-533,-185,168,-138,-89,-531,152,152,452,-384,-1432,-446,177,473,-282,-2236,423,326,359,302,838,114455
-617,-138,111,-7,-97,-43,-721,-341,-141,-82,-480,-249,341,-180,-78,-597,196,193,574,-408,-1654,-467,226,583,-308,-2621,522,396,456,388,955,114456
-171,-59,19,40,12,33,-191,-37,12,-154,-159,-71,103,-72,55,-251,124,74,305,-86,-813,-113,182,286,55,-1533,232,229,270,210,183,114457
139,19,-46,70,69,77,189,217,-83,0,198,154,54,122,109,-11,29,-37,4,104,-122,109,91,-8,236,-565,-33,60,40,5,-254,114458
153,48,-52,81,72,71,231,49,-19,97,223,190,114,72,117,21,34,-24,-55,109,3,136,82,-39,213,-403,-55,20,9,-29,-246,114459
139,49,-65,71,49,41,217,-1,-47,-6,231,157,106,67,140,39,32,-5,-76,106,43,159,72,-32,180,-364,-53,-2,0,-33,-185,114460
60,36,-64,55,17,11,155,-14,-51,-39,93,171,206,20,114,-9,34,12,-7,65,-50,114,78,8,142,-486,-1,41,37,-3,-83,114461
84,39,-33,60,47,24,167,87,-118,23,96,48,-14,101,69,2,12,-22,-37,65,6,107,60,-35,146,-401,-50,3,1,-38,-124,114462
-8,-2,0,25,22,30,-28,30,-9,126,-56,-34,-58,222,33,-100,-4,-24,-16,-40,-205,-12,34,0,25,-665,-10,6,4,-31,71,114463
-673,-161,104,-63,-133,-92,-834,-409,143,186,-673,-364,-142,-325,-143,-643,119,157,452,-502,-1573,-526,122,496,-464,-2552,457,298,348,279,1103,114464
-892,-199,152,-52,-165,-114,-1083,-612,195,155,-679,-385,-107,-332,-95,-818,213,231,714,-601,-2123,-658,228,728,-529,-3377,667,465,555,473,1332,114465
-740,-152,113,-4,-124,-76,-857,-499,71,165,-568,-180,-97,-208,-94,-681,246,241,720,-446,-1902,-501,289,716,-328,-3153,632,475,580,490,1071,114466
-215,-50,-21,51,-23,2,-180,-72,32,122,-22,68,-151,127,54,-260,145,91,367,-64,-870,-88,208,322,105,-1757,267,246,321,252,158,114467
235,47,-94,103,87,87,364,371,-47,83,333,233,-173,343,156,82,13,-64,-37,197,78,219,86,-70,368,-414,-100,7,16,-31,-467,114468
177,37,-81,83,63,72,295,367,-75,-35,245,118,-72,-47,111,17,-32,-86,-100,116,41,136,29,-100,243,-430,-127,-44,-54,-91,-375,114469
178,49,-58,79,69,75,282,345,-135,86,175,200,-3,-6,103,37,-28,-65,-138,132,95,159,24,-96,226,-342,-119,-51,-68,-85,-333,114470
202,42,-37,67,76,92,263,174,-101,49,314,209,25,62,126,37,-61,-83,-159,119,129,155,-7,-129,202,-251,-148,-72,-100,-118,-397,114471
165,21,-36,36,57,83,201,119,-22,178,61,156,18,-67,42,-18,-81,-101,-131,73,60,108,-21,-129,144,-327,-156,-74,-109,-132,-340,114472
70,14,-28,40,42,57,115,86,28,284,-112,55,-157,23,48,-55,-29,-45,-44,39,-82,68,1,-41,91,-507,-61,-16,-39,-74,-101,114473
-292,-52,33,13,-41,-13,-270,-141,33,110,-384,-37,29,-109,-32,-320,64,77,201,-187,-782,-166,66,234,-153,-1472,208,141,161,110,485,114474
-458,-98,49,-13,-80,-49,-493,-330,111,-57,-284,-159,211,-63,-85,-464,114,126,366,-293,-1177,-291,148,391,-245,-2074,347,239,291,231,694,114475
-387,-93,38,15,-56,-27,-399,-152,134,59,-111,-66,119,-232,9,-403,138,128,386,-226,-1094,-223,174,389,-143,-1998,339,266,312,247,570,114476
-22,-9,-27,44,27,30,36,26,83,109,-65,108,67,-44,88,-94,76,44,149,25,-354,57,115,137,146,-1005,98,115,147,108,15,114477
170,25,-76,42,55,51,259,94,-59,130,-101,163,31,55,58,64,17,-23,-36,133,97,165,56,-49,255,-359,-67,15,-4,-17,-275,114478
215,50,-52,49,73,82,280,177,-40,-7,89,121,-75,227,77,95,11,-24,-90,136,187,149,41,-71,245,-206,-95,-1,-36,-46,-254,114479
214,39,-68,34,49,54,281,247,-73,-55,54,111,-29,171,87,91,-13,-49,-150,120,225,103,18,-120,218,-105,-136,-57,-80,-78,-295,114480
185,57,-47,54,63,55,276,262,-61,-38,133,205,21,42,90,103,27,-4,-82,110,202,73,53,-57,220,-119,-72,-9,-29,-23,-190,114481
140,37,-46,38,53,57,212,79,-53,5,324,220,-95,117,48,57,3,-27,-82,52,121,-1,14,-53,169,-197,-69,-20,-29,-21,-142,114482
214,59,-48,46,71,80,289,74,62,-49,201,154,-228,44,33,71,-58,-96,-184,66,255,2,-40,-160,175,6,-169,-100,-132,-110,-332,114483
609,143,-99,86,162,159,734,482,-181,39,362,220,-170,200,202,393,-131,-195,-446,362,1072,314,-104,-444,454,1137,-437,-277,-339,-287,-980,114484
824,175,-152,80,186,182,979,541,-199,96,588,321,-217,303,228,588,-199,-250,-655,518,1625,491,-159,-638,570,1956,-611,-400,-497,-437,-1209,114485
863,196,-157,76,166,160,1020,530,-193,237,670,324,19,381,172,673,-173,-216,-662,598,1830,587,-146,-649,591,2288,-610,-379,-498,-445,-1095,114486
428,112,-72,24,69,62,505,131,-77,95,110,91,-46,89,25,375,-73,-67,-369,324,1072,321,-65,-327,262,1282,-303,-206,-286,-256,-307,114487
-20,9,5,-16,-23,-17,-31,-179,37,-71,-341,-23,32,-37,-15,3,-18,32,-38,39,135,14,-13,3,-48,-19,11,-19,-48,-36,229,114488
-21,21,12,4,-11,-8,-22,92,-8,-22,71,16,-68,-49,22,-23,-12,10,-8,47,76,39,-34,15,-30,-134,15,-17,-31,-19,134,114489
-48,4,-2,0,-17,-8,-43,86,-18,-25,60,101,-36,-30,24,-42,-2,18,8,30,2,50,-34,27,-42,-267,27,0,-2,-22,110,114490
-18,-3,-12,-9,-10,8,-16,25,10,118,-141,21,109,-96,88,-31,-17,-10,4,50,32,93,-36,8,-4,-222,-9,-11,-25,-41,21,114491
3,22,2,8,6,27,15,-2,115,51,-3,9,-61,-143,75,3,14,13,34,89,64,142,1,32,29,-204,13,14,14,-16,10,114492
120,41,-25,20,30,40,141,169,-58,7,-24,60,-106,-51,183,98,12,0,-42,172,271,232,2,-43,118,98,-52,-30,-29,-51,-146,114493
371,78,-84,36,77,59,432,313,-128,-23,-48,194,-38,155,135,305,-68,-93,-264,333,831,408,-68,-268,300,911,-265,-164,-185,-200,-568,114494
751,155,-151,56,153,126,850,403,-32,66,382,248,-95,156,149,607,-160,-222,-566,572,1636,663,-162,-585,545,2075,-557,-365,-426,-393,-1278,114495
1242,275,-201,92,260,224,1378,869,-272,-10,892,330,-270,385,286,1016,-254,-327,-944,864,2688,1005,-252,-957,832,3626,-886,-587,-711,-634,-1867,114496
540,131,-70,-6,92,82,579,304,-205,16,399,-93,55,-7,133,467,-161,-132,-557,323,1412,421,-198,-508,222,1983,-448,-348,-449,-399,-507,114497
-78,3,43,-51,-44,-27,-107,-164,-23,-116,-112,-62,-11,-158,14,-33,-34,29,-35,-100,106,-67,-76,-2,-178,212,2,-45,-74,-46,264,114498
-8,3,22,-38,-37,-24,-33,8,-58,-185,-152,0,36,-68,-19,11,-48,-13,-58,-73,148,-64,-96,-36,-96,274,-38,-73,-82,-28,63,114499
13,4,33,-20,-15,-11,-1,39,-2,75,-62,-51,96,-162,-91,13,-48,-27,-78,-66,143,-83,-108,-53,-65,270,-43,-78,-80,-29,-19,114500
13,20,35,-3,-5,-1,13,-27,-66,10,124,-30,124,38,-101,18,-28,-12,-59,-57,136,-99,-73,-33,-51,235,-19,-53,-53,-2,-6,114501
18,21,12,-18,-16,-7,20,-41,-56,-101,95,4,-45,59,-51,35,-6,5,-43,-45,147,-90,-47,-24,-24,247,-17,-42,-25,11,-76,114502
136,30,-20,-18,13,12,166,106,-64,-79,189,0,-83,172,-55,138,-20,-18,-76,67,398,25,-45,-83,98,578,-83,-52,-67,-24,-251,114503
667,154,-102,44,134,128,772,445,-149,-18,593,353,-113,317,151,555,-133,-177,-443,432,1464,419,-133,-477,467,2057,-458,-293,-353,-281,-1087,114504
790,181,-124,36,149,138,922,575,-177,-8,386,204,-86,265,156,688,-182,-200,-621,528,1846,528,-189,-619,503,2624,-575,-410,-487,-399,-1168,114505
792,196,-109,38,144,125,918,504,-64,17,335,279,-152,391,136,735,-139,-139,-620,575,1937,587,-159,-589,493,2802,-543,-368,-459,-388,-1012,114506
194,72,-21,-46,-11,-21,226,-8,-56,-2,127,-91,-77,-16,-7,262,-60,-19,-247,168,823,153,-110,-208,32,1317,-172,-148,-205,-178,-78,114507
-202,-17,28,-80,-107,-97,-216,-394,68,-75,-85,-260,47,-239,-64,-58,-1,57,60,-71,2,-122,-64,73,-216,148,104,16,5,21,337,114508
-143,4,47,-37,-71,-69,-148,-240,-20,38,40,-131,-70,22,-15,-5,41,95,119,4,4,-45,-12,124,-136,106,143,49,67,69,285,114509
-111,-11,34,-34,-55,-62,-121,-117,-21,-98,-128,-166,-28,128,-58,-5,27,60,91,23,9,-39,-11,81,-125,88,104,30,44,40,168,114510
-108,-25,22,-51,-48,-45,-131,-31,26,-192,-28,-210,73,-122,-106,-37,11,28,67,6,-30,-54,-22,46,-135,38,62,17,20,8,171,114511
-103,-27,47,-52,-35,-10,-133,-116,-53,-153,-47,-142,250,-260,-78,-56,-27,-8,28,-11,-52,-75,-57,15,-144,14,20,-16,2,-20,98,114512
-27,-17,48,-23,-22,2,-79,68,-49,-158,-102,-71,247,-9,-6,-47,-60,-45,-34,-8,15,-45,-98,-45,-120,110,-34,-67,-48,-63,-29,114513
180,39,12,15,40,27,149,83,-104,53,179,-61,208,-20,126,126,-57,-56,-121,146,411,124,-87,-151,42,648,-135,-105,-108,-119,-280,114514
-69,-19,15,-27,-34,-54,-102,50,80,49,-133,-127,-61,-21,12,-22,3,24,16,-11,-3,-42,-23,8,-129,97,31,-8,-6,-12,124,114515
-407,-81,72,-57,-115,-95,-474,-238,205,2,-453,-173,-18,-289,-114,-291,70,111,246,-259,-704,-293,31,265,-351,-881,274,138,167,159,644,114516
-292,-61,37,-33,-76,-62,-336,-322,120,57,-196,-107,112,-219,-103,-231,33,49,222,-185,-545,-214,18,198,-220,-697,180,110,140,134,276,114517
11,3,0,-2,5,18,-19,-131,107,37,-2,-66,-126,122,-57,-1,-4,-12,21,-1,23,1,-29,-6,-9,67,-14,-18,3,2,-103,114518
34,5,16,-2,13,23,-19,-37,32,78,-92,-42,66,85,-50,28,10,4,4,-4,79,29,-12,1,3,147,-13,-2,17,15,-37,114519
-35,-8,33,-15,7,0,-80,11,-47,129,-37,-2,133,-28,4,-2,24,28,61,-44,-11,-6,19,54,-26,18,47,45,40,51,93,114520
-12,-2,11,-29,-4,-7,-34,34,-3,-42,154,-40,-64,84,123,52,42,50,70,11,88,52,34,51,29,131,56,47,54,73,54,114521
15,15,23,-1,5,-2,-1,-22,39,-12,44,-33,99,268,45,82,58,63,70,33,125,88,40,67,51,159,65,64,67,96,30,114522
-64,-3,31,3,-5,-12,-53,-129,-67,62,-94,-65,49,-60,-51,-23,19,31,35,-56,-32,-8,-7,50,-53,-49,47,26,33,55,121,114523
-834,-180,159,-73,-170,-132,-932,-743,193,-35,-662,-316,225,-633,-226,-698,107,180,484,-629,-1649,-652,58,537,-675,-2272,518,291,355,328,1319,114524
-1223,-262,220,-70,-239,-186,-1366,-977,430,20,-818,-428,78,-643,-295,-1044,239,330,905,-863,-2621,-933,186,928,-871,-3723,872,540,671,622,1858,114525
-1219,-269,169,-54,-242,-208,-1332,-702,423,41,-733,-320,-84,-442,-251,-1038,274,335,991,-804,-2741,-909,257,967,-770,-3982,900,602,754,687,1661,114526
-590,-139,61,24,-82,-82,-631,-324,186,157,-246,-25,-28,125,-73,-540,186,167,608,-344,-1579,-434,206,548,-253,-2465,486,375,490,428,572,114527
83,-2,-27,79,73,62,92,185,-105,120,198,114,-80,306,46,-16,47,-12,86,76,-214,44,91,21,186,-579,-2,60,100,66,-332,114528
108,27,-16,68,69,52,154,107,-232,21,242,94,18,223,68,57,71,18,48,117,-23,91,109,7,198,-304,-17,60,68,21,-208,114529
121,37,-2,70,78,66,176,91,-58,-76,243,66,-33,215,99,68,36,2,-23,126,55,74,63,-31,179,-157,-34,17,21,-10,-195,114530
72,20,-3,44,53,40,116,83,34,83,290,58,-120,170,48,23,14,0,-25,72,-18,8,31,-16,98,-231,-16,17,14,-13,-105,114531
53,15,-17,19,43,35,90,30,43,-59,198,93,12,355,-10,36,46,25,3,83,-28,11,54,14,89,-232,27,45,35,-1,-22,114532
-74,-14,-5,-12,-5,2,-60,-140,74,-300,69,12,-50,62,-17,-67,47,47,61,-28,-266,-93,54,81,-18,-556,89,73,72,46,188,114533
-574,-126,78,-57,-123,-84,-614,-534,156,-197,-236,-200,-98,-236,-113,-473,130,175,401,-373,-1268,-469,120,440,-392,-1966,428,274,318,278,959,114534
-968,-223,148,-84,-194,-147,-1061,-802,149,10,-658,-386,-61,-265,-216,-822,194,254,694,-641,-2150,-764,175,732,-645,-3234,690,442,535,472,1444,114535
-1121,-278,155,-104,-217,-181,-1260,-903,290,-90,-789,-336,64,-250,-253,-994,211,246,832,-756,-2576,-891,230,822,-710,-3908,756,510,632,544,1438,114536
-486,-129,53,-1,-47,-31,-555,-274,61,-23,-244,16,-181,221,-74,-510,132,92,466,-308,-1439,-385,171,414,-196,-2413,360,268,391,318,341,114537
147,-5,-65,48,83,86,172,137,16,75,414,138,-178,370,15,-2,-5,-70,-29,102,-94,113,59,-74,229,-572,-104,-25,24,-21,-474,114538
230,23,-58,68,92,103,260,196,111,89,363,152,-100,142,69,61,-39,-85,-95,137,153,186,28,-139,241,-219,-153,-55,-53,-77,-437,114539
178,24,-50,65,77,89,217,143,-55,29,105,62,-67,208,38,26,-46,-90,-89,92,124,158,12,-139,175,-229,-148,-47,-70,-81,-346,114540
173,14,-49,57,70,66,198,44,22,59,-43,54,-93,132,83,36,-44,-82,-113,90,153,173,-2,-137,146,-172,-142,-65,-78,-83,-379,114541
204,25,-61,59,63,56,233,254,-56,115,-44,43,-17,32,59,87,-38,-73,-137,133,255,225,6,-135,174,-30,-144,-71,-89,-84,-354,114542
100,21,-45,41,32,20,135,-145,-62,106,202,130,45,42,138,28,-9,-22,-78,69,91,164,21,-62,91,-234,-57,-22,-36,-32,-50,114543
-651,-132,76,-35,-140,-137,-681,-458,173,-10,-250,-95,169,-51,-91,-553,150,207,458,-426,-1404,-390,160,496,-436,-2289,485,321,366,321,1182,114544
-981,-213,124,-55,-202,-186,-1037,-495,155,-63,-541,-268,361,-423,-197,-836,235,292,776,-625,-2196,-636,243,785,-591,-3461,739,501,608,532,1496,114545
-893,-202,133,-23,-150,-125,-972,-360,140,-73,-479,-297,357,-518,-133,-831,201,220,746,-609,-2193,-631,230,722,-523,-3530,674,473,582,502,1209,114546
-373,-111,51,39,-20,-10,-417,-61,6,-13,-16,-20,228,-28,4,-460,98,71,414,-276,-1262,-287,157,369,-130,-2284,316,267,335,279,290,114547
216,13,-47,82,96,97,247,256,-62,66,397,270,38,209,66,23,-6,-79,-38,119,-15,139,64,-78,285,-547,-107,6,1,-21,-494,114548
214,14,-54,54,91,92,236,219,-87,138,137,187,-138,254,41,41,-36,-74,-149,91,74,112,32,-146,211,-373,-149,-57,-64,-93,-402,114549
135,-1,-46,32,62,73,135,15,-48,124,75,218,-137,11,-2,-21,-41,-73,-108,23,-54,20,32,-104,128,-508,-120,-44,-58,-103,-257,114550
126,13,-39,46,60,57,142,99,-51,58,116,199,-140,149,67,19,7,-37,-77,49,-7,41,61,-68,139,-447,-57,-11,-16,-59,-136,114551
115,15,-56,46,36,17,144,146,-137,-120,75,129,-200,271,128,28,4,-25,-92,55,16,39,47,-66,131,-413,-54,-12,-21,-53,-137,114552
18,-4,-46,19,18,1,30,21,-67,-30,155,55,-146,97,-7,-37,10,-3,-10,-13,-149,-33,66,1,53,-637,-2,39,19,-17,-25,114553
-340,-73,26,-19,-64,-47,-372,-194,88,-32,-105,-125,-73,-72,-91,-314,92,98,271,-249,-871,-294,132,271,-198,-1638,266,204,219,167,587,114554
-594,-128,70,-21,-122,-90,-626,-385,59,4,-325,-172,-22,-272,-103,-524,132,171,454,-404,-1407,-464,142,464,-347,-2430,445,306,374,304,942,114555
-702,-160,89,-20,-129,-109,-730,-466,249,-17,-452,-175,9,-36,-104,-627,153,187,513,-461,-1689,-536,156,547,-398,-2885,525,338,438,373,1043,114556
-315,-93,2,31,-56,-43,-293,-291,57,35,2,-25,-253,274,8,-323,110,85,299,-163,-988,-215,151,300,-64,-1960,275,212,292,231,357,114557
119,10,-81,82,52,29,212,204,-150,-16,291,101,-85,237,72,39,40,-25,-5,147,-56,147,108,-25,243,-695,-25,37,56,24,-262,114558
219,33,-98,67,67,44,315,170,-64,200,358,96,-90,29,68,127,-8,-56,-111,231,247,245,76,-136,288,-255,-124,-35,-48,-59,-413,114559
216,39,-74,51,66,61,280,116,-33,19,365,92,-28,-9,85,121,-22,-51,-131,212,267,249,54,-139,249,-189,-133,-44,-62,-63,-375,114560
220,37,-58,50,66,73,259,146,-93,46,173,52,-91,-118,64,112,-34,-62,-150,193,275,247,26,-144,207,-151,-139,-66,-86,-80,-374,114561
201,34,-53,44,55,73,242,-64,-3,-42,100,27,-74,-21,26,98,-38,-64,-159,179,260,228,13,-144,176,-141,-136,-62,-104,-92,-355,114562
57,-9,-37,5,7,26,63,-53,-16,-82,37,31,70,-47,2,-13,-17,-26,-76,74,-1,120,17,-63,58,-466,-47,-32,-49,-34,-76,114563
-533,-133,69,-52,-124,-95,-593,-352,161,-85,-285,-189,30,-332,-175,-451,120,168,357,-318,-1170,-306,134,407,-338,-2092,394,252,291,260,917,114564
-815,-177,123,-53,-166,-134,-900,-408,137,22,-385,-337,212,-344,-188,-669,225,263,649,-477,-1823,-493,240,682,-460,-3077,647,451,527,467,1282,114565
-823,-185,112,-41,-142,-121,-906,-455,167,23,-354,-289,79,-272,-132,-725,212,225,680,-521,-1954,-534,238,674,-442,-3323,633,430,536,472,1166,114566
-353,-89,43,13,-27,-5,-404,-29,99,-112,-136,14,-13,-36,59,-408,99,76,362,-229,-1141,-229,153,328,-107,-2248,311,225,310,254,298,114567
219,24,-64,50,81,94,193,348,-10,116,267,374,-118,284,192,52,-2,-79,-83,135,36,188,56,-112,279,-606,-117,-37,-12,-51,-522,114568
207,19,-76,25,61,63,160,263,33,131,141,262,104,134,123,68,-9,-60,-119,113,123,177,51,-124,233,-457,-134,-38,-53,-89,-367,114569
197,32,-54,37,62,67,170,367,88,86,121,177,104,101,142,68,-12,-54,-124,106,138,158,42,-117,206,-413,-123,-37,-55,-86,-272,114570
182,42,-53,51,62,46,224,155,30,114,26,222,-10,106,-9,68,-27,-56,-126,93,158,135,24,-117,174,-392,-106,-51,-63,-86,-242,114571
146,44,-62,49,48,28,238,341,12,162,227,249,58,18,62,41,-28,-48,-115,62,129,110,26,-109,137,-415,-83,-49,-71,-92,-172,114572
74,18,-43,40,35,22,155,123,88,65,102,104,-51,-105,-11,-24,-9,-31,-79,15,0,50,36,-66,68,-564,-58,-35,-61,-82,-110,114573
-232,-65,11,-16,-57,-40,-225,43,33,-34,-132,-26,52,-120,-123,-244,64,68,126,-182,-594,-162,106,157,-143,-1410,156,97,98,78,401,114574
-440,-94,48,-21,-103,-75,-455,-94,74,-48,-235,-89,8,-146,-79,-393,134,165,354,-274,-1049,-279,185,391,-229,-2089,353,253,277,242,757,114575
-514,-123,28,-14,-113,-86,-497,-173,120,77,-285,-58,-41,174,-100,-446,143,158,433,-301,-1233,-332,186,443,-242,-2364,395,292,348,290,709,114576
-193,-46,-18,29,-27,-23,-123,23,48,0,63,121,-112,275,50,-193,108,76,250,-49,-628,-69,157,244,32,-1561,208,191,221,194,145,114577
167,40,-59,65,62,49,300,285,-73,87,176,112,1,72,107,99,29,-24,-31,198,127,203,79,-43,266,-486,-47,15,-2,11,-304,114578
221,50,-83,41,74,57,364,223,-190,93,254,170,-25,215,116,148,-14,-57,-142,232,312,238,39,-139,276,-183,-136,-51,-94,-68,-405,114579
115,24,-52,31,41,44,200,41,-104,-79,115,135,-151,276,67,62,6,-16,-85,146,113,133,53,-57,165,-444,-66,-19,-39,-31,-119,114580
174,24,-46,31,56,72,227,179,-138,7,126,133,-44,20,23,59,-49,-88,-177,147,163,126,-17,-143,149,-310,-147,-95,-118,-100,-256,114581
131,11,-38,21,42,67,173,238,-68,118,168,62,25,-123,52,12,-62,-98,-144,97,76,76,-25,-134,95,-373,-136,-87,-112,-99,-163,114582
147,10,-46,31,33,55,187,359,29,66,120,65,-81,100,58,49,-37,-70,-139,112,131,102,-1,-120,124,-308,-121,-77,-89,-73,-201,114583
170,26,-42,35,29,43,213,320,40,38,81,44,31,282,80,110,-14,-41,-129,147,221,148,28,-112,151,-196,-105,-52,-75,-57,-189,114584
169,31,-43,26,34,42,203,152,-23,12,59,66,-138,198,47,96,-8,-38,-121,140,230,155,32,-106,139,-178,-104,-45,-74,-61,-171,114585
118,9,-50,5,12,13,151,-10,-148,-14,78,-8,-223,80,12,61,-33,-57,-146,92,184,114,-10,-126,96,-252,-107,-86,-99,-88,-134,114586
90,18,-37,17,11,24,145,102,-90,21,-188,94,-96,-11,-47,43,-25,-45,-134,72,144,107,-7,-94,67,-320,-77,-68,-87,-70,-16,114587
75,11,-39,14,10,9,137,141,-39,40,-221,4,-3,55,-76,21,-28,-46,-134,53,106,86,-9,-88,43,-369,-83,-72,-82,-76,-12,114588
55,7,-38,11,7,15,126,-46,115,-171,-36,-44,27,46,5,-4,-33,-57,-124,19,67,59,-18,-95,9,-407,-81,-71,-84,-84,-47,114589
63,8,-50,12,8,19,132,6,5,18,22,65,-1,-33,13,10,-20,-41,-96,23,105,101,-15,-86,38,-376,-89,-59,-77,-69,-66,114590
67,9,-46,0,3,21,102,112,-10,38,-230,120,-148,-32,17,20,-28,-28,-84,39,125,121,-5,-74,42,-370,-80,-56,-68,-63,-93,114591
87,14,-43,9,6,24,106,120,-1,61,-210,74,-282,182,41,70,24,16,-37,86,182,161,44,-30,88,-298,-41,-5,-20,-29,-100,114592
129,16,-48,7,30,36,169,35,-48,100,-6,152,-204,240,82,134,37,25,-49,153,319,227,63,-41,159,-121,-47,-5,-21,-27,-116,114593
316,65,-57,25,73,92,360,318,-95,82,12,151,-72,112,40,251,-45,-63,-233,245,673,327,-16,-203,242,396,-213,-140,-166,-148,-447,114594
512,118,-63,43,130,133,570,426,-161,79,424,275,71,91,92,384,-109,-134,-379,350,1049,438,-78,-378,338,964,-361,-227,-287,-261,-747,114595
636,151,-87,56,156,142,728,538,-233,103,594,319,-95,62,133,515,-143,-167,-497,442,1379,533,-121,-489,416,1476,-459,-305,-371,-330,-865,114596
339,91,-24,32,79,62,401,73,-144,-45,297,172,-84,-13,121,311,-68,-66,-319,254,850,295,-62,-273,178,803,-232,-173,-239,-198,-268,114597
12,10,17,-12,-8,-13,32,-180,-45,-22,-75,9,105,-156,105,39,-17,5,-88,39,160,39,-21,-34,-47,-95,-9,-47,-66,-36,126,114598
92,26,-4,-9,12,6,119,63,-89,-50,-171,-9,-24,55,48,85,-47,-28,-128,74,252,66,-52,-102,20,64,-75,-98,-106,-63,-94,114599
53,12,5,-13,-5,12,57,83,-19,-29,-15,-66,-113,44,-63,47,-35,-16,-98,26,142,12,-55,-63,-16,-78,-53,-78,-69,-46,-27,114600
52,26,-3,7,-3,22,81,174,3,70,-9,75,21,127,-77,57,3,1,-51,56,141,27,-10,-28,33,-83,-25,-34,-32,-5,45,114601
95,36,-10,8,8,19,158,174,-41,126,45,132,107,68,-11,90,-7,-16,-75,98,235,49,-13,-66,76,75,-61,-57,-73,-31,-76,114602
201,54,-32,10,36,42,287,294,18,-10,-45,132,50,287,15,200,-34,-50,-162,186,476,140,-36,-157,157,420,-134,-102,-126,-87,-328,114603
762,185,-121,52,161,145,898,538,-209,75,257,300,-108,533,227,678,-107,-160,-522,585,1644,598,-90,-522,583,2021,-486,-320,-375,-298,-1181,114604
1048,239,-183,49,205,170,1192,848,-276,-46,501,458,-136,482,280,943,-175,-234,-801,766,2360,821,-169,-778,728,3085,-721,-477,-588,-494,-1483,114605
945,222,-158,27,171,131,1089,649,-259,-164,425,314,13,406,210,882,-182,-205,-754,687,2283,755,-177,-727,598,3038,-659,-449,-580,-488,-1243,114606
352,94,-48,-37,25,17,420,202,-65,-103,142,-74,-134,175,-28,387,-117,-86,-408,246,1148,293,-151,-366,92,1520,-304,-258,-361,-274,-282,114607
-79,-3,39,-59,-49,-46,-84,-111,-10,-25,-122,-249,-11,-102,-118,1,-45,1,-103,-53,193,-42,-95,-55,-228,177,-24,-100,-125,-64,254,114608
-67,-26,16,-60,-55,-39,-94,-142,101,25,-102,-229,78,-232,-109,-32,-66,-26,-86,-62,115,-50,-103,-53,-208,37,-39,-102,-110,-53,170,114609
-70,-14,6,-38,-63,-58,-78,-216,75,-13,14,-163,-29,-96,-17,-24,-42,3,-27,-35,87,-22,-85,-8,-174,-42,9,-49,-49,-6,121,114610
-59,-8,19,-27,-57,-48,-63,-328,-44,16,8,-31,61,-4,69,1,-21,12,1,-9,89,14,-63,6,-124,-61,15,-30,-28,4,107,114611
-56,-18,25,-34,-51,-33,-74,-254,2,152,36,24,166,-128,84,12,-16,6,4,-5,100,28,-49,10,-107,-59,7,-23,-29,8,92,114612
42,1,3,-26,-22,-14,26,33,-45,246,-24,80,110,62,66,94,-13,-4,-48,74,280,112,-49,-44,-21,165,-45,-54,-53,-16,-78,114613
404,87,-58,18,67,50,423,322,-47,194,279,182,-22,161,87,354,-102,-112,-313,290,970,344,-111,-328,224,1156,-305,-218,-255,-216,-657,114614
625,134,-106,29,119,83,673,316,-155,-29,282,185,-24,200,171,543,-150,-175,-506,433,1467,509,-139,-521,353,1904,-481,-333,-394,-349,-995,114615
699,155,-118,23,120,101,768,329,-166,10,413,159,30,39,108,634,-163,-176,-576,485,1713,585,-166,-576,384,2296,-535,-366,-447,-388,-950,114616
259,68,-33,-34,8,19,281,123,-11,126,-43,10,149,-256,-55,289,-104,-79,-326,170,904,230,-140,-296,37,1252,-259,-217,-281,-216,-234,114617
-71,-7,55,-58,-50,-23,-129,-123,-14,32,-123,-13,28,-126,-79,-2,-35,15,-60,-62,131,-57,-81,-27,-194,213,-2,-59,-79,-32,180,114618
-25,-10,38,-39,-30,-21,-84,49,-93,-17,-25,-3,-10,-66,-106,13,-43,-18,-93,-60,126,-51,-86,-50,-146,206,-28,-83,-87,-41,105,114619
4,9,36,-41,-15,-18,-44,44,74,32,-54,53,146,-127,-67,51,-14,-4,-55,-19,143,-32,-69,-27,-87,236,-3,-55,-55,-13,61,114620
-11,8,24,-41,-23,-23,-45,-74,42,-9,-63,-40,35,32,-49,54,9,25,-4,-11,109,-32,-40,13,-59,190,26,-10,-14,22,138,114621
36,14,19,-33,-7,-2,-16,5,36,44,-137,-18,-128,177,-26,72,-1,15,-31,1,146,-23,-58,-16,-40,234,-4,-40,-30,0,35,114622
125,30,11,-23,21,20,78,183,-23,67,64,7,158,-62,15,137,-41,-36,-101,66,322,34,-71,-95,13,495,-92,-88,-84,-57,-216,114623
489,97,-57,2,97,94,478,292,-110,65,332,231,-122,212,119,400,-148,-180,-410,298,1090,296,-172,-422,259,1564,-393,-293,-333,-264,-876,114624
700,138,-97,11,138,127,703,307,-96,61,443,252,-319,359,146,574,-217,-238,-656,410,1590,441,-255,-631,333,2290,-580,-440,-509,-418,-1092,114625
625,120,-88,-6,97,90,649,251,-156,110,366,201,-149,137,142,562,-175,-186,-594,397,1554,423,-229,-559,280,2277,-508,-382,-463,-381,-899,114626
220,51,-16,-28,10,11,223,26,125,88,12,-48,-17,-262,-33,279,-56,-30,-289,140,784,145,-134,-229,-25,1215,-195,-179,-234,-169,-139,114627
-134,-17,21,-53,-69,-60,-117,-53,70,54,-48,-107,-42,-366,-143,-2,-11,39,-18,-81,70,-81,-79,14,-247,206,41,-36,-40,1,304,114628
-145,-9,29,-46,-71,-66,-99,-40,24,60,-170,-43,55,6,-109,-20,-9,32,45,-59,32,-66,-53,39,-198,115,61,-3,-11,36,176,114629
-115,-19,29,-49,-56,-52,-105,-35,-46,-24,-165,-162,118,-41,-172,21,30,64,78,-27,61,-20,-8,65,-147,112,84,29,35,70,174,114630
-111,-35,19,-66,-59,-48,-140,-147,-8,-130,-64,-247,229,-82,-137,-9,10,41,52,-53,28,-33,-32,42,-153,57,45,14,22,51,125,114631
-79,-18,40,-42,-27,-16,-125,-125,55,-63,-181,-140,176,59,-84,-2,10,43,58,-48,31,-21,-42,42,-135,43,53,6,25,59,98,114632
-16,-6,26,-25,-27,-11,-36,-114,-95,-33,-43,-75,144,90,-72,41,-8,12,17,10,150,35,-58,-2,-68,195,17,-10,-1,43,-6,114633
277,64,-37,9,53,38,311,-39,-39,-78,193,51,43,282,49,271,-74,-90,-196,214,767,256,-111,-230,146,1055,-212,-146,-167,-121,-493,114634
405,82,-64,8,76,55,459,166,-107,-23,325,112,15,315,93,400,-92,-135,-338,291,1074,341,-123,-355,214,1536,-322,-233,-272,-211,-672,114635
421,108,-65,7,69,42,465,215,-166,-106,211,96,-72,173,70,449,-40,-64,-306,322,1146,378,-71,-316,232,1668,-278,-186,-239,-181,-536,114636
110,40,-14,-41,-4,-13,102,158,-23,-183,-160,-34,139,-60,-159,201,-6,19,-115,92,546,137,-44,-108,-8,878,-84,-72,-108,-66,-31,114637
-60,-14,28,-73,-43,-29,-132,8,54,-246,-121,-114,-91,-108,-137,13,-23,1,-19,-58,115,-48,-73,-19,-147,318,-8,-41,-41,-15,111,114638
-4,-13,36,-50,-15,0,-76,-96,118,-176,-54,-88,-16,-70,-84,36,-31,-18,-37,-36,142,-42,-89,-50,-109,367,-41,-61,-56,-43,25,114639
-51,-15,25,-52,-36,-35,-85,-84,159,42,-137,-84,65,32,-53,9,-21,0,0,-57,43,-78,-71,-14,-124,254,6,-35,-34,-19,82,114640
-72,-17,11,-47,-50,-58,-81,-118,106,-28,123,-79,-76,103,19,15,-14,7,10,-56,22,-96,-54,-5,-105,216,9,-27,-17,-8,36,114641
-23,-18,7,-48,-25,-43,-68,-44,-40,-103,108,-120,83,-26,-14,32,-27,-7,-33,-26,78,-81,-63,-45,-81,271,-31,-68,-41,-25,-36,114642
117,16,-3,-29,24,6,75,64,-39,-102,69,-117,-10,-57,-11,123,-51,-47,-118,53,314,6,-84,-139,8,604,-109,-117,-103,-87,-193,114643
324,75,-24,20,78,59,325,193,-31,-2,212,-2,-19,-34,73,271,-86,-102,-247,182,711,151,-114,-278,143,1171,-247,-189,-210,-178,-497,114644
416,83,-55,24,85,66,435,264,-73,-121,309,69,-176,90,83,339,-164,-176,-380,218,964,211,-190,-405,168,1548,-375,-283,-323,-277,-697,114645
416,102,-25,29,84,80,408,366,-104,-130,246,81,-111,207,55,360,-130,-123,-350,233,1001,238,-164,-359,152,1595,-338,-250,-301,-241,-622,114646
105,33,18,-21,-3,-2,86,-77,33,-9,38,-26,-83,16,52,170,-38,-1,-130,54,481,60,-89,-117,-54,877,-96,-94,-130,-77,-72,114647
-131,-9,53,-36,-55,-59,-129,-289,73,-58,-113,-152,25,-172,-47,10,40,95,103,-66,10,-72,-4,109,-163,198,115,57,50,87,269,114648
-132,-22,47,-43,-47,-55,-140,-276,60,-34,-101,-146,-202,-201,-95,-15,30,71,90,-70,-29,-77,-19,88,-159,109,101,40,47,89,260,114649
-121,-26,65,-40,-28,-15,-165,-204,45,-241,-123,-194,-124,-35,-102,-54,-1,32,60,-105,-77,-106,-55,57,-179,22,74,3,14,58,163,114650
-82,-35,50,-36,-13,5,-170,-39,-48,-234,109,-177,68,-173,-60,-49,-16,-8,13,-106,-49,-99,-68,0,-165,77,20,-29,-23,19,85,114651
-91,-37,31,-35,-30,-24,-170,-214,-59,-202,47,-222,-6,-207,-45,-27,20,26,71,-72,-45,-65,-15,52,-132,44,55,21,28,72,165,114652
-82,-22,18,-27,-37,-42,-112,58,48,-143,-108,-127,12,28,-30,9,35,47,78,-33,14,-10,-3,56,-76,106,77,53,49,96,155,114653
169,34,-33,-4,29,3,197,118,-17,73,137,33,-112,181,106,192,-33,-52,-132,129,523,169,-74,-158,103,831,-127,-86,-107,-51,-327,114654
312,74,-30,19,66,48,344,213,-106,33,136,111,-46,215,102,305,-53,-83,-223,211,796,256,-93,-249,177,1241,-222,-137,-178,-123,-487,114655
296,71,-5,7,52,45,280,125,-113,34,242,-23,9,53,68,262,-87,-103,-256,162,755,207,-130,-266,112,1229,-233,-168,-220,-165,-403,114656
82,-1,23,-42,2,5,4,-163,-68,15,-46,-147,71,8,-70,63,-105,-79,-185,-38,315,-2,-148,-175,-100,654,-152,-156,-166,-133,-142,114657
-57,-24,16,-45,-36,-29,-131,-98,13,-4,-128,-103,51,-23,-134,-31,-47,-15,-50,-98,21,-90,-85,-41,-163,249,-27,-62,-56,-37,71,114658
-16,9,21,-8,-15,-19,-51,-112,97,-43,-70,-115,126,-101,-37,37,9,21,-4,2,94,-16,-28,-4,-66,327,17,-11,-7,11,89,114659
4,2,-4,-15,-13,-34,-11,-258,-17,-111,-103,-16,46,-218,32,58,-12,-4,-20,29,140,5,-40,-36,-43,412,-12,-26,-26,-20,25,114660
-12,5,10,-16,-16,-48,-43,-178,35,-126,24,11,100,-254,97,42,12,34,25,15,75,-9,-14,13,-58,311,32,10,10,11,87,114661
-39,3,10,-10,-27,-50,-51,-65,110,-117,61,-61,30,-158,168,42,32,50,49,19,35,-12,1,39,-48,232,61,27,44,43,103,114662
6,10,-2,-4,-15,-41,3,40,24,-26,-10,-53,-7,-227,-10,53,-16,-7,4,27,130,10,-36,-28,-14,366,-21,-26,-25,-22,-60,114663
96,32,-1,7,21,-3,99,167,-50,-43,37,-60,99,-139,-94,110,-29,-30,-50,64,299,60,-54,-86,33,601,-72,-59,-71,-64,-198,114664
161,41,-13,0,29,6,193,124,-55,-114,230,-16,174,52,-82,183,-35,-38,-115,107,474,120,-57,-142,83,834,-106,-71,-101,-89,-261,114665
116,42,-8,-2,22,6,122,61,-12,-208,83,72,-43,121,-157,149,-28,-25,-116,63,399,80,-52,-119,23,743,-84,-71,-100,-68,-108,114666
-56,-16,6,-47,-32,-40,-104,-183,-55,-121,46,-11,47,17,-124,6,5,23,-2,-62,60,-58,-26,-7,-108,277,21,-11,-11,8,103,114667
-108,-21,32,-39,-33,-28,-178,-246,-29,-157,-83,-55,187,-159,18,-35,24,53,71,-85,-76,-88,-9,63,-123,56,79,46,51,76,148,114668
-85,-20,49,-23,-13,-17,-194,-124,-104,-110,-31,-36,-78,-261,47,-11,36,70,92,-58,-61,-56,6,96,-75,55,98,75,84,99,173,114669
-117,-17,34,-25,-31,-48,-218,-260,-51,-23,-20,6,51,-76,45,-10,72,96,143,-48,-116,-58,46,154,-69,-26,156,112,125,136,238,114670
-115,-16,11,-19,-34,-68,-206,113,81,37,-22,-41,48,-63,47,-9,79,86,143,-50,-102,-44,63,135,-59,-7,145,110,114,136,202,114671
-86,-23,18,-19,-26,-55,-164,20,130,40,67,-100,52,-81,-35,-28,23,27,73,-69,-69,-67,9,51,-63,20,66,51,55,76,58,114672
-46,-14,23,-8,-16,-28,-85,57,139,150,44,-102,4,-232,-5,-46,-28,-31,-10,-95,-60,-88,-55,-25,-93,65,-8,-17,-8,4,-11,114673
19,-5,-2,4,-6,-20,31,-138,104,56,167,13,-27,-145,6,5,-39,-49,-68,-49,71,-35,-62,-76,-34,264,-66,-48,-47,-25,-74,114674
43,1,-5,10,1,-6,60,-67,229,-11,143,12,-177,-49,14,30,-39,-37,-76,-22,133,-13,-63,-80,-18,337,-66,-59,-53,-26,-89,114675
59,15,9,15,15,4,56,185,207,-152,-49,-62,-32,128,87,28,-41,-39,-77,-8,161,-10,-59,-84,-21,363,-62,-58,-63,-51,-147,114676
60,32,13,20,15,-2,53,270,114,8,-119,-105,193,-193,-37,39,-10,-10,-43,3,153,11,-42,-56,-11,347,-29,-28,-30,-26,-31,114677
33,33,7,31,7,-19,40,139,161,122,-179,14,43,-246,-1,38,-11,-1,-17,-2,123,10,-32,-31,-21,301,-13,-13,-26,-11,13,114678
29,19,-2,8,-7,-30,48,246,-13,132,24,20,-90,-36,79,44,-20,-21,-48,16,145,10,-46,-56,-20,348,-31,-38,-50,-38,-44,114679
-1,1,-2,0,-20,-33,19,128,-107,149,-55,-23,-142,-132,25,34,-1,1,-50,19,103,15,-16,-43,-21,304,-9,-25,-26,-25,-7,114680
41,1,-4,-5,-2,-12,52,175,-98,-10,-89,12,-92,-103,-13,66,-17,-21,-72,45,189,56,-26,-77,10,410,-58,-44,-47,-47,-102,114681
14,7,20,13,7,2,16,72,-20,-95,43,-8,-149,-190,-15,37,-20,-6,-26,25,131,38,-23,-53,-9,323,-34,-13,-25,-23,0,114682
-13,9,27,16,4,0,-34,-176,29,-39,124,19,-90,-326,-99,-1,-6,11,0,-16,46,9,-11,-8,-34,208,-5,-7,-11,3,80,114683
-118,-26,17,-8,-36,-41,-149,-214,47,-71,66,75,14,-461,-95,-85,8,23,81,-85,-163,-74,2,56,-101,-79,54,38,47,34,180,114684
-53,-7,23,13,-22,-32,-60,-133,117,87,32,-48,25,-209,-30,-3,52,50,130,-18,-58,-2,48,79,-11,29,80,83,98,77,132,114685
-52,-8,39,10,-8,-23,-78,-36,165,179,82,-100,-100,-387,14,-14,27,29,73,-43,-72,-31,17,54,-28,20,49,49,65,50,102,114686
-145,-38,44,-11,-32,-42,-192,-191,52,-18,-149,-98,128,-295,47,-127,-7,2,66,-151,-276,-140,-19,59,-127,-248,53,34,60,36,201,114687
-96,-18,15,-13,-24,-46,-116,-118,88,-110,-201,24,61,159,36,-59,21,20,81,-77,-151,-76,2,61,-46,-115,53,58,75,54,81,114688
-51,-3,12,4,-9,-29,-42,-49,40,-85,6,133,117,162,43,-8,32,29,55,-35,-45,-34,3,42,-9,16,52,45,65,44,31,114689
-71,3,26,13,-2,-26,-23,-11,-15,59,32,83,17,41,16,-28,28,24,62,-58,-94,-59,17,46,-28,-27,50,45,54,48,106,114690
-62,16,27,15,-6,-19,0,63,112,68,-119,17,-211,107,46,-13,33,38,72,-46,-75,-33,32,64,-24,-19,61,66,68,63,126,114691
-47,11,22,12,-2,-11,-1,54,105,-51,-206,-72,32,7,-65,-9,27,23,41,-35,-51,-29,32,35,-20,12,34,40,56,36,123,114692
-7,27,27,24,21,18,0,20,120,-134,16,-87,-7,-157,5,17,40,24,39,-10,7,-12,48,22,-2,67,17,36,58,19,-1,114693
61,24,29,12,35,35,29,106,17,19,69,-114,-26,28,-21,63,20,0,4,35,126,35,27,-12,43,230,-16,17,30,2,-96,114694
62,7,19,2,27,24,25,157,66,85,57,20,-79,85,-61,49,9,-9,9,28,154,40,8,-16,38,269,-13,11,7,-5,-38,114695
73,15,12,7,28,24,63,100,-90,175,32,85,3,228,28,68,6,-10,-9,42,195,43,-6,-31,45,322,-22,0,-4,-18,-83,114696
86,36,2,19,27,16,105,75,-95,95,125,55,-214,317,164,102,26,17,2,82,233,81,16,-11,66,370,-8,17,9,-1,-52,114697
46,24,-18,0,8,-23,68,-4,10,65,-24,-33,-184,226,128,101,38,31,13,68,189,62,24,2,52,312,15,29,24,15,-37,114698
85,31,-28,-8,15,-3,114,-26,21,-28,-138,57,-131,195,36,137,41,23,4,115,281,104,32,-20,103,469,-17,18,26,-1,-120,114699
28,24,6,13,14,20,29,-37,-7,-1,-84,-28,-3,37,-27,61,14,23,27,48,136,41,19,8,34,283,10,30,27,13,4,114700
43,15,36,10,33,36,12,-12,-53,27,-105,-23,75,40,-54,18,-28,-30,-35,5,102,5,-35,-46,-6,255,-47,-38,-29,-27,-63,114701
3,1,30,-3,14,21,-22,5,14,-63,-8,9,212,55,-109,8,-19,-14,4,-13,50,-10,-16,-8,-16,196,-11,1,1,-1,41,114702
-40,4,34,2,-7,-2,-58,78,69,-79,-167,6,144,99,2,5,46,48,79,-14,-31,-11,26,69,-4,61,80,72,81,64,156,114703
-90,-4,27,1,-14,-29,-101,-77,-150,12,-296,-188,246,-42,4,-22,52,52,88,-37,-119,-40,38,98,-41,-80,91,79,102,77,210,114704
-96,-12,25,-6,-22,-22,-90,-188,-113,-5,-322,-65,151,32,19,-52,28,25,62,-52,-136,-66,23,60,-49,-107,53,45,65,45,147,114705
-84,-19,29,-5,-14,-20,-99,-66,58,35,-213,-41,239,121,-72,-89,-13,3,44,-80,-173,-94,-14,33,-69,-163,39,20,41,20,67,114706
-111,-24,37,-13,-15,-22,-161,-90,64,54,-199,-92,200,-100,-93,-119,-22,2,69,-129,-263,-121,-18,66,-101,-295,70,38,56,32,145,114707
-63,-17,27,-11,-4,-6,-106,38,-20,42,-240,-90,73,-57,68,-59,9,12,63,-59,-149,-56,2,55,-37,-160,59,41,66,40,38,114708
-39,-9,11,7,-5,7,-53,48,-62,34,-292,-102,-147,57,53,-24,16,19,42,-31,-94,-16,14,32,-10,-91,41,39,62,28,43,114709
-42,-9,-1,6,-7,-4,-45,-84,-76,104,-123,-94,-272,-48,57,-55,-17,-19,5,-53,-103,-28,-10,-16,-37,-100,3,6,18,-9,-28,114710
-10,-3,22,29,13,17,-2,-17,-105,114,-21,-4,-244,-41,18,-58,-26,-26,-12,-46,-73,-9,-23,-16,-34,-82,-11,-9,3,-27,-14,114711
-4,-2,4,10,2,4,-1,40,-155,154,31,45,-194,15,-37,-32,-6,-15,-9,-31,-41,17,1,-10,-28,-35,-6,-2,4,-20,44,114712
-19,-3,5,7,7,-1,-30,-177,-49,38,-63,-29,-17,71,-64,-7,32,29,32,-13,-23,50,34,16,-10,-24,27,17,30,18,64,114713
74,22,1,19,40,30,42,188,-56,-42,-9,45,113,-15,7,61,19,12,0,50,129,122,27,-20,53,179,-19,4,7,-5,-102,114714
136,44,-5,24,53,38,76,277,30,-76,-14,71,41,-72,-80,78,-23,-28,-71,57,220,140,-15,-81,66,314,-74,-34,-39,-56,-183,114715
112,11,-27,3,30,12,69,167,0,-83,62,60,91,-160,-38,54,-51,-59,-98,28,219,108,-50,-122,37,355,-107,-64,-80,-85,-205,114716
107,22,-20,13,32,12,98,139,-34,-70,214,43,9,-77,126,82,-16,-24,-69,56,231,111,-23,-78,62,383,-67,-30,-47,-43,-98,114717
24,6,-9,3,-1,-5,14,-87,21,-7,214,62,132,92,24,33,11,14,-1,14,71,41,12,-2,15,175,-4,16,15,2,44,114718
90,35,-17,14,17,12,93,43,-22,50,324,22,-47,89,68,81,-15,-12,-45,56,191,36,0,-51,78,365,-61,-9,-19,-31,-157,114719
54,28,6,9,19,22,46,130,-47,-64,351,-27,-179,22,43,40,-9,-10,-22,11,87,-49,3,-25,34,263,-39,3,-12,-28,-96,114720
39,20,6,14,21,25,18,53,71,14,-40,-49,-10,84,-96,16,-18,-16,-21,-4,35,-109,-4,-27,18,223,-27,-3,-19,-20,-40,114721
13,12,-4,3,6,-3,11,12,76,157,-253,92,25,38,-144,22,-1,-8,-24,-12,-4,-149,3,-16,11,200,-2,1,-8,-13,-46,114722
27,17,-4,7,1,-14,45,-114,-18,171,-38,102,13,230,22,56,16,14,-16,22,29,-141,2,-8,37,245,1,16,1,8,-25,114723
59,5,-21,-5,7,-13,71,-87,-48,40,137,92,-9,244,-4,54,-34,-38,-57,16,97,-131,-46,-62,42,329,-67,-27,-46,-39,-128,114724
143,40,-8,5,33,20,138,6,55,184,162,76,158,-103,34,86,-69,-68,-141,49,244,-68,-84,-142,63,519,-140,-92,-115,-99,-250,114725
139,36,-16,-5,27,18,136,-31,59,153,214,37,-39,-45,88,91,-83,-76,-177,62,294,-24,-107,-168,64,576,-145,-100,-124,-113,-227,114726
21,24,17,-1,12,18,7,178,11,-11,-14,-20,-24,75,53,25,-34,-8,-49,5,101,-38,-55,-36,-9,268,-23,-5,-31,-40,88,114727
-96,-12,18,-12,-21,-19,-111,-16,83,-41,-124,-129,-9,111,-69,-49,26,34,93,-58,-105,-44,13,78,-56,-62,78,85,64,50,207,114728
-72,-2,17,-3,-11,-17,-49,-49,135,-66,-93,-59,127,211,-46,-31,28,28,91,-37,-63,14,20,64,-32,-30,62,74,51,54,137,114729
-81,-15,-4,-21,-32,-33,-47,-101,-86,115,-95,-15,164,33,-29,-35,2,9,40,-41,-37,46,13,35,-44,-27,39,38,27,24,122,114730
-91,-10,15,-8,-17,-30,-45,-138,-36,136,-108,-26,150,-49,-85,-49,16,29,74,-48,-60,84,34,53,-43,-79,54,61,40,36,106,114731
-53,13,30,6,9,-3,-33,57,-55,31,2,3,124,-105,-49,-54,-1,12,46,-53,-57,115,12,29,-46,-72,42,24,21,21,66,114732
-31,-16,11,-10,3,3,-76,1,-127,-155,-136,-24,174,-123,-33,-46,-6,12,22,-50,-56,121,5,15,-54,-82,20,15,16,15,22,114733
39,-9,4,-8,14,24,-10,24,-78,-140,-76,2,44,-134,-103,18,-25,-19,-43,7,109,176,-6,-58,-2,146,-49,-18,-24,-32,-70,114734
118,17,-2,-2,33,33,103,18,-32,10,296,55,116,-27,-26,111,-22,-21,-99,80,313,240,-11,-98,90,434,-94,-41,-56,-71,-161,114735
134,18,-23,-17,18,16,139,-4,50,119,85,87,112,-102,-47,141,-25,-28,-111,103,381,241,-15,-111,116,555,-103,-49,-83,-76,-205,114736
62,5,-10,-19,4,1,64,131,33,-22,-15,61,91,22,-29,74,-34,-31,-68,46,235,133,-16,-83,52,407,-64,-34,-68,-64,-163,114737
-41,-1,42,-14,7,1,-58,86,-63,-121,74,-78,186,-66,-12,-15,18,25,51,-18,-28,-27,22,27,-20,72,32,46,21,11,109,114738
58,14,24,-7,39,39,0,68,-16,-147,34,46,188,-12,2,32,-34,-32,-25,2,59,-86,-18,-62,13,263,-63,-25,-45,-53,-85,114739
-11,-14,21,-26,4,16,-80,66,56,-58,-56,-17,114,84,-55,-24,-27,-18,5,-66,-106,-240,-20,-18,-58,83,-17,-14,-33,-27,41,114740
2,10,9,-7,-3,-1,-9,11,56,-57,6,-46,3,201,-44,38,15,24,42,6,-54,-234,31,18,7,174,30,26,9,22,16,114741
13,1,-2,2,-5,-11,3,-96,12,-2,82,-12,-25,200,-23,51,24,25,7,20,-26,-248,27,12,19,221,12,19,-2,6,-37,114742
27,-3,13,-14,7,-5,-11,-171,43,48,80,-23,-84,39,50,68,30,23,-5,35,-18,-249,28,12,8,222,22,18,12,2,26,114743
2,-3,5,-10,2,-9,-20,-24,187,125,10,-17,-145,-6,71,58,48,57,42,35,-43,-207,58,52,14,150,57,52,52,46,84,114744
75,10,-34,-6,11,-3,73,-60,44,41,-113,120,-303,142,67,95,-12,-5,-51,61,145,-107,8,-58,45,399,-50,-33,-38,-34,-93,114745
81,17,-15,-2,21,23,90,-66,-53,25,-94,45,-66,-7,84,80,-40,-42,-84,40,194,-45,-20,-104,31,434,-93,-69,-78,-82,-174,114746
0,10,38,4,18,28,9,-73,48,47,-60,26,-5,-37,33,10,-16,-7,-19,-21,64,-35,5,-36,-28,212,-26,-26,-41,-35,-58,114747
-62,-15,30,0,-3,2,-72,-73,134,75,141,-2,149,-254,5,-38,-15,8,13,-61,-66,-34,8,18,-78,12,18,-9,-9,2,148,114748
-78,-24,8,-17,-22,-14,-102,-46,2,71,-17,-58,267,-186,-81,-62,0,2,35,-84,-112,-19,19,25,-90,-65,27,4,10,10,169,114749
-54,-28,37,-10,10,16,-108,80,89,57,-247,-70,115,-75,-166,-80,-12,-15,40,-97,-124,1,2,15,-88,-115,11,4,5,2,118,114750
-71,-36,44,-19,-3,9,-119,-157,12,-110,-129,-34,185,-62,-158,-99,-16,-13,50,-108,-164,-16,-25,17,-83,-173,20,8,14,8,124,114751
-125,-38,34,-12,-32,-23,-142,-70,-72,-196,-109,-51,19,54,-31,-112,2,18,74,-123,-216,-23,-16,57,-82,-257,59,31,41,33,106,114752
-151,-36,22,-4,-37,-37,-147,-172,-65,20,41,12,-27,102,25,-125,4,16,89,-125,-252,-34,-1,83,-80,-325,79,43,45,49,169,114753
-79,-8,7,13,-12,-33,-57,-123,-15,-73,53,193,5,148,70,-34,31,44,77,-46,-110,34,35,71,-1,-141,71,39,47,52,118,114754
-12,6,-2,15,-9,-24,18,20,-240,-51,12,185,170,32,66,33,22,31,19,6,30,63,28,10,50,64,19,11,15,17,22,114755
24,6,2,17,11,7,33,-41,-99,6,334,17,78,-102,8,35,-5,-2,-21,-1,60,44,-3,-34,34,128,-32,-16,-25,-28,5,114756
-84,-40,13,-25,-26,-11,-119,-133,119,-62,-1,-30,-10,-139,-28,-81,-48,-23,5,-110,-168,-96,-39,-3,-79,-147,-3,-9,-21,-29,65,114757
-152,-53,35,-24,-44,-26,-186,-175,-81,-60,-204,-141,179,-31,-50,-122,5,29,99,-131,-325,-153,4,84,-99,-370,74,58,57,29,160,114758
-78,-25,19,2,-28,-29,-65,-142,-34,-183,-12,14,211,-69,-35,-41,31,38,77,-41,-168,-91,27,70,-28,-180,43,55,55,29,81,114759
-130,-28,14,-5,-45,-51,-115,-177,126,-66,101,22,200,-88,19,-80,35,43,85,-74,-258,-176,32,89,-81,-303,76,59,60,41,182,114760
-146,-37,4,-7,-46,-61,-139,-341,6,-53,95,-3,12,-138,-1,-90,45,55,120,-86,-333,-214,32,106,-93,-393,104,78,86,48,217,114761
-80,-14,-1,-4,-23,-38,-64,-232,-7,-76,-2,-2,-109,41,-9,-44,43,45,89,-48,-223,-175,33,75,-37,-246,68,63,58,23,144,114762
-28,-4,-8,8,-6,-21,-20,-45,-97,-147,-74,-128,46,263,59,-34,6,-5,17,-41,-143,-179,4,7,-39,-129,5,16,-7,-35,18,114763
12,4,16,15,11,16,7,20,8,-170,-45,-167,76,267,27,-22,-15,-10,-33,-32,-87,-146,-14,-38,-32,-43,-28,-18,-38,-52,-78,114764
35,-9,10,-7,12,27,-6,28,-61,-112,76,-64,96,101,-22,-28,-53,-52,-89,-43,-52,-131,-43,-81,-45,25,-69,-62,-78,-86,-113,114765
38,0,-9,-2,6,1,35,57,-94,31,146,75,127,172,31,22,-7,-20,-40,-12,16,-47,-3,-44,4,103,-34,-25,-41,-47,-5,114766
-44,6,-9,6,-16,-40,-15,61,3,141,-103,-25,15,3,28,-3,47,43,36,-34,-85,-37,49,48,-19,-53,62,30,33,25,230,114767
-130,-21,18,9,-26,-24,-148,-23,-46,60,-233,-20,83,-150,9,-122,18,25,60,-143,-320,-104,18,71,-113,-381,85,21,40,20,236,114768
-141,-39,34,-4,-22,-15,-201,-120,-46,52,-228,10,138,-144,-43,-169,-4,-7,48,-186,-396,-122,-5,50,-144,-488,47,-2,23,2,176,114769
-167,-49,29,-11,-41,-32,-230,113,205,17,-140,8,326,-112,9,-171,29,28,99,-188,-439,-86,27,105,-132,-594,84,46,83,37,232,114770
-165,-22,35,5,-37,-37,-218,4,148,95,-107,41,141,33,1,-148,64,68,128,-167,-429,-41,57,141,-104,-624,135,80,125,77,268,114771
-189,-30,38,4,-35,-41,-234,-86,188,2,-93,23,59,-12,47,-184,49,52,126,-210,-492,-70,35,140,-125,-723,136,77,110,69,244,114772
-241,-56,32,-17,-52,-55,-280,-256,138,-33,-151,30,71,63,0,-257,1,4,119,-273,-609,-137,2,129,-181,-869,114,58,86,36,277,114773
-217,-47,30,-1,-49,-40,-216,-228,106,-120,-207,137,3,97,20,-216,39,34,136,-231,-565,-97,45,144,-140,-843,127,73,98,53,273,114774
-170,-34,21,9,-35,-32,-146,-368,98,-98,-129,-14,132,213,88,-157,43,51,99,-180,-484,-72,58,111,-94,-740,94,59,89,42,207,114775
-162,-35,9,11,-33,-30,-154,-194,113,-141,-165,27,-104,84,-67,-168,29,37,100,-202,-509,-107,57,105,-114,-772,86,60,85,26,252,114776
-200,-41,43,13,-30,-22,-225,-120,51,67,-237,-9,13,168,-55,-221,48,56,149,-233,-629,-186,76,146,-158,-946,130,87,123,43,289,114777
-263,-48,63,16,-39,-16,-302,-119,136,-9,-169,70,-46,66,-13,-285,55,60,173,-266,-784,-275,76,191,-211,-1171,174,102,151,69,367,114778
-265,-64,60,23,-39,-29,-299,-103,60,129,-22,-30,-93,-134,-29,-295,58,56,174,-259,-829,-315,68,190,-218,-1251,183,103,149,77,373,114779
-242,-54,40,16,-33,-41,-243,-137,19,54,-41,-27,7,24,-49,-262,62,41,162,-218,-757,-336,74,168,-186,-1167,164,90,137,49,295,114780
-223,-47,23,15,-35,-38,-218,-25,-27,55,-185,-58,52,-58,-13,-238,67,49,155,-189,-720,-326,81,168,-154,-1137,153,101,144,51,289,114781
-190,-46,17,16,-33,-30,-174,-61,-98,34,-237,-40,-12,-27,35,-210,51,40,125,-163,-655,-315,75,123,-129,-1056,110,74,109,27,207,114782
-140,-33,-10,11,-19,-10,-99,39,-150,-56,-25,-41,-128,-37,-126,-185,6,2,60,-140,-543,-281,54,50,-107,-903,39,13,51,-24,78,114783
-194,-41,1,-8,-39,-23,-178,76,-25,-68,42,30,-241,61,-77,-231,11,15,92,-202,-648,-306,52,84,-155,-1045,87,38,67,-13,200,114784
-181,-44,27,10,-19,-19,-199,98,-4,-158,52,75,108,-67,-33,-180,80,79,166,-177,-637,-238,110,158,-98,-1065,155,102,138,48,267,114785
-199,-58,18,-12,-33,-20,-262,24,106,-178,-180,-61,166,-11,25,-191,97,88,174,-197,-680,-216,127,182,-106,-1143,156,108,155,54,282,114786
-276,-82,16,-36,-64,-41,-391,-242,-27,-177,-250,-88,-13,46,-23,-283,101,89,189,-280,-862,-266,121,205,-180,-1394,182,118,169,64,341,114787
-369,-91,55,-27,-68,-46,-503,-261,-24,19,-207,-81,-206,-148,-129,-374,110,102,253,-373,-1117,-330,138,283,-250,-1772,264,168,227,103,581,114788
-412,-101,65,-28,-74,-55,-495,-241,108,53,-44,-146,-110,-277,-43,-412,112,119,288,-416,-1239,-350,144,321,-264,-1958,297,187,265,130,621,114789
-538,-128,73,-37,-108,-89,-544,-359,109,-67,-333,-192,-30,-125,-36,-502,125,138,342,-512,-1493,-428,138,380,-331,-2312,351,227,318,162,764,114790
-574,-133,54,-39,-113,-90,-557,-482,43,-217,-396,-168,89,-100,-73,-545,106,124,347,-555,-1597,-467,137,371,-350,-2491,347,221,310,151,738,114791
-609,-162,75,-32,-114,-65,-640,-581,163,-88,-361,-143,100,-116,-152,-630,84,103,356,-621,-1779,-542,127,376,-417,-2768,347,222,315,139,799,114792
-636,-161,119,-17,-91,-40,-724,-196,306,139,-406,-160,164,-177,-108,-718,70,84,377,-695,-1971,-627,119,395,-474,-3056,347,222,333,116,810,114793
-734,-179,121,-29,-123,-67,-824,-345,169,158,-479,-290,162,-239,-2,-839,50,61,400,-808,-2223,-754,98,415,-565,-3442,379,217,344,111,859,114794
-851,-233,97,-35,-172,-116,-922,-346,105,104,-559,-336,78,-199,-34,-945,64,89,513,-883,-2513,-855,119,506,-651,-3888,462,280,413,162,998,114795
-843,-209,104,-4,-158,-109,-913,-311,171,-21,-616,-183,53,-173,-89,-946,109,120,558,-864,-2575,-861,182,547,-626,-4071,490,324,470,191,999,114796
-803,-191,92,14,-131,-92,-852,-356,195,41,-371,-123,-110,-266,-123,-893,142,151,525,-800,-2525,-827,211,550,-563,-4096,490,327,489,204,910,114797
-649,-161,66,33,-89,-67,-665,-276,172,87,-324,-137,-84,-118,-24,-737,165,149,472,-662,-2213,-678,234,477,-423,-3771,438,310,449,179,775,114798
-597,-160,42,38,-92,-61,-584,-229,116,168,-206,-37,99,-14,-68,-697,147,127,431,-612,-2074,-619,232,420,-390,-3654,392,279,400,130,684,114799
-521,-134,34,46,-72,-42,-501,-184,75,32,-458,27,25,-36,-8,-628,141,118,397,-544,-1893,-545,228,379,-331,-3494,340,264,373,103,597,114800
-541,-146,26,31,-68,-49,-531,-254,45,274,-451,11,-46,-27,81,-668,108,88,388,-568,-1926,-560,205,367,-366,-3592,312,253,343,69,623,114801
-506,-136,22,36,-55,-34,-511,-225,-1,47,-188,-31,-80,2,72,-662,96,79,382,-543,-1864,-512,203,357,-334,-3569,307,257,342,70,597,114802
-473,-139,10,32,-65,-23,-478,-21,52,81,-95,-61,-9,-149,10,-643,82,59,338,-527,-1785,-475,195,313,-308,-3498,256,231,311,42,521,114803
-845,-217,86,-1,-141,-102,-901,-302,234,40,-531,-273,44,-392,-76,-930,181,181,600,-790,-2561,-750,276,595,-575,-4587,541,399,500,213,1162,114804
-1075,-258,112,-13,-194,-154,-1128,-516,222,22,-608,-291,137,-353,-117,-1103,249,264,794,-940,-3114,-914,352,809,-674,-5383,739,541,675,356,1509,114805
-1172,-293,119,-17,-221,-172,-1234,-646,164,-75,-753,-318,187,-316,-201,-1231,260,269,892,-1050,-3473,-1036,371,888,-739,-5906,806,593,747,408,1592,114806
-1111,-281,124,1,-184,-139,-1166,-610,78,97,-446,-291,123,-409,-220,-1237,226,225,827,-1058,-3518,-1072,345,814,-696,-5987,740,558,704,354,1386,114807
-834,-225,79,41,-109,-70,-858,-215,-12,146,-165,-161,-28,-306,-45,-1051,159,129,596,-916,-3097,-941,285,593,-503,-5412,523,418,552,192,909,114808
-846,-235,73,45,-114,-74,-891,-236,146,160,-340,-221,-134,-297,14,-1087,137,113,546,-980,-3190,-1018,264,556,-548,-5509,499,406,516,122,990,114809
-1009,-259,98,33,-139,-96,-1074,-381,351,44,-456,-229,-132,-369,-76,-1220,182,175,677,-1118,-3592,-1194,314,681,-660,-6082,623,493,609,185,1269,114810
-1150,-306,106,8,-175,-111,-1262,-586,257,122,-547,-282,-202,-411,-69,-1358,207,205,759,-1255,-4022,-1385,345,773,-785,-6706,709,549,685,237,1501,114811
-1228,-327,110,9,-185,-128,-1355,-792,140,283,-695,-277,30,-467,-96,-1445,228,237,822,-1334,-4328,-1507,377,847,-846,-7188,771,607,757,260,1592,114812
-1339,-335,151,25,-190,-140,-1450,-866,218,247,-716,-275,-8,-476,-174,-1537,286,295,941,-1421,-4657,-1615,442,957,-896,-7730,880,703,861,322,1770,114813
-1631,-414,177,-4,-274,-204,-1737,-799,287,155,-858,-518,-82,-407,-243,-1773,350,374,1138,-1638,-5297,-1837,508,1160,-1092,-8721,1084,844,1008,429,2214,114814
-2081,-524,247,-38,-364,-269,-2234,-1042,481,228,-1249,-711,-85,-486,-308,-2183,426,469,1438,-1958,-6330,-2175,586,1471,-1408,-10305,1382,1026,1233,612,2791,114815
-2133,-527,264,-8,-331,-227,-2299,-1194,393,231,-1307,-557,-70,-538,-222,-2272,438,468,1512,-2007,-6618,-2209,619,1529,-1418,-10899,1424,1070,1310,658,2777,114816
-1958,-505,214,29,-283,-188,-2096,-1135,209,237,-908,-437,-70,-423,-206,-2187,407,394,1421,-1902,-6388,-2036,620,1408,-1266,-10808,1272,1014,1244,573,2432,114817
-1485,-416,120,75,-181,-82,-1545,-715,200,314,-591,-132,-33,-119,-124,-1847,288,241,1078,-1593,-5430,-1577,539,1045,-917,-9717,931,803,985,327,1647,114818
-1316,-374,78,77,-151,-53,-1334,-559,221,294,-377,-145,-125,-143,-83,-1697,262,220,946,-1443,-4952,-1278,528,921,-775,-9292,813,739,891,240,1453,114819
-1186,-344,71,93,-106,-19,-1203,-492,109,164,-452,-88,-26,-115,-84,-1605,236,186,848,-1326,-4590,-1000,491,820,-686,-8991,713,674,824,166,1280,114820
-1118,-335,67,97,-89,1,-1145,-491,224,202,-297,-36,-5,-84,-41,-1566,233,161,817,-1268,-4379,-829,490,800,-650,-8881,677,645,791,140,1232,114821
-1102,-329,46,90,-103,-10,-1130,-310,179,277,-342,-76,25,-93,-31,-1571,214,146,806,-1253,-4301,-736,480,775,-662,-8905,657,626,769,127,1203,114822
-1068,-302,48,126,-92,6,-1064,-259,107,293,-469,66,-109,89,-79,-1526,232,173,813,-1193,-4195,-648,502,784,-608,-8855,665,640,768,138,1228,114823
-1402,-383,89,81,-173,-59,-1445,-598,152,161,-605,-158,20,-102,-224,-1797,283,253,1007,-1451,-4905,-981,532,1014,-862,-9860,886,777,916,266,1770,114824
-1755,-450,141,57,-248,-117,-1814,-551,325,315,-711,-363,-33,-399,-252,-2086,369,349,1279,-1688,-5761,-1370,624,1293,-1082,-11055,1146,965,1126,449,2266,114825
-1881,-471,151,65,-275,-160,-1929,-849,261,332,-892,-303,-184,-446,-213,-2202,420,397,1392,-1797,-6248,-1636,677,1401,-1144,-11725,1259,1058,1234,519,2419,114826
-1860,-496,120,69,-267,-151,-1897,-783,325,212,-791,-269,-25,-432,-181,-2243,363,339,1323,-1857,-6453,-1862,641,1316,-1149,-11972,1186,1015,1186,427,2280,114827
-1760,-478,125,85,-226,-118,-1799,-902,374,158,-665,-238,-50,-191,-140,-2228,328,298,1226,-1889,-6523,-2031,628,1217,-1122,-12040,1094,974,1121,324,2034,114828
-1860,-498,143,80,-241,-138,-1925,-880,324,200,-806,-221,-166,-149,-127,-2325,360,343,1281,-2020,-6905,-2261,674,1281,-1217,-12602,1161,1034,1169,333,2253,114829
-2073,-522,184,86,-284,-162,-2190,-854,362,152,-892,-352,96,-422,-127,-2514,427,425,1440,-2208,-7535,-2563,755,1460,-1389,-13540,1331,1168,1313,417,2636,114830
-2269,-595,198,67,-325,-201,-2419,-912,450,150,-1105,-369,-8,-520,-165,-2714,461,459,1549,-2394,-8144,-2840,810,1582,-1543,-14466,1445,1243,1418,457,2869,114831
-2385,-638,224,66,-331,-193,-2546,-898,484,239,-1168,-427,-1,-544,-334,-2867,484,480,1627,-2544,-8628,-3027,858,1646,-1639,-15238,1518,1311,1491,472,3079,114832
-2561,-682,220,61,-381,-230,-2699,-948,386,136,-1318,-569,14,-532,-342,-3046,507,517,1740,-2705,-9142,-3195,909,1746,-1756,-16131,1624,1396,1578,509,3275,114833
-2691,-698,229,77,-394,-241,-2824,-1162,334,373,-1405,-627,-63,-587,-334,-3196,538,532,1844,-2819,-9545,-3278,943,1839,-1832,-16918,1698,1471,1672,542,3397,114834
-2829,-752,236,72,-411,-254,-2974,-1347,439,330,-1406,-514,-162,-764,-360,-3366,572,555,1949,-2939,-9947,-3326,986,1957,-1920,-17730,1783,1542,1772,586,3542,114835
-2876,-768,233,68,-418,-257,-2979,-1299,442,424,-1501,-409,-10,-466,-267,-3408,602,583,2001,-2932,-10093,-3227,1044,2009,-1874,-18218,1839,1583,1837,615,3563,114836
-2763,-726,213,113,-367,-215,-2809,-1150,456,389,-1273,-304,130,-395,-185,-3328,633,568,2020,-2820,-9907,-2982,1102,1981,-1715,-18285,1801,1595,1839,605,3422,114837
-2511,-677,147,151,-306,-150,-2516,-963,393,320,-1061,-188,-162,-564,-202,-3173,566,466,1836,-2638,-9386,-2627,1055,1789,-1512,-17872,1598,1481,1701,475,3012,114838
-2217,-613,95,185,-220,-71,-2202,-861,364,252,-954,-86,-298,-191,-143,-2949,520,393,1656,-2379,-8720,-2186,1026,1606,-1273,-17274,1410,1363,1576,372,2544,114839
-2032,-591,46,187,-195,-43,-1994,-610,113,301,-889,-85,-161,-110,-52,-2824,455,335,1505,-2211,-8232,-1853,972,1461,-1128,-16847,1248,1264,1455,277,2299,114840
-1930,-562,35,195,-176,-18,-1858,-537,201,261,-768,-45,-90,-65,-90,-2730,428,305,1425,-2076,-7887,-1648,937,1395,-1025,-16586,1184,1196,1390,256,2132,114841
-1798,-533,20,199,-147,5,-1709,-501,328,424,-572,-14,-231,-207,-16,-2613,419,276,1377,-1919,-7532,-1465,931,1330,-902,-16264,1119,1149,1339,238,1956,114842
-1662,-508,0,208,-119,14,-1550,-552,321,501,-560,160,-191,-76,22,-2479,405,254,1306,-1770,-7177,-1321,927,1254,-771,-15898,1040,1110,1283,205,1839,114843
-1679,-484,25,220,-114,15,-1566,-588,285,636,-550,252,-104,67,19,-2481,402,278,1311,-1778,-7224,-1425,920,1288,-804,-15998,1076,1124,1284,220,1942,114844
-1831,-518,33,197,-156,-11,-1722,-580,212,536,-580,34,-185,104,13,-2630,414,290,1372,-1910,-7592,-1682,922,1355,-947,-16525,1137,1166,1322,241,2126,114845
-1959,-548,64,197,-173,-4,-1865,-534,142,505,-819,-10,-182,-173,-76,-2764,438,325,1453,-2061,-7982,-1944,945,1440,-1075,-17113,1225,1230,1378,263,2300,114846
-2138,-602,102,176,-215,-35,-2064,-718,286,366,-936,29,-51,-217,-121,-2942,439,349,1555,-2247,-8498,-2242,943,1539,-1241,-17877,1329,1300,1452,302,2581,114847
-2353,-643,105,152,-279,-96,-2279,-1013,295,297,-1014,-107,37,-77,-199,-3119,498,420,1690,-2423,-9055,-2503,1003,1682,-1389,-18731,1466,1413,1562,376,2885,114848
-2480,-679,104,147,-306,-117,-2433,-948,294,262,-1120,-194,-48,-195,-264,-3261,526,444,1779,-2549,-9444,-2675,1040,1760,-1492,-19415,1555,1474,1640,400,3004,114849
-2554,-705,137,157,-294,-88,-2569,-1132,338,266,-1198,-248,-329,-372,-248,-3383,529,453,1841,-2667,-9796,-2823,1057,1814,-1580,-20059,1624,1518,1680,418,3085,114850
-2664,-746,147,145,-311,-96,-2707,-1024,407,358,-1159,-281,-178,-378,-187,-3506,553,469,1913,-2793,-10179,-2946,1091,1894,-1671,-20746,1690,1573,1748,435,3238,114851
-2756,-774,126,134,-351,-124,-2758,-1074,429,370,-1314,-261,-173,-450,-96,-3588,580,496,1964,-2856,-10431,-2998,1139,1944,-1705,-21311,1729,1624,1808,441,3312,114852
-2820,-784,109,147,-369,-160,-2762,-1181,355,355,-1349,-116,-120,-528,-164,-3629,636,548,2026,-2873,-10596,-2989,1207,2014,-1686,-21777,1795,1692,1892,478,3421,114853
-2773,-767,111,176,-347,-124,-2711,-985,435,521,-1232,-84,-127,-570,-220,-3640,638,522,2029,-2853,-10632,-2937,1223,1993,-1634,-22033,1778,1693,1899,469,3344,114854
-2746,-758,116,196,-315,-91,-2691,-898,430,520,-1026,-33,-169,-439,-194,-3642,629,496,2021,-2832,-10632,-2879,1233,1982,-1591,-22258,1761,1687,1887,452,3315,114855
-2692,-756,104,199,-304,-79,-2621,-873,267,479,-853,-115,-71,-256,-70,-3604,653,519,2007,-2753,-10561,-2777,1262,1979,-1507,-22389,1757,1691,1898,457,3261,114856
-2631,-755,59,209,-305,-78,-2501,-965,273,348,-945,-127,111,-181,-141,-3583,607,456,1943,-2687,-10437,-2687,1234,1914,-1432,-22408,1684,1642,1843,406,3139,114857
-2510,-726,21,243,-262,-61,-2339,-800,163,415,-1033,-152,28,-199,-162,-3520,553,389,1866,-2570,-10219,-2584,1203,1817,-1317,-22255,1551,1571,1771,330,2890,114858
-2239,-663,-24,275,-192,3,-2035,-528,218,513,-1045,-26,-89,27,-51,-3301,518,332,1723,-2303,-9680,-2351,1184,1680,-1068,-21652,1394,1472,1672,267,2492,114859
-2064,-616,-45,296,-146,48,-1828,-410,335,626,-682,131,-210,29,25,-3115,522,331,1670,-2076,-9272,-2179,1181,1634,-878,-21202,1350,1455,1638,284,2299,114860
-1930,-581,-70,298,-130,60,-1652,-275,300,530,-390,241,-139,157,45,-2966,520,320,1611,-1893,-8910,-2063,1169,1563,-724,-20798,1288,1419,1588,272,2069,114861
-1776,-556,-106,288,-95,87,-1474,-231,233,458,-285,328,-197,186,68,-2860,447,234,1441,-1762,-8545,-1987,1093,1418,-628,-20324,1141,1297,1454,181,1791,114862
-1661,-532,-123,284,-84,105,-1370,-334,169,623,-286,324,-251,140,110,-2770,406,190,1310,-1662,-8257,-1927,1035,1315,-562,-19976,1055,1208,1361,120,1641,114863
-1642,-512,-123,295,-81,112,-1349,-319,88,534,-464,325,-217,97,87,-2736,423,206,1294,-1617,-8143,-1896,1037,1307,-551,-19923,1053,1197,1342,132,1722,114864
-1636,-508,-145,286,-87,91,-1324,-283,65,515,-585,232,-379,95,48,-2726,411,198,1285,-1612,-8041,-1843,1025,1289,-560,-19925,1050,1181,1305,123,1708,114865
-1677,-517,-134,284,-96,79,-1338,-318,20,451,-542,268,-473,213,51,-2726,430,235,1337,-1636,-8017,-1766,1047,1331,-592,-20079,1091,1235,1335,152,1836,114866
-1789,-541,-106,268,-123,44,-1456,-326,234,576,-429,148,-193,42,54,-2806,459,270,1428,-1732,-8170,-1741,1072,1414,-694,-20482,1171,1297,1396,194,2095,114867
-1902,-564,-90,259,-157,23,-1591,-362,283,593,-633,153,-258,180,-2,-2918,477,307,1501,-1841,-8353,-1730,1078,1482,-799,-20955,1245,1331,1445,222,2209,114868
-1926,-575,-96,244,-171,15,-1653,-419,218,506,-629,219,-146,-169,4,-2948,472,302,1503,-1874,-8376,-1673,1072,1484,-834,-21197,1262,1329,1448,212,2178,114869
-1938,-581,-94,255,-174,8,-1682,-487,253,605,-539,228,-195,98,-22,-2979,471,293,1489,-1899,-8372,-1598,1073,1471,-853,-21397,1258,1325,1444,205,2175,114870
-1969,-598,-102,254,-186,-3,-1730,-403,314,673,-565,138,-198,68,-52,-3034,459,285,1498,-1944,-8408,-1551,1071,1484,-898,-21647,1262,1342,1446,193,2208,114871
-1980,-589,-103,250,-189,-5,-1698,-468,222,553,-627,138,-323,201,47,-3014,498,301,1558,-1915,-8353,-1450,1116,1531,-850,-21776,1285,1389,1484,217,2238,114872
-1951,-580,-113,254,-189,0,-1620,-554,193,493,-571,112,-368,111,12,-2973,504,303,1552,-1863,-8266,-1374,1108,1528,-802,-21814,1287,1385,1481,225,2211,114873
-1805,-556,-140,276,-142,39,-1455,-550,196,439,-590,256,-216,175,-17,-2866,474,266,1444,-1735,-7991,-1277,1074,1423,-688,-21561,1190,1323,1423,174,2019,114874
-1676,-521,-147,285,-104,85,-1324,-455,72,355,-507,262,-140,186,41,-2771,456,238,1355,-1615,-7724,-1221,1055,1329,-578,-21274,1092,1261,1357,129,1821,114875
-1575,-497,-172,296,-83,98,-1179,-470,64,346,-209,320,-205,335,16,-2668,440,213,1281,-1497,-7489,-1190,1037,1267,-474,-20965,1031,1208,1301,104,1640,114876
-1559,-487,-165,286,-97,100,-1158,-395,138,346,-346,343,-174,362,26,-2634,445,215,1289,-1438,-7477,-1278,1031,1282,-446,-20918,1052,1214,1297,128,1637,114877
-1558,-494,-172,275,-102,96,-1160,-120,108,286,-337,255,-301,285,8,-2629,420,206,1269,-1394,-7521,-1440,1010,1267,-423,-20894,1031,1186,1274,133,1550,114878
-1327,-449,-223,288,-57,124,-909,36,12,361,-425,372,-314,388,126,-2421,403,147,1138,-1163,-7135,-1463,988,1141,-216,-20248,903,1104,1182,84,1308,114879
-1245,-436,-240,277,-57,122,-815,-94,73,508,-251,421,-248,609,72,-2321,398,153,1078,-1026,-6997,-1587,969,1113,-128,-19922,875,1076,1144,97,1272,114880
-1148,-404,-262,287,-39,140,-684,187,-11,528,-174,391,-335,498,105,-2200,388,146,1028,-892,-6791,-1611,958,1064,-17,-19544,828,1042,1107,106,1139,114881
-1027,-353,-272,324,-8,165,-493,-10,-94,573,-177,436,-431,500,144,-2050,402,144,973,-745,-6500,-1559,952,1003,96,-19092,778,1004,1065,95,1021,114882
-944,-318,-296,333,5,158,-366,49,-12,435,-61,495,-550,511,170,-1938,406,136,925,-632,-6219,-1461,942,961,181,-18723,740,976,1029,87,940,114883
-820,-301,-340,317,9,166,-214,117,-115,456,80,607,-624,690,208,-1818,354,83,820,-513,-5752,-1220,891,842,274,-18195,621,891,927,21,699,114884
-671,-273,-332,319,45,203,-88,182,-149,445,42,608,-449,750,222,-1685,297,25,694,-426,-5253,-924,820,708,332,-17691,500,798,807,-78,470,114885
-619,-266,-322,298,63,224,-81,297,-30,410,194,578,-431,606,272,-1648,237,-10,573,-415,-4932,-697,753,601,298,-17442,423,704,706,-148,406,114886
-674,-285,-308,265,47,217,-215,313,-114,300,-206,575,-518,530,256,-1696,245,4,596,-471,-4838,-516,732,622,205,-17519,446,696,706,-136,531,114887
-799,-311,-268,254,6,190,-388,217,29,460,-248,464,-518,411,240,-1801,275,46,718,-573,-4933,-416,749,740,79,-17895,569,757,774,-57,744,114888
-773,-292,-285,260,-2,178,-326,213,11,508,-9,575,-202,504,249,-1765,268,36,714,-531,-4718,-223,738,714,98,-17778,554,741,753,-50,688,114889
-699,-293,-310,253,-1,169,-222,244,-213,533,47,676,-324,398,233,-1678,270,24,659,-443,-4405,-22,729,669,168,-17495,505,714,725,-69,589,114890
-626,-255,-305,269,21,187,-105,268,-179,591,1,607,-72,415,245,-1593,265,23,633,-354,-4087,167,714,626,249,-17175,471,683,687,-77,509,114891
-590,-252,-315,261,18,190,-46,375,-123,542,202,539,-129,539,227,-1531,248,-8,583,-301,-3852,269,674,579,276,-16933,432,640,636,-95,429,114892
-508,-244,-315,258,41,215,-2,480,-152,485,319,531,-349,657,302,-1465,232,-28,540,-231,-3624,341,635,532,311,-16646,390,599,594,-106,325,114893
-323,-220,-346,236,74,244,148,565,-167,305,496,532,-177,583,312,-1308,168,-92,398,-80,-3206,434,577,382,447,-16035,238,498,469,-186,5,114894
-78,-161,-373,249,131,287,390,745,-268,282,393,651,-274,584,283,-1079,110,-157,205,114,-2650,536,510,202,613,-15179,70,386,329,-284,-315,114895
27,-131,-379,256,141,289,478,785,-236,358,308,562,-391,724,243,-970,85,-176,120,211,-2383,517,477,125,663,-14687,4,327,251,-316,-404,114896
4,-131,-378,246,127,274,481,736,-106,527,270,564,-450,599,265,-928,117,-121,157,257,-2357,413,491,181,656,-14501,69,354,291,-249,-278,114897
-158,-163,-377,213,62,200,369,531,-132,528,369,570,-345,557,216,-1000,162,-62,274,202,-2657,141,507,312,560,-14719,202,412,380,-132,-21,114898
-101,-135,-368,235,72,210,488,509,-313,363,342,567,-231,614,217,-939,143,-90,235,257,-2626,-32,480,259,612,-14427,164,369,339,-140,-124,114899
-161,-128,-371,234,57,185,447,365,-220,343,286,503,-526,593,238,-961,142,-89,254,232,-2781,-276,483,268,559,-14427,192,363,342,-105,-7,114900
-97,-113,-381,247,69,190,511,542,-204,295,174,559,-558,618,251,-904,117,-115,175,283,-2690,-336,462,203,604,-14146,120,324,286,-138,-111,114901
-108,-124,-368,218,67,197,475,531,-234,180,161,528,-293,603,192,-874,113,-108,146,299,-2647,-378,438,203,607,-14003,118,310,268,-137,-116,114902
-43,-121,-367,205,80,211,500,575,-213,133,393,479,-327,714,317,-806,128,-90,163,347,-2490,-312,428,204,650,-13777,119,321,276,-111,-236,114903
186,-60,-387,237,136,244,746,544,-254,301,504,570,-238,611,377,-611,102,-136,52,514,-1947,-19,396,69,801,-13081,0,235,190,-176,-482,114904
457,3,-414,257,183,283,1032,723,-206,298,653,723,-207,592,397,-394,42,-208,-157,707,-1211,349,324,-139,958,-12163,-192,79,28,-302,-862,114905
526,11,-436,229,171,274,1112,875,-141,273,846,687,-130,581,374,-298,-5,-249,-260,782,-776,580,260,-239,975,-11644,-288,-15,-76,-367,-966,114906
446,16,-423,216,136,233,1045,702,-259,301,726,641,-454,732,327,-282,35,-191,-193,789,-637,744,286,-171,935,-11532,-221,19,-46,-305,-826,114907
301,-20,-414,186,93,191,908,679,-323,268,261,577,-417,678,268,-337,65,-155,-76,766,-673,826,292,-55,861,-11669,-105,72,39,-200,-603,114908
403,0,-403,192,120,225,1012,744,-275,234,562,650,-224,782,349,-220,62,-168,-103,897,-312,1020,281,-99,956,-11213,-143,42,5,-199,-717,114909
525,17,-443,176,129,231,1161,515,-420,295,779,641,-265,739,307,-93,-2,-214,-218,1020,116,1188,215,-224,1042,-10613,-261,-51,-95,-256,-962,114910
694,75,-444,196,186,279,1338,732,-418,260,825,700,-345,865,323,66,-36,-255,-340,1161,597,1362,150,-338,1152,-9928,-367,-136,-205,-301,-1197,114911
769,101,-451,190,191,278,1406,876,-466,223,834,749,-390,864,401,133,-69,-284,-380,1234,888,1439,102,-393,1187,-9451,-413,-195,-268,-313,-1290,114912
830,110,-468,169,197,280,1455,872,-449,219,872,752,-510,884,420,243,-58,-274,-405,1324,1161,1509,93,-406,1240,-8974,-435,-215,-295,-291,-1318,114913
999,142,-496,177,231,292,1662,949,-431,264,1098,771,-417,1115,475,442,-59,-281,-517,1491,1628,1649,88,-509,1371,-8220,-529,-281,-372,-325,-1545,114914
1145,182,-496,182,245,313,1833,1075,-384,187,1002,728,-362,1175,420,594,-91,-315,-648,1588,2014,1714,50,-626,1438,-7528,-632,-367,-466,-393,-1699,114915
1180,195,-489,169,239,310,1830,1168,-417,130,955,734,-494,744,387,611,-143,-359,-732,1569,2137,1641,-40,-695,1396,-7175,-689,-435,-544,-427,-1731,114916
1127,186,-455,151,221,293,1709,1173,-409,252,834,516,-576,554,378,591,-146,-334,-701,1534,2091,1538,-81,-662,1314,-7075,-644,-418,-533,-393,-1603,114917
967,152,-398,115,189,270,1484,743,-191,377,592,645,-422,700,370,517,-95,-248,-566,1431,1820,1371,-57,-529,1195,-7303,-492,-335,-429,-286,-1293,114918
894,143,-371,118,165,245,1383,678,-262,256,830,651,-351,594,365,474,-73,-225,-518,1346,1667,1249,-44,-486,1127,-7355,-443,-305,-407,-237,-1206,114919
872,125,-366,100,143,237,1335,788,-297,99,844,417,-270,468,318,466,-81,-248,-531,1299,1655,1184,-44,-502,1090,-7251,-461,-323,-425,-250,-1214,114920
789,105,-355,85,120,208,1233,640,-284,106,653,380,-163,356,315,398,-78,-236,-490,1218,1510,1107,-50,-451,996,-7359,-410,-313,-387,-218,-1091,114921
825,134,-343,107,145,218,1276,659,-237,241,772,548,-49,372,258,444,-85,-232,-487,1232,1595,1138,-65,-455,1016,-7174,-411,-316,-397,-212,-1113,114922
851,138,-348,96,145,223,1298,776,-177,128,825,556,-21,423,252,470,-117,-262,-545,1214,1676,1147,-109,-512,998,-6978,-455,-365,-443,-252,-1157,114923
712,83,-351,38,90,171,1158,794,-319,-73,639,349,-162,414,298,387,-106,-242,-493,1129,1513,1080,-114,-463,894,-7154,-404,-339,-408,-213,-1033,114924
791,100,-352,58,109,178,1226,639,-291,-153,734,406,-258,432,235,462,-110,-244,-488,1212,1695,1172,-113,-481,955,-6861,-421,-342,-407,-205,-1123,114925
866,112,-380,52,113,171,1310,725,-238,-53,786,318,-170,494,177,551,-121,-265,-556,1308,1942,1253,-148,-546,1020,-6438,-485,-403,-456,-227,-1254,114926
932,137,-393,60,125,184,1421,714,-423,41,826,339,-279,688,233,659,-111,-260,-605,1421,2208,1344,-144,-581,1089,-5995,-509,-437,-491,-230,-1396,114927
1085,192,-392,94,167,222,1614,654,-398,70,948,476,-298,527,293,835,-106,-259,-656,1604,2612,1490,-134,-640,1228,-5354,-570,-460,-527,-227,-1617,114928
1272,235,-409,87,211,247,1786,808,-411,18,938,512,-371,683,234,1020,-142,-306,-804,1763,3073,1626,-180,-770,1355,-4597,-703,-557,-631,-296,-1736,114929
1312,225,-414,54,211,256,1786,975,-378,24,877,525,-234,747,333,1050,-183,-345,-869,1785,3236,1612,-244,-846,1334,-4226,-777,-637,-716,-348,-1805,114930
1389,253,-414,55,225,267,1885,916,-478,47,976,491,-285,692,346,1139,-204,-360,-930,1882,3494,1662,-288,-907,1386,-3715,-833,-677,-766,-363,-1913,114931
1437,297,-379,88,248,272,1945,1018,-331,60,1076,581,-262,716,364,1234,-186,-329,-918,1945,3669,1685,-291,-889,1413,-3329,-811,-679,-760,-316,-1877,114932
1444,298,-384,89,243,266,1929,1172,-229,5,1023,599,-353,848,317,1259,-206,-338,-947,1949,3765,1676,-313,-918,1401,-3066,-820,-694,-788,-316,-1868,114933
1544,307,-424,77,242,256,2032,1105,-341,-49,1107,539,-429,827,356,1372,-230,-353,-1016,2023,4064,1764,-352,-994,1461,-2518,-892,-751,-856,-351,-2060,114934
1705,350,-445,66,251,250,2230,1139,-377,2,1125,544,-227,642,405,1538,-260,-379,-1137,2121,4497,1908,-395,-1113,1554,-1785,-1001,-829,-956,-436,-2282,114935
1789,366,-457,45,262,255,2340,1016,-297,109,1089,588,-268,630,413,1652,-298,-416,-1226,2165,4834,1996,-438,-1215,1576,-1191,-1089,-888,-1042,-507,-2402,114936
1691,334,-420,18,235,247,2166,1017,-319,86,1167,639,-459,666,344,1588,-281,-390,-1217,2052,4753,1946,-463,-1179,1452,-1189,-1053,-886,-1040,-484,-2199,114937
1346,263,-325,-25,169,198,1703,823,-306,-43,866,523,-357,492,315,1327,-208,-284,-981,1777,4108,1744,-414,-927,1152,-1994,-795,-740,-871,-312,-1620,114938
1234,233,-288,-40,146,195,1540,666,-269,-87,936,416,-286,267,229,1209,-234,-290,-942,1627,3907,1712,-452,-885,1034,-2235,-750,-728,-838,-283,-1586,114939
1224,239,-256,-29,148,194,1507,806,-228,-121,756,393,-201,446,250,1162,-257,-327,-950,1543,3907,1760,-481,-915,986,-2216,-760,-753,-861,-312,-1571,114940
1149,220,-269,-41,122,149,1433,837,-352,-161,753,394,-228,416,221,1135,-210,-279,-864,1485,3827,1795,-437,-836,951,-2281,-688,-692,-790,-251,-1422,114941
1133,216,-270,-41,112,133,1412,929,-286,-84,652,339,-111,389,251,1150,-180,-238,-826,1465,3835,1829,-413,-803,952,-2245,-656,-662,-754,-222,-1370,114942
1166,219,-271,-42,121,142,1432,828,-345,-81,555,331,-29,277,231,1185,-197,-254,-845,1468,3905,1850,-424,-832,966,-2090,-687,-675,-775,-240,-1453,114943
1357,251,-287,-21,168,190,1623,924,-330,-34,714,349,-116,286,229,1327,-249,-326,-986,1584,4270,1930,-465,-1002,1078,-1458,-842,-777,-889,-349,-1821,114944
1769,355,-338,18,268,278,2096,1056,-451,4,1130,598,-113,795,383,1685,-328,-430,-1317,1890,5145,2165,-551,-1306,1346,-81,-1134,-971,-1111,-537,-2444,114945
1877,384,-354,11,257,259,2209,921,-446,122,1193,715,-185,839,361,1794,-361,-457,-1435,1972,5398,2130,-612,-1405,1377,513,-1209,-1039,-1204,-606,-2503,114946
1730,369,-334,0,212,218,2076,1067,-303,-44,1073,591,-81,541,312,1726,-339,-403,-1341,1911,5168,1924,-594,-1298,1257,435,-1094,-972,-1137,-542,-2205,114947
1244,256,-263,-74,97,104,1528,749,-202,-195,771,298,-113,-48,213,1366,-239,-263,-1007,1612,4201,1452,-511,-955,901,-686,-771,-772,-900,-319,-1426,114948
1150,236,-227,-57,98,109,1414,418,-236,-183,450,155,-250,116,165,1280,-212,-236,-903,1561,3904,1283,-496,-853,851,-936,-697,-730,-824,-229,-1350,114949
1134,234,-195,-52,97,121,1384,583,-320,-132,518,121,-109,272,197,1286,-186,-220,-845,1576,3817,1198,-475,-803,863,-918,-646,-700,-780,-175,-1321,114950
1131,230,-217,-62,80,98,1383,661,-281,-135,606,177,-191,323,81,1311,-195,-224,-838,1599,3792,1136,-475,-808,874,-789,-652,-696,-774,-159,-1356,114951
1163,231,-224,-65,90,108,1383,790,-305,-183,422,143,-89,43,0,1331,-219,-234,-871,1605,3803,1096,-503,-849,876,-627,-681,-724,-792,-169,-1437,114952
1175,230,-223,-76,100,102,1396,816,-313,-156,385,137,26,90,148,1336,-231,-246,-871,1596,3827,1075,-504,-855,868,-489,-687,-726,-803,-172,-1514,114953
1516,323,-266,-22,193,173,1800,983,-348,-64,888,348,-191,270,274,1628,-263,-315,-1056,1839,4538,1370,-539,-1062,1135,563,-883,-847,-938,-286,-2049,114954
1877,398,-340,9,253,221,2222,907,-441,-55,1218,548,-324,615,375,1933,-363,-425,-1385,2048,5383,1677,-636,-1384,1344,1842,-1187,-1050,-1187,-512,-2559,114955
1967,417,-355,-5,257,217,2322,1064,-408,-82,1149,529,-211,523,381,2016,-424,-484,-1532,2056,5733,1798,-705,-1530,1333,2440,-1322,-1148,-1323,-630,-2671,114956
1771,370,-302,-54,197,163,2061,965,-434,-157,887,454,-100,365,303,1870,-423,-450,-1477,1861,5504,1730,-725,-1460,1115,2199,-1239,-1123,-1307,-623,-2270,114957
1150,247,-173,-117,67,49,1286,481,-244,-93,354,63,35,-29,276,1383,-284,-255,-1022,1395,4326,1397,-620,-982,631,546,-783,-831,-970,-322,-1200,114958
959,211,-115,-115,47,35,1053,499,-64,-25,394,-62,27,5,199,1238,-179,-146,-723,1278,3958,1481,-521,-707,566,-114,-547,-644,-736,-120,-962,114959
987,215,-130,-101,64,39,1121,653,-124,-108,618,132,86,23,180,1276,-168,-158,-728,1285,4112,1694,-505,-742,618,-6,-568,-656,-729,-129,-1089,114960
920,198,-110,-106,51,44,1032,323,-133,-82,461,90,67,-93,97,1214,-158,-141,-716,1208,4034,1741,-499,-714,547,-175,-542,-654,-710,-120,-1041,114961
901,179,-112,-114,44,40,968,458,-95,-208,427,-2,-157,-6,50,1185,-161,-138,-698,1162,3995,1781,-491,-702,529,-264,-532,-635,-686,-114,-1018,114962
950,179,-116,-110,62,59,1018,443,-264,-203,469,41,-92,13,78,1213,-199,-174,-746,1172,4083,1799,-516,-761,548,-97,-593,-674,-725,-160,-1147,114963
1380,266,-187,-73,168,149,1488,790,-231,-214,677,261,-135,345,138,1535,-299,-316,-1050,1451,4856,2001,-600,-1069,855,1117,-896,-864,-952,-358,-1889,114964
2102,436,-300,-12,324,284,2303,1304,-461,-93,1009,577,-152,587,287,2134,-432,-496,-1586,1940,6316,2391,-711,-1625,1340,3383,-1422,-1186,-1351,-719,-2921,114965
2155,470,-301,-12,320,268,2387,1196,-502,-101,986,563,-22,713,298,2240,-417,-468,-1637,1997,6494,2276,-710,-1650,1334,3946,-1433,-1184,-1407,-766,-2830,114966
1791,401,-246,-62,215,162,1991,840,-352,-180,770,368,-29,456,238,1997,-372,-362,-1442,1764,5781,1810,-696,-1403,1032,3275,-1190,-1061,-1258,-607,-2116,114967
917,216,-102,-162,19,-15,1007,209,-94,-322,202,-80,161,-39,70,1318,-212,-123,-866,1196,3963,992,-581,-776,402,1025,-589,-700,-811,-191,-724,114968
718,172,-59,-162,-12,-26,779,140,-57,-222,85,-203,-9,-123,20,1142,-159,-69,-641,1088,3358,711,-523,-575,329,343,-423,-573,-629,-17,-648,114969
732,178,-50,-134,5,-14,805,331,0,-268,279,-212,4,-56,52,1137,-155,-76,-619,1083,3218,616,-503,-565,372,298,-405,-559,-605,5,-723,114970
739,158,-51,-132,8,-10,781,184,-8,-258,204,-147,-220,-120,64,1118,-178,-115,-620,1052,3099,521,-505,-586,362,273,-432,-576,-609,-10,-800,114971
776,154,-70,-140,22,-14,796,185,55,-297,216,-142,-202,-158,74,1140,-175,-116,-644,1076,3102,494,-509,-608,392,375,-458,-589,-616,-24,-891,114972
774,148,-66,-138,21,-4,809,159,-34,-257,167,-151,210,-273,24,1156,-154,-103,-639,1078,3075,493,-493,-593,403,412,-449,-581,-592,-16,-847,114973
930,201,-56,-82,69,59,977,370,-52,-161,143,31,-12,-176,10,1255,-165,-147,-708,1147,3330,628,-486,-685,508,800,-539,-624,-641,-60,-1068,114974
1003,224,-95,-73,72,59,1074,384,-41,-84,191,88,-76,-42,131,1316,-203,-182,-769,1175,3558,760,-514,-768,551,1114,-619,-660,-716,-119,-1194,114975
962,218,-97,-89,58,34,1056,465,-54,-144,462,49,100,23,128,1307,-193,-156,-767,1151,3570,834,-512,-752,516,1117,-601,-652,-707,-127,-1134,114976
901,213,-76,-97,52,5,983,473,-198,-345,349,79,224,-40,82,1229,-206,-169,-758,1074,3489,879,-517,-740,432,961,-588,-661,-706,-141,-1046,114977
819,191,-60,-105,31,-5,867,406,-160,-333,395,-105,85,43,-63,1142,-233,-185,-753,993,3441,968,-540,-736,351,812,-592,-668,-717,-154,-992,114978
790,166,-77,-133,23,-13,807,343,-172,-267,257,-90,-21,75,-13,1147,-192,-143,-685,1007,3533,1183,-497,-678,368,775,-553,-613,-662,-130,-941,114979
833,180,-78,-135,41,-3,840,279,-134,-265,306,-54,71,-153,-27,1214,-157,-87,-645,1050,3725,1425,-456,-639,426,901,-515,-560,-621,-105,-922,114980
758,150,-62,-144,27,-9,738,89,-135,-311,346,-70,-94,-180,26,1141,-165,-99,-598,959,3624,1451,-483,-606,343,700,-471,-554,-605,-96,-855,114981
744,145,-66,-138,19,-17,734,285,-105,-215,236,-65,-15,39,-22,1092,-185,-134,-603,911,3589,1463,-506,-621,298,646,-490,-564,-625,-127,-894,114982
761,157,-69,-127,17,-19,789,242,-79,-146,74,-52,-3,-23,-49,1122,-192,-146,-655,943,3669,1474,-505,-668,323,781,-526,-596,-649,-164,-936,114983
562,127,-25,-142,-26,-47,583,41,-24,-193,173,-37,-11,-261,-45,1002,-120,-37,-494,840,3263,1264,-428,-480,224,314,-348,-464,-513,-27,-542,114984
447,89,-32,-160,-49,-66,455,-4,25,-319,-53,-111,-128,-109,-25,930,-91,-3,-395,772,2933,1047,-400,-383,194,36,-266,-399,-427,55,-437,114985
498,106,-13,-137,-9,-24,463,158,-136,-256,89,-87,-112,-142,84,947,-63,8,-366,785,2832,916,-344,-361,242,70,-253,-371,-390,83,-442,114986
495,75,11,-162,-4,2,397,106,-118,-271,113,-201,-152,-210,4,888,-86,-39,-406,720,2631,696,-377,-389,199,-29,-283,-384,-416,54,-462,114987
627,114,5,-130,42,42,545,212,-117,-218,237,-137,137,17,-3,975,-117,-69,-479,781,2727,636,-410,-466,290,291,-361,-431,-476,15,-695,114988
662,135,-29,-105,39,9,639,238,-60,-128,423,-161,40,-79,17,999,-163,-105,-565,769,2767,564,-441,-544,305,511,-439,-481,-538,-37,-817,114989
620,136,-18,-101,26,-6,608,475,45,-149,176,-45,-459,-121,60,936,-179,-129,-563,725,2621,435,-459,-536,255,438,-445,-480,-537,-47,-759,114990
603,134,-22,-104,15,-11,592,328,14,-200,224,21,-209,-29,79,943,-145,-94,-522,710,2554,388,-418,-488,259,409,-400,-445,-505,-8,-670,114991
591,130,-6,-99,23,-4,562,129,-15,-97,112,40,37,12,18,944,-133,-79,-518,688,2471,354,-397,-480,250,376,-379,-435,-483,1,-663,114992
579,114,1,-101,18,-23,508,-17,-37,-145,110,-75,-11,36,-33,882,-172,-122,-554,633,2378,298,-442,-519,194,308,-423,-489,-524,-44,-678,114993
284,57,51,-116,-53,-79,151,-152,-35,-205,-148,-150,27,-261,-125,613,-125,-40,-345,400,1760,74,-415,-299,-58,-540,-205,-349,-378,90,-138,114994
-152,-32,112,-152,-136,-151,-337,-425,65,-147,-233,-257,-7,-553,-192,280,0,95,45,147,861,-170,-301,87,-312,-1852,158,-96,-78,361,500,114995
-239,-60,127,-144,-133,-147,-436,-343,43,-49,-202,-364,197,-345,-150,227,74,167,209,140,635,-120,-203,225,-280,-2269,274,10,59,464,649,114996
-138,-34,95,-127,-100,-123,-288,-287,131,-128,-231,-335,57,-298,-82,322,83,158,174,238,812,56,-158,183,-147,-2134,223,-2,51,454,444,114997
522,97,-43,-64,37,-11,505,176,-206,-181,311,7,21,-10,52,837,-56,-60,-306,701,2205,663,-264,-323,348,-312,-275,-305,-301,113,-771,114998
775,151,-95,-56,84,29,799,358,-288,-145,263,67,16,166,138,1040,-155,-160,-567,858,2887,953,-366,-587,470,553,-500,-468,-510,-102,-1110,114999
729,142,-79,-66,61,11,735,120,-73,-80,189,39,-73,214,129,995,-177,-139,-596,807,2908,991,-401,-594,378,550,-497,-482,-549,-145,-959,115000
736,149,-71,-72,70,19,750,287,-56,-122,414,19,7,268,46,1035,-167,-126,-597,831,3009,1071,-393,-602,385,676,-506,-475,-552,-164,-905,115001
705,154,-51,-68,60,15,721,71,-204,-184,146,5,-12,274,108,1007,-145,-108,-561,809,2992,1086,-373,-563,345,655,-472,-447,-518,-139,-841,115002
698,158,-30,-50,66,25,694,12,-24,-129,77,-16,82,177,104,946,-162,-127,-554,778,2958,1047,-389,-562,301,641,-471,-460,-532,-151,-849,115003
296,75,39,-85,-21,-56,237,-148,57,-9,45,-270,116,-185,-28,615,-120,-51,-318,468,2127,659,-370,-306,-37,-424,-218,-326,-364,-12,-149,115004
-380,-90,122,-150,-175,-202,-515,-466,260,-33,-352,-559,148,-546,-157,77,11,127,145,1,644,63,-260,204,-475,-2388,239,-38,-7,326,794,115005
-433,-104,124,-137,-168,-180,-589,-556,265,-116,-444,-506,39,-648,-57,-6,36,144,272,-45,314,-59,-200,298,-442,-2813,305,37,102,435,745,115006
-73,-36,67,-90,-71,-95,-199,-388,192,41,-226,-258,119,-269,1,234,-25,31,66,181,859,115,-241,60,-147,-2023,63,-91,-40,308,137,115007
572,98,-27,-26,74,34,511,189,-36,-42,325,4,21,156,66,735,-146,-153,-377,587,2078,510,-321,-410,330,-257,-394,-374,-378,12,-855,115008
757,156,-41,-9,115,72,729,418,-98,-4,480,93,135,101,116,932,-148,-154,-487,708,2519,630,-320,-516,454,432,-467,-407,-460,-65,-991,115009
729,166,-50,-17,97,42,740,231,-118,-183,297,98,246,56,98,992,-90,-81,-431,735,2565,639,-260,-447,474,587,-386,-343,-401,-4,-852,115010
697,152,-59,-36,81,17,712,265,-53,-194,249,0,137,93,142,983,-96,-77,-490,703,2543,592,-276,-465,451,642,-391,-374,-430,-8,-809,115011
678,143,-62,-55,64,14,677,190,-176,-79,319,-77,-40,74,120,940,-126,-107,-543,666,2524,542,-325,-502,398,694,-434,-405,-478,-55,-800,115012
690,166,-46,-52,80,29,668,198,-175,17,236,6,48,-19,99,910,-166,-146,-581,646,2533,515,-376,-540,355,779,-477,-443,-528,-96,-876,115013
520,128,-8,-96,37,-12,481,51,-167,-118,151,-39,299,-100,133,797,-155,-109,-484,531,2245,405,-352,-448,224,422,-389,-391,-471,-49,-616,115014
391,90,31,-102,32,-11,293,232,-60,-79,64,-234,232,-43,-23,688,-109,-69,-342,465,1975,336,-289,-319,136,36,-276,-311,-364,42,-427,115015
362,79,49,-91,28,7,218,279,-72,-184,-74,-191,194,53,-35,647,-102,-57,-294,443,1858,343,-296,-280,120,-125,-235,-287,-324,79,-380,115016
427,98,33,-74,49,15,325,43,-118,-276,150,-238,169,54,24,718,-83,-44,-288,523,1999,458,-282,-280,198,36,-242,-270,-306,88,-473,115017
701,162,-25,-38,101,49,670,132,-66,-235,509,-146,150,-22,41,949,-136,-102,-473,744,2617,728,-317,-473,408,861,-412,-379,-433,-37,-860,115018
748,179,-61,-42,87,23,747,207,-55,-47,428,-26,15,8,56,1020,-153,-118,-545,801,2847,837,-332,-560,418,1172,-480,-420,-510,-101,-948,115019
699,157,-80,-66,61,3,692,193,-169,-40,241,-27,-105,-76,38,998,-146,-106,-535,782,2839,867,-333,-526,362,1146,-468,-417,-507,-106,-872,115020
739,182,-32,-46,90,41,706,173,21,-15,219,-45,101,-30,89,1010,-150,-105,-548,793,2904,900,-351,-542,359,1227,-472,-436,-513,-124,-905,115021
729,173,-18,-50,84,46,665,53,8,-140,295,-80,60,-28,121,986,-181,-129,-563,775,2919,888,-379,-559,328,1291,-483,-457,-540,-138,-890,115022
706,168,-30,-64,81,30,608,167,-66,-159,221,-78,61,93,77,976,-179,-124,-570,750,2894,873,-382,-563,312,1315,-479,-455,-543,-140,-847,115023
425,104,3,-101,4,-42,265,-116,16,-229,39,-187,38,100,-24,766,-126,-47,-408,536,2333,630,-347,-368,105,621,-301,-347,-407,-27,-370,115024
-53,-4,93,-143,-107,-132,-282,-443,135,-134,-224,-351,128,-323,-110,386,19,118,38,222,1276,248,-191,63,-187,-819,97,-62,-80,272,372,115025
-148,-19,125,-122,-95,-107,-335,-393,196,-116,-277,-418,118,-258,-191,284,40,135,139,164,952,126,-173,164,-194,-1253,190,-8,14,369,431,115026
69,41,89,-78,-36,-62,-29,-249,131,-121,98,-388,61,-178,-102,417,-8,65,10,288,1275,245,-203,7,-7,-798,25,-103,-90,282,38,115027
695,171,-21,-8,104,59,696,460,10,-16,508,-26,-49,164,130,911,-133,-128,-422,704,2499,696,-302,-448,464,936,-425,-370,-400,-6,-1013,115028
949,209,-77,-22,139,89,949,686,-206,-151,323,236,-102,258,139,1139,-201,-203,-676,862,3112,871,-368,-679,601,1866,-617,-512,-586,-167,-1279,115029
921,210,-74,-32,123,65,925,303,-175,-175,431,240,-185,279,87,1147,-192,-171,-670,850,3170,869,-364,-662,574,2017,-602,-501,-592,-158,-1161,115030
928,220,-62,-39,124,72,926,386,-176,-223,355,142,-264,270,123,1164,-194,-177,-674,857,3248,891,-377,-668,565,2197,-611,-513,-600,-165,-1163,115031
915,217,-56,-42,123,67,903,391,-204,-277,356,109,-173,112,95,1168,-187,-165,-667,848,3264,892,-370,-650,540,2271,-595,-497,-597,-158,-1101,115032
868,224,-35,-40,120,68,852,243,-78,-127,414,150,-160,109,61,1162,-168,-142,-639,831,3224,882,-362,-617,511,2272,-557,-478,-579,-135,-956,115033
567,144,8,-107,41,3,486,90,-62,-127,245,-23,13,118,1,909,-155,-85,-497,613,2648,638,-366,-453,255,1549,-400,-407,-481,-38,-560,115034
300,97,90,-113,-2,-36,163,-10,95,-127,136,-214,162,-136,-65,684,-67,19,-243,442,2040,439,-284,-198,75,705,-154,-251,-286,135,-116,115035
233,82,94,-103,-13,-50,111,-50,35,-244,81,-156,0,-223,-18,646,-15,67,-124,439,1869,425,-223,-95,91,456,-61,-163,-185,226,-77,115036
318,91,41,-93,1,-33,212,-64,1,-182,331,-208,-151,111,-68,717,-36,30,-171,509,2011,493,-232,-155,187,669,-124,-190,-214,202,-355,115037
685,150,-27,-66,86,37,614,179,-23,-95,251,-33,-52,301,-26,979,-125,-94,-450,715,2689,705,-308,-450,414,1669,-408,-368,-428,-12,-884,115038
775,185,-23,-63,104,60,731,306,-88,-131,190,48,31,29,-18,1042,-189,-155,-595,742,2903,714,-367,-609,415,2067,-542,-468,-554,-129,-1026,115039
774,196,-9,-50,103,61,706,248,-202,-56,161,15,-16,55,15,1042,-197,-152,-628,714,2886,652,-396,-607,356,2107,-534,-484,-585,-159,-942,115040
778,190,-24,-46,86,35,702,269,-136,-106,200,42,100,196,-8,1030,-199,-152,-632,694,2869,612,-401,-608,342,2145,-531,-473,-578,-162,-931,115041
722,182,-13,-45,74,20,682,266,-101,-198,436,29,107,0,56,1017,-175,-120,-594,677,2804,560,-381,-569,326,2115,-498,-455,-551,-144,-831,115042
723,185,-33,-58,70,-1,730,314,-116,-181,459,-28,-1,132,62,1064,-140,-103,-563,711,2852,585,-359,-545,374,2241,-478,-422,-532,-106,-792,115043
325,112,56,-85,-21,-72,282,67,-100,-245,-45,-186,143,-216,-90,753,-56,35,-265,428,2061,303,-277,-241,68,1194,-181,-231,-319,89,-63,115044
-354,-30,189,-133,-155,-181,-502,-435,108,-244,-499,-461,130,-562,-205,165,63,200,243,-42,593,-195,-164,285,-393,-893,302,68,58,423,898,115045
-455,-69,189,-146,-171,-183,-625,-394,184,-209,-534,-541,91,-629,-228,36,73,183,335,-94,270,-234,-148,349,-404,-1433,363,99,142,499,831,115046
-88,-5,107,-97,-83,-111,-230,-182,153,-38,-363,-288,326,-329,-150,328,50,104,181,200,951,132,-134,139,-52,-571,152,-2,43,394,155,115047
726,159,-45,-23,104,45,676,452,-119,-18,280,258,-85,116,11,986,-99,-111,-392,771,2634,810,-248,-457,554,1731,-416,-346,-369,24,-1128,115048
995,228,-69,-18,157,92,970,576,-268,-146,628,263,-84,280,93,1203,-200,-209,-699,908,3300,1021,-355,-730,657,2725,-655,-536,-611,-188,-1372,115049
954,227,-54,-34,146,75,923,317,-156,-194,292,149,478,202,61,1194,-188,-182,-698,891,3333,1025,-371,-708,596,2830,-639,-542,-619,-193,-1253,115050
866,215,-48,-54,119,47,838,375,-128,-254,77,-31,111,-13,-2,1145,-178,-142,-623,854,3246,1003,-362,-636,521,2755,-562,-480,-583,-160,-1093,115051
865,224,-36,-46,112,57,834,455,-143,-123,438,-44,-220,11,8,1152,-179,-149,-607,846,3288,1011,-361,-631,515,2847,-562,-475,-585,-144,-1065,115052
845,228,-12,-40,116,60,799,390,-98,-143,435,-1,27,-35,29,1136,-191,-145,-624,820,3259,984,-368,-620,477,2867,-545,-482,-594,-140,-1026,115053
723,193,11,-62,86,41,648,238,-67,-63,269,-54,-1,121,47,1033,-198,-124,-582,729,3034,868,-385,-558,368,2611,-485,-469,-565,-114,-835,115054
502,150,62,-86,38,-5,390,192,-9,-76,60,-120,160,-16,-71,874,-127,-35,-402,590,2577,696,-328,-364,227,2043,-297,-349,-407,20,-452,115055
479,139,40,-85,29,-20,359,62,-2,-202,-59,-117,-84,-149,-66,847,-115,-44,-355,574,2479,639,-315,-335,227,1949,-271,-322,-374,68,-464,115056
532,144,21,-70,34,-15,425,162,-3,-191,48,-56,113,-52,14,903,-107,-35,-361,617,2556,654,-307,-353,294,2117,-291,-325,-378,62,-586,115057
704,190,-11,-47,73,20,649,356,-7,-166,234,36,69,24,131,1061,-120,-70,-468,729,2888,742,-322,-471,427,2646,-398,-390,-453,-13,-825,115058
847,223,-15,-28,109,35,804,462,26,-141,396,121,110,128,94,1148,-169,-130,-615,759,3119,752,-375,-614,465,3082,-523,-484,-565,-118,-996,115059
818,212,-4,-51,99,27,765,340,-27,-40,444,-11,87,-61,78,1116,-201,-167,-678,685,3084,662,-410,-661,393,3128,-568,-534,-614,-160,-994,115060
824,225,-5,-54,103,23,760,301,-56,3,319,-5,76,-132,102,1114,-204,-156,-672,687,3097,651,-405,-648,395,3208,-570,-521,-608,-159,-1012,115061
786,201,-3,-68,92,20,692,301,-122,-57,289,-22,83,-180,76,1093,-195,-132,-646,655,3022,617,-405,-623,363,3163,-531,-499,-583,-146,-952,115062
831,221,6,-53,113,40,757,374,-130,-46,656,45,94,-36,133,1148,-162,-105,-620,692,3096,689,-374,-604,400,3296,-515,-480,-563,-114,-931,115063
683,196,33,-68,71,6,620,258,-4,-25,114,-54,42,-22,87,1028,-156,-73,-559,593,2848,601,-366,-518,275,3000,-439,-452,-519,-75,-700,115064
458,152,77,-92,34,-39,385,168,-25,-6,-32,-157,57,-30,-46,827,-141,-60,-425,446,2403,438,-353,-398,103,2395,-319,-385,-428,-6,-435,115065
408,127,68,-96,10,-60,328,50,-44,-113,12,-77,3,-18,-139,770,-162,-80,-388,420,2291,419,-368,-380,76,2236,-312,-385,-414,2,-466,115066
502,165,66,-63,42,-13,412,31,-20,-182,140,-2,94,27,-56,882,-121,-40,-364,537,2468,541,-311,-360,201,2478,-295,-354,-383,43,-534,115067
637,184,32,-67,63,17,557,113,1,-117,198,-34,-145,122,-54,1017,-106,-46,-433,674,2766,671,-289,-439,331,2900,-356,-372,-415,5,-708,115068
745,208,18,-61,94,47,663,259,20,-196,256,-19,-88,126,12,1103,-121,-70,-528,745,2979,736,-313,-511,392,3244,-439,-418,-475,-60,-813,115069
742,189,13,-85,84,43,632,103,-52,-79,242,-153,267,-120,5,1100,-150,-96,-577,729,2979,687,-361,-542,356,3309,-477,-460,-532,-92,-841,115070
806,224,32,-56,117,67,692,206,-72,-172,363,-37,332,-46,28,1146,-166,-108,-616,789,3102,699,-364,-587,392,3534,-507,-487,-547,-119,-915,115071
813,217,23,-60,103,48,709,31,-38,-270,399,6,130,191,25,1146,-186,-123,-631,800,3138,677,-381,-598,379,3645,-522,-505,-561,-130,-954,115072
824,228,18,-69,101,51,740,144,-74,-154,503,-69,125,-112,18,1184,-177,-99,-595,832,3210,693,-348,-596,411,3805,-520,-472,-555,-119,-966,115073
899,234,-12,-73,111,53,822,201,-79,-305,424,-77,11,-127,13,1267,-184,-121,-648,894,3399,756,-357,-650,481,4137,-578,-519,-600,-151,-1097,115074
885,234,-22,-69,95,20,829,279,-100,-306,99,36,-56,18,83,1265,-204,-130,-688,863,3420,736,-394,-676,447,4234,-588,-544,-634,-179,-1061,115075
843,253,1,-59,98,13,792,134,-7,-263,166,4,38,8,-17,1229,-205,-124,-678,804,3335,691,-397,-655,381,4171,-556,-530,-612,-157,-968,115076
786,226,6,-86,75,2,704,78,19,-160,60,41,84,-66,-50,1154,-225,-139,-683,717,3229,650,-436,-652,310,4082,-552,-555,-630,-165,-952,115077
759,227,48,-63,87,33,644,190,-55,-149,154,33,79,50,30,1105,-209,-123,-623,653,3125,661,-419,-600,274,3954,-505,-504,-599,-130,-871,115078
786,216,45,-65,99,45,639,177,-54,-187,228,-47,119,110,4,1095,-231,-135,-648,601,3134,720,-440,-619,254,3992,-538,-531,-607,-158,-868,115079
771,217,54,-77,104,38,623,192,-66,-160,212,-36,192,29,-46,1103,-201,-117,-600,577,3151,814,-395,-593,261,3989,-514,-493,-570,-135,-814,115080
696,208,67,-92,77,24,529,133,-73,-171,160,-95,30,-177,-44,1039,-170,-94,-538,518,3019,827,-364,-529,209,3812,-444,-448,-532,-92,-716,115081
602,175,52,-112,40,-26,450,85,36,-158,233,-122,-44,-166,-98,987,-167,-73,-513,459,2870,819,-367,-493,155,3628,-398,-427,-504,-70,-608,115082
594,175,40,-109,27,-38,471,86,-54,-264,329,-102,-84,-41,-39,1012,-146,-53,-472,482,2885,871,-332,-468,189,3641,-391,-400,-466,-55,-647,115083
778,216,11,-85,72,2,699,295,-67,-194,292,57,81,114,70,1177,-159,-83,-571,636,3275,1020,-345,-584,354,4198,-505,-462,-536,-122,-961,115084
1152,317,-16,-36,173,97,1106,568,-159,-100,727,201,153,169,120,1473,-218,-182,-826,913,4027,1244,-405,-846,601,5335,-739,-619,-723,-281,-1460,115085
1289,330,-44,-46,182,103,1245,671,-148,-238,841,235,247,278,122,1627,-239,-204,-962,1034,4387,1273,-432,-962,681,5947,-844,-695,-824,-366,-1558,115086
1219,314,-41,-77,161,74,1155,712,-218,-484,462,182,-42,167,94,1613,-220,-164,-937,1024,4319,1146,-414,-918,631,5989,-789,-665,-796,-336,-1382,115087
753,237,47,-108,68,-2,627,95,-160,-340,39,-24,100,45,4,1245,-139,-32,-606,715,3367,688,-366,-556,258,4776,-444,-457,-551,-115,-625,115088
584,185,60,-113,33,-46,444,-24,-23,-271,50,-241,202,-96,-67,1035,-185,-67,-538,574,2925,437,-410,-491,104,4258,-409,-455,-515,-78,-595,115089
626,194,64,-108,38,-33,462,112,-89,-149,138,-321,162,-114,-107,1002,-268,-157,-646,556,2903,339,-496,-598,84,4296,-517,-548,-607,-163,-761,115090
677,217,82,-89,56,-7,515,-98,-75,-143,191,-99,406,-127,-68,1057,-216,-119,-590,627,2967,344,-441,-569,149,4426,-492,-500,-566,-127,-734,115091
719,231,62,-80,69,-13,579,-13,-50,-127,86,62,395,-57,19,1141,-182,-90,-545,696,3068,386,-373,-547,232,4596,-469,-478,-543,-86,-747,115092
719,211,51,-95,55,-29,586,210,-30,-174,412,22,254,-42,-25,1150,-184,-92,-559,708,3099,388,-386,-554,242,4687,-474,-488,-542,-88,-793,115093
1001,284,22,-46,133,45,901,408,-3,-43,609,47,110,-115,-3,1378,-209,-141,-706,904,3637,618,-419,-703,450,5469,-622,-570,-637,-179,-1204,115094
1365,358,-66,-36,190,93,1342,638,-193,-161,931,136,29,224,97,1686,-312,-267,-1043,1134,4481,919,-523,-1044,676,6710,-929,-770,-901,-397,-1766,115095
1546,403,-91,-27,218,111,1523,686,-174,102,917,159,-42,179,45,1824,-354,-318,-1212,1217,4913,1073,-566,-1191,743,7393,-1067,-880,-1033,-519,-1955,115096
1513,411,-53,-26,218,105,1443,530,-139,107,638,211,226,-58,78,1802,-376,-313,-1236,1136,4912,1063,-590,-1201,641,7493,-1062,-902,-1064,-552,-1801,115097
831,267,57,-118,49,-40,669,55,-15,-128,214,-65,143,-584,-46,1275,-263,-135,-796,646,3630,626,-505,-741,123,5789,-613,-638,-760,-262,-770,115098
529,192,117,-131,-3,-82,345,7,30,-217,100,-255,92,-366,-47,1044,-153,-12,-492,455,2963,520,-402,-431,-11,4823,-336,-438,-499,-45,-380,115099
542,190,107,-138,3,-68,367,133,6,-315,184,-121,291,-38,-58,1030,-177,-43,-513,436,2932,597,-414,-475,12,4822,-372,-449,-509,-63,-465,115100
400,148,124,-146,-16,-85,199,-36,51,-303,-31,-140,160,-109,-101,891,-163,-20,-413,310,2599,530,-393,-380,-99,4361,-297,-388,-448,-10,-271,115101
389,155,135,-139,-12,-73,176,10,120,-131,-194,-153,294,-158,-107,862,-143,-13,-343,286,2510,562,-356,-337,-89,4208,-265,-345,-397,22,-237,115102
454,159,136,-120,10,-45,246,128,82,-76,-44,-191,305,-279,-99,891,-144,-32,-356,332,2573,615,-331,-371,-34,4304,-298,-367,-399,1,-375,115103
962,277,67,-61,147,70,836,555,-3,-140,434,50,253,78,73,1294,-207,-154,-671,708,3554,997,-386,-705,360,5664,-619,-564,-617,-191,-1257,115104
2045,514,-129,39,374,262,2081,1156,-285,-195,1291,397,-66,813,348,2197,-425,-449,-1490,1451,5846,1769,-603,-1541,1123,8940,-1405,-1054,-1220,-730,-2875,115105
2267,575,-169,31,401,267,2308,1177,-293,-280,1439,505,-187,580,314,2428,-512,-499,-1767,1576,6503,1868,-702,-1766,1159,10040,-1616,-1206,-1446,-943,-3034,115106
1943,508,-103,-30,314,190,1898,851,-379,-308,1093,387,-12,243,219,2185,-523,-442,-1672,1334,6002,1525,-750,-1612,803,9540,-1442,-1166,-1392,-884,-2416,115107
749,248,104,-165,32,-63,537,-24,-55,-341,236,-244,420,-407,-86,1228,-319,-133,-867,527,3671,557,-592,-769,-91,6430,-632,-686,-833,-355,-509,115108
390,171,177,-155,-26,-113,135,-349,202,-218,190,-318,368,-538,-101,943,-168,6,-421,361,2801,284,-435,-379,-238,5202,-293,-428,-497,-41,-125,115109
448,177,144,-133,-12,-94,214,28,113,-105,365,-271,257,-328,-68,989,-144,2,-385,431,2826,318,-397,-373,-125,5223,-280,-405,-450,1,-269,115110
526,188,128,-120,15,-68,322,181,188,23,451,-113,524,-406,-76,1059,-143,-16,-401,500,2958,372,-390,-399,-14,5387,-311,-405,-449,17,-412,115111
586,195,125,-126,26,-56,368,229,152,-68,347,-205,309,-242,6,1090,-168,-47,-462,526,3030,375,-427,-447,25,5530,-368,-445,-485,-15,-562,115112
641,197,95,-130,29,-55,426,202,98,-275,69,-327,122,-122,24,1129,-170,-52,-498,572,3127,411,-421,-481,90,5693,-404,-458,-499,-38,-639,115113
904,273,53,-73,105,2,741,332,-38,-221,74,-53,361,54,0,1355,-186,-103,-634,766,3649,629,-426,-637,298,6438,-544,-536,-602,-121,-1013,115114
1138,325,17,-69,158,43,1004,419,-257,-247,293,91,208,122,83,1546,-263,-183,-841,903,4172,807,-489,-852,436,7242,-752,-664,-767,-279,-1370,115115
1147,310,18,-93,151,45,1000,475,-224,-190,349,15,240,28,48,1549,-307,-222,-896,884,4263,813,-532,-906,409,7450,-804,-711,-838,-344,-1406,115116
1006,280,52,-115,102,16,839,326,-150,-187,251,-29,88,-184,4,1434,-281,-196,-830,767,4024,724,-531,-835,276,7172,-724,-674,-799,-309,-1125,115117
664,231,128,-128,27,-40,466,40,-42,-165,180,-196,81,-233,-46,1200,-172,-36,-568,568,3347,546,-432,-538,59,6275,-427,-484,-576,-92,-493,115118
530,201,133,-132,8,-69,314,-252,39,-242,187,-227,132,-146,-93,1085,-130,14,-435,505,3014,507,-385,-388,5,5854,-295,-396,-448,36,-365,115119
561,205,129,-124,25,-59,341,-145,72,-313,42,-189,43,-134,-76,1062,-161,-27,-441,495,2996,554,-412,-433,31,5894,-345,-430,-463,11,-497,115120
496,184,144,-139,10,-68,272,-83,32,-240,-30,-229,-14,-87,-83,1024,-151,-16,-387,441,2843,540,-387,-399,-5,5707,-313,-401,-433,23,-407,115121
501,188,154,-135,23,-56,267,-97,15,-153,-41,-221,88,-19,-29,1012,-160,-28,-390,424,2802,558,-384,-397,-10,5686,-315,-400,-435,22,-456,115122
496,180,154,-130,27,-41,254,-33,84,-172,-193,-115,17,-310,-54,986,-172,-41,-416,393,2751,550,-392,-410,-27,5655,-329,-414,-441,0,-468,115123
506,176,137,-137,20,-41,274,-76,51,-85,167,-195,-23,-332,-65,1012,-160,-38,-411,410,2767,565,-373,-413,20,5684,-331,-389,-430,3,-497,115124
