155,8,-89,73,64,45,311,256,-8,37,254,173,-168,273,107,38,5,-56,-9,164,-29,148,105,-17,333,-425,-86,32,18,-7,-315,206236
153,25,-86,69,63,42,286,290,-53,-74,166,216,-152,273,95,7,-46,-88,-85,109,9,116,40,-56,249,-341,-110,-13,-40,-66,-330,206237
156,37,-76,71,59,41,244,313,-32,-14,243,200,-69,151,146,7,-26,-61,-94,108,40,116,39,-52,227,-282,-100,-8,-35,-68,-233,206238
134,24,-80,54,45,29,182,210,33,186,270,202,-41,165,65,12,-4,-35,-56,100,32,104,52,-19,188,-274,-57,2,-17,-43,-142,206239
144,4,-76,32,42,28,182,45,-84,10,107,243,125,121,86,28,-35,-54,-90,102,106,123,28,-42,179,-157,-78,-27,-43,-57,-160,206240
-164,-61,-8,-11,-22,-14,-182,-200,-29,44,-190,-35,33,-160,27,-252,0,21,82,-160,-533,-149,44,132,-94,-1019,102,87,78,39,374,206241
-864,-173,157,-20,-135,-79,-1006,-487,235,2,-546,-431,10,-439,-102,-865,184,250,690,-726,-2224,-756,206,742,-623,-3385,677,476,547,424,1561,206242
-1048,-213,175,-14,-163,-102,-1205,-587,283,68,-705,-324,89,-463,-181,-1037,234,289,887,-842,-2772,-904,267,920,-670,-4235,810,597,729,576,1581,206243
-838,-179,123,23,-114,-68,-942,-359,254,213,-437,-121,79,-120,-168,-864,216,233,772,-638,-2402,-720,273,774,-425,-3827,682,527,662,521,1185,206244
-138,-49,-32,85,21,27,-110,-47,33,91,125,216,-170,290,40,-251,118,54,324,-30,-869,-103,203,286,164,-1778,209,232,311,230,60,206245
278,30,-106,91,91,83,399,212,-4,52,216,292,18,167,116,136,24,-67,-43,299,187,246,105,-87,412,-304,-124,4,6,-25,-507,206246
216,35,-81,76,71,57,358,421,-40,36,256,211,62,224,32,90,-4,-69,-97,223,145,167,64,-94,285,-296,-132,-25,-42,-61,-360,206247
175,34,-71,73,61,41,316,365,58,271,291,173,-63,174,120,57,-27,-73,-126,175,116,123,38,-97,216,-302,-145,-45,-70,-86,-365,206248
188,32,-71,54,55,53,303,289,-93,307,-9,126,-222,150,84,75,-34,-76,-123,183,176,136,42,-106,203,-186,-141,-41,-85,-79,-314,206249
166,27,-60,51,50,54,244,129,-136,32,131,147,-106,14,104,53,-28,-61,-104,162,112,104,27,-85,160,-220,-114,-38,-71,-73,-241,206250
94,22,-29,61,38,44,148,90,-131,43,10,44,-61,-83,35,-10,-3,-18,-35,89,-47,26,34,1,84,-434,-36,0,-18,-23,-73,206251
-191,-45,16,21,-27,-1,-167,-77,19,72,3,-148,-116,-162,-88,-252,37,44,144,-143,-647,-211,63,185,-117,-1261,141,114,118,90,409,206252
-378,-81,31,9,-66,-43,-364,-220,169,133,-178,-107,-66,-280,-58,-409,83,93,314,-270,-1090,-342,112,332,-219,-1893,276,225,250,193,599,206253
-330,-67,26,27,-43,-41,-286,-362,54,38,3,-11,-57,24,-64,-367,85,80,324,-224,-1020,-283,139,324,-125,-1863,262,229,265,201,448,206254
8,0,-45,56,24,12,95,-131,-35,135,297,139,-209,78,51,-81,37,-10,88,48,-273,22,96,84,161,-867,26,68,86,55,-91,206255
48,-5,-76,27,11,15,147,24,20,171,50,84,12,49,45,-16,14,-34,0,76,-78,86,62,-1,182,-581,-42,20,14,-7,-127,206256
44,1,-60,19,13,21,122,96,22,121,-22,37,-125,151,47,-43,-8,-30,-28,33,-66,83,33,-15,161,-571,-45,-5,-7,-29,-155,206257
65,5,-59,44,25,28,141,158,45,441,80,6,-126,63,-2,-34,-3,-24,-55,38,-15,101,30,-26,150,-499,-48,-18,-24,-38,-114,206258
92,25,-61,46,29,42,175,39,36,173,129,21,-181,-210,-9,-17,-12,-34,-55,60,60,150,32,-31,162,-408,-64,-25,-29,-46,-145,206259
138,50,-34,55,50,64,202,171,-159,75,-90,205,-124,61,79,31,2,-19,-46,96,165,185,36,-40,187,-275,-62,-24,-22,-31,-207,206260
64,21,-19,45,37,44,113,241,-70,-55,-26,172,75,57,25,-24,27,2,23,43,29,120,53,21,118,-446,-7,20,21,12,-55,206261
-101,-23,-7,23,-10,-1,-44,-32,-159,58,53,-2,50,-216,36,-165,31,8,111,-78,-322,-41,51,103,-8,-900,70,68,73,45,146,206262
-128,-19,-1,30,-20,-10,-21,-131,-40,-2,-73,57,-14,-71,-9,-179,26,13,114,-81,-378,-74,49,112,-29,-979,77,76,79,58,158,206263
-92,-5,-16,34,-20,2,41,-17,-13,-75,6,151,-94,-2,39,-146,8,-4,75,-36,-314,-69,28,77,-9,-879,56,44,54,46,138,206264
95,31,-31,48,33,32,241,178,-97,-94,93,214,-143,196,92,30,-2,-22,-21,127,64,83,20,-17,132,-350,-40,-10,-10,-2,-148,206265
196,53,-60,51,48,37,309,73,-46,-40,128,157,-215,290,64,136,-14,-24,-102,210,298,170,1,-88,179,3,-104,-48,-73,-35,-248,206266
168,47,-54,20,37,32,227,155,-85,-149,2,88,-125,209,47,108,-27,-34,-118,200,263,129,-6,-100,120,2,-113,-66,-90,-58,-230,206267
142,26,-56,5,30,23,184,168,-141,-135,-81,111,-23,39,-26,90,-25,-41,-109,182,225,98,-6,-89,96,-39,-99,-61,-83,-59,-171,206268
103,10,-58,4,12,5,151,24,-8,375,-72,90,-86,-83,-69,68,-10,-30,-96,153,149,56,-9,-68,58,-134,-82,-45,-69,-43,-159,206269
95,23,-40,27,18,3,162,45,13,-15,-168,90,-4,135,-1,98,28,14,-25,173,153,92,42,-27,86,-134,-30,7,-16,9,-88,206270
86,26,-36,18,14,7,162,16,-45,-85,-135,9,-17,187,-61,91,19,4,-19,154,163,89,35,-32,86,-122,-35,-1,-17,1,-88,206271
69,12,-8,8,20,29,107,114,-39,-49,-83,33,158,56,-31,37,-10,-11,-45,98,87,50,7,-46,44,-201,-52,-28,-40,-24,-54,206272
162,5,-13,1,36,62,158,48,-172,113,153,72,259,-134,-19,61,-88,-90,-164,131,250,91,-68,-162,69,47,-168,-125,-148,-116,-254,206273
256,42,-21,16,72,88,256,161,-328,50,277,126,147,-45,34,152,-88,-93,-209,205,491,186,-68,-210,141,378,-208,-147,-177,-131,-308,206274
62,-2,-17,-9,7,25,46,212,-31,-9,-22,-15,103,29,92,22,-21,-17,-60,60,140,68,-13,-48,29,-101,-54,-38,-54,-39,-29,206275
-11,-9,-13,-2,1,5,-8,37,41,111,75,31,225,40,64,-19,10,9,18,12,-5,42,17,21,19,-314,33,18,11,24,21,206276
-5,-8,-31,-18,-8,-1,-1,87,-41,339,-55,44,175,106,59,-39,-26,-33,-37,-18,-2,23,-41,-37,7,-308,-19,-44,-34,-16,-50,206277
7,-3,-30,-10,-8,-9,23,3,35,419,-224,40,54,11,63,-13,-3,-2,-29,9,59,66,-19,-21,44,-250,-13,-31,-19,0,-1,206278
58,15,-15,19,19,5,91,-2,-30,44,-37,66,56,83,72,40,40,19,3,63,161,133,30,-4,108,-123,-9,3,0,18,1,206279
7,-1,-15,2,-3,6,18,23,-87,-98,-74,-10,-15,-8,18,-22,0,-12,-3,-8,39,63,-7,-25,26,-262,-30,-21,-13,-16,-46,206280
-3,-1,-15,-12,-9,1,-3,-58,-33,-159,-39,-46,-56,-138,-52,-53,-37,-38,-53,-24,-8,19,-48,-59,-13,-303,-65,-66,-45,-48,-48,206281
-255,-49,37,-7,-57,-38,-244,-176,17,72,-187,-22,-168,-70,-104,-246,40,61,151,-208,-556,-182,17,172,-184,-1068,159,80,119,106,459,206282
-355,-53,57,6,-71,-59,-312,-200,67,-47,-359,-71,-57,-130,-26,-310,94,120,308,-243,-822,-247,84,301,-207,-1465,289,191,242,220,671,206283
-284,-43,30,18,-56,-47,-207,-56,-51,61,-276,-146,208,-165,-16,-266,76,73,291,-170,-719,-209,74,245,-138,-1363,235,170,210,192,458,206284
4,-5,-26,34,20,12,83,41,-83,-129,-61,64,73,-7,74,-44,21,-17,79,49,-125,5,35,27,58,-569,21,20,41,50,-50,206285
147,14,-46,16,42,46,156,51,-49,-153,192,60,-86,59,54,66,-19,-55,-80,134,174,111,-4,-93,108,-123,-103,-72,-75,-52,-293,206286
156,28,-32,21,35,45,136,-21,-60,-50,325,114,-143,89,31,93,-8,-24,-83,154,230,118,7,-86,101,-49,-94,-60,-73,-55,-213,206287
115,23,-31,12,20,4,108,-2,-2,193,332,96,4,39,66,84,-8,-15,-56,148,198,114,2,-68,81,-85,-54,-36,-56,-29,-159,206288
81,19,-46,8,7,-9,109,-27,15,121,226,182,6,-56,12,76,-6,-14,-23,138,191,101,2,-56,70,-106,-49,-20,-49,-32,-148,206289
61,23,-16,8,13,6,89,208,-19,-98,364,99,5,-177,-28,46,-19,-25,-13,91,147,65,-13,-51,38,-151,-53,-29,-50,-42,-125,206290
0,-4,-1,0,12,19,-18,129,-59,53,132,69,18,-223,-66,-22,-14,-24,25,23,-12,-2,-26,-13,-26,-353,-4,-4,-25,-24,-12,206291
-286,-60,43,-4,-57,-31,-345,-146,35,-30,-403,-18,-37,-129,7,-269,71,97,264,-209,-690,-241,50,246,-240,-1297,243,164,173,154,536,206292
-492,-88,66,2,-96,-76,-513,-381,202,1,-368,-67,22,-164,54,-448,123,157,423,-355,-1194,-398,110,413,-342,-2031,406,277,322,287,802,206293
-446,-79,85,29,-67,-34,-447,-286,168,96,-168,1,3,-281,10,-425,130,139,412,-321,-1187,-371,120,387,-269,-2073,382,270,328,286,681,206294
-124,-26,7,29,-4,22,-75,201,11,59,-145,236,219,146,28,-164,49,22,177,-55,-496,-96,56,122,13,-1143,115,93,145,126,28,206295
139,12,-43,21,56,57,174,179,-75,97,-76,173,120,285,85,52,-17,-56,-65,122,125,108,-11,-104,175,-271,-88,-54,-31,-35,-296,206296
103,2,-39,5,53,61,103,111,56,445,-85,86,78,109,-16,44,-7,-22,-63,94,92,86,2,-78,133,-271,-58,-35,-30,-22,-175,206297
77,-8,-37,4,34,49,97,78,78,238,-88,70,7,175,9,23,-16,-26,-42,57,62,57,9,-67,104,-287,-52,-32,-39,-18,-111,206298
121,18,-33,29,46,46,158,214,-90,-117,110,76,-12,476,67,48,-21,-38,-68,73,140,79,2,-88,141,-163,-79,-32,-57,-47,-205,206299
96,22,-32,34,32,25,134,165,-53,75,261,63,-106,291,61,39,-9,-24,-44,72,110,53,2,-69,120,-197,-52,-26,-40,-32,-174,206300
31,1,-35,7,10,25,45,52,-116,65,138,9,-106,87,8,-13,-5,-16,-17,10,-16,-3,-3,-38,50,-353,-19,-23,-17,-16,-29,206301
-358,-75,70,0,-54,-17,-401,-332,-74,9,-429,-112,-45,-4,-103,-378,55,80,254,-318,-931,-351,43,253,-280,-1622,258,159,207,164,668,206302
-412,-73,99,33,-35,-7,-423,-283,-67,92,-315,-178,-97,-43,-16,-434,105,125,381,-333,-1147,-371,108,350,-264,-1984,355,236,303,259,764,206303
-246,-40,48,46,-12,9,-192,-41,-8,97,-184,-99,-84,-52,-48,-255,112,100,317,-148,-765,-179,132,267,-62,-1535,252,204,250,221,442,206304
17,0,-24,49,21,35,113,216,-35,182,150,73,37,39,36,-7,37,-1,75,80,-120,55,75,29,146,-661,29,62,67,60,-161,206305
112,14,-50,28,37,38,189,256,20,96,137,210,-186,195,70,64,-17,-49,-47,132,144,129,21,-87,178,-278,-84,-24,-36,-33,-328,206306
129,7,-45,0,38,34,164,-24,-10,248,379,107,-16,54,57,66,-29,-57,-82,133,212,131,-20,-123,150,-171,-109,-58,-75,-63,-281,206307
63,-3,-44,-22,9,5,75,-212,-18,284,224,76,169,59,17,13,-37,-43,-73,80,99,56,-32,-100,63,-317,-73,-58,-69,-57,-125,206308
99,27,-41,21,24,16,95,-169,-47,282,212,142,154,86,93,48,-22,-22,-69,107,145,94,-13,-103,90,-248,-54,-56,-63,-46,-143,206309
84,8,-58,1,11,5,72,65,16,86,279,159,53,12,13,28,-50,-62,-122,81,152,66,-33,-143,57,-227,-93,-90,-106,-81,-209,206310
45,9,-25,19,18,27,72,110,55,83,304,95,66,66,50,26,-1,-21,-62,75,88,66,25,-81,51,-312,-40,-32,-47,-34,-80,206311
-64,-19,-24,19,-16,-6,-14,181,1,4,7,119,-187,136,29,-38,54,46,75,16,-121,6,69,36,7,-599,71,50,49,46,119,206312
-136,-13,8,25,-15,-8,-86,-115,-17,-7,-232,7,-239,93,-24,-89,101,95,184,-24,-308,-43,113,144,-20,-874,162,130,146,130,271,206313
-140,-31,-4,7,-15,6,-136,-140,25,-41,-261,-11,-120,-82,-23,-139,37,37,119,-74,-374,-96,52,89,-63,-955,106,74,87,81,197,206314
-6,-21,-27,8,17,40,-24,32,-34,-153,-19,-36,161,113,-38,-52,-31,-44,-16,7,-118,-13,-6,-51,29,-585,-23,-29,-14,-7,-3,206315
191,30,-43,30,44,63,206,164,-135,-237,226,192,7,213,8,133,-15,-36,-80,181,338,178,8,-125,199,35,-94,-55,-62,-50,-276,206316
158,29,-35,28,45,56,200,137,-126,-466,158,103,-192,53,-18,127,-3,-15,-41,156,304,163,18,-80,167,15,-61,-20,-49,-30,-166,206317
162,24,-35,15,40,43,194,103,-167,-589,-38,86,-173,29,-34,103,-49,-69,-107,129,327,150,-40,-148,134,81,-128,-87,-114,-90,-288,206318
135,19,-18,10,42,42,154,96,-105,-238,59,60,40,-6,11,87,-50,-69,-134,103,302,124,-45,-159,110,67,-127,-96,-120,-96,-245,206319
109,29,-17,9,36,39,146,143,55,-66,214,21,-65,-31,-48,96,-4,-15,-85,119,266,124,1,-98,121,19,-68,-52,-76,-45,-156,206320
130,24,-28,2,21,35,174,88,-15,-47,-11,22,-77,146,-55,126,2,-5,-82,146,330,155,10,-92,129,108,-62,-49,-70,-42,-143,206321
108,14,-16,-4,23,41,145,236,-87,-250,-70,22,186,101,6,99,-18,-9,-99,124,284,130,-4,-95,97,69,-68,-48,-74,-47,-123,206322
100,13,-9,13,40,52,145,161,-91,-77,143,85,115,11,41,91,-5,-7,-69,122,266,116,4,-90,104,40,-54,-36,-69,-38,-81,206323
125,25,-13,15,45,45,160,-147,-83,-47,-85,52,145,119,61,109,-1,-9,-39,133,301,133,16,-84,108,91,-54,-40,-55,-37,-106,206324
86,10,-8,1,37,39,69,-200,13,66,-176,-48,181,-9,-14,37,-40,-53,-75,54,183,65,-34,-107,41,-45,-72,-71,-77,-51,-44,206325
84,-1,8,16,48,56,8,22,-7,169,36,-59,112,6,-85,-25,-88,-83,-125,-1,87,-1,-65,-129,-12,-155,-100,-103,-118,-83,-83,206326
133,7,2,14,46,62,53,-4,-1,217,-57,-104,124,10,8,37,-79,-79,-134,50,211,57,-61,-151,27,0,-117,-103,-121,-84,-161,206327
141,17,-21,13,35,55,102,-57,-2,74,131,-45,-17,133,46,93,-33,-42,-85,99,293,105,-17,-119,70,96,-80,-61,-85,-53,-65,206328
119,17,-12,6,20,41,117,-62,12,-164,324,73,-98,202,94,106,6,1,-52,118,286,115,2,-72,75,89,-42,-31,-52,-22,-13,206329
94,15,-32,-8,10,7,116,68,54,44,131,32,-15,134,115,107,-6,-5,-70,121,288,111,-21,-82,79,99,-58,-46,-78,-29,-157,206330
67,20,-25,-13,8,0,76,75,203,26,306,80,-103,-38,117,67,-43,-35,-110,82,239,65,-50,-121,28,42,-92,-70,-98,-53,-97,206331
69,13,-34,-18,2,-11,74,151,30,8,39,108,-74,26,44,72,-22,-26,-109,88,258,85,-19,-115,33,82,-92,-73,-86,-52,-80,206332
117,26,-43,-5,8,-8,139,296,-24,34,236,94,66,131,29,146,-4,-11,-112,142,386,144,11,-116,105,259,-87,-66,-85,-44,-187,206333
137,21,-52,-30,-5,-16,134,260,-68,101,61,-7,99,84,12,152,-23,-32,-112,148,423,142,-28,-130,105,337,-102,-70,-104,-60,-270,206334
94,15,-35,-24,-4,-3,94,-45,-122,34,-181,50,122,62,29,119,-25,-32,-91,109,361,117,-28,-115,68,266,-82,-59,-98,-60,-115,206335
98,21,-16,-8,4,9,104,134,-98,-99,-58,40,-85,-91,0,122,-17,-13,-77,100,333,118,-16,-101,57,226,-67,-59,-94,-51,-69,206336
74,3,-15,3,-4,-5,79,37,-62,91,150,27,-145,-255,-45,100,-23,-11,-79,74,280,85,-29,-97,28,178,-76,-61,-89,-53,-66,206337
49,-7,-15,-22,-11,1,35,66,-21,133,114,-4,-177,-189,-47,65,-35,-38,-78,52,226,53,-46,-95,12,106,-83,-68,-87,-48,-134,206338
57,0,-10,-33,-9,6,19,69,59,-1,88,51,-162,15,-21,82,-21,-25,-59,62,251,69,-15,-84,45,132,-64,-51,-71,-35,-139,206339
57,-8,-18,-40,-9,-7,0,-2,-86,48,185,69,-93,313,9,110,-1,3,-52,82,277,105,16,-75,75,184,-46,-28,-54,-17,12,206340
195,40,-20,-7,35,19,113,65,-44,130,412,136,84,217,49,240,-1,4,-110,201,560,223,12,-120,203,553,-106,-57,-84,-35,-226,206341
612,133,-105,6,115,80,585,331,-37,-69,811,252,102,458,144,604,-85,-111,-415,540,1518,587,-84,-434,518,1893,-409,-252,-323,-228,-961,206342
701,139,-140,-13,115,79,738,489,-101,-10,775,168,-93,438,121,689,-148,-178,-563,586,1835,652,-149,-578,527,2412,-529,-366,-468,-358,-1076,206343
574,105,-106,-28,81,46,601,248,-81,65,437,158,-322,275,75,573,-148,-155,-532,458,1594,525,-155,-514,359,2179,-469,-347,-448,-341,-829,206344
145,32,-35,-50,-12,-28,132,32,20,79,-147,-71,-151,-45,-67,225,-52,-11,-213,138,696,179,-79,-190,45,986,-155,-133,-201,-133,-98,206345
-89,-9,7,-52,-60,-69,-81,-68,-39,-40,-256,-99,23,-193,-87,35,23,64,11,-9,164,-12,-8,16,-74,220,50,8,-19,17,238,206346
-51,15,25,-10,-28,-30,-34,27,-30,-2,-159,-58,129,-178,-55,44,32,56,34,5,139,-6,-8,22,-15,171,56,9,12,38,149,206347
11,16,15,7,-12,-5,28,182,-34,-316,-105,-83,164,-90,-54,50,-18,0,-28,19,198,4,-50,-50,10,274,-26,-39,-40,-8,-20,206348
18,0,19,-11,-12,2,15,218,-29,-340,-1,-149,244,24,16,36,-54,-27,-86,1,178,-18,-68,-84,-14,267,-63,-71,-75,-40,-50,206349
65,-2,23,-19,9,19,31,30,-4,51,99,-112,-57,23,22,41,-68,-55,-136,8,225,-11,-85,-124,-18,352,-104,-102,-116,-82,-106,206350
233,38,-17,-11,48,45,210,290,-3,46,237,31,-124,99,46,192,-85,-86,-221,159,594,147,-93,-230,128,865,-210,-169,-190,-139,-413,206351
768,142,-139,-2,139,107,831,543,-94,56,799,235,-155,284,74,680,-205,-271,-621,611,1890,628,-209,-669,528,2666,-625,-440,-523,-418,-1387,206352
1099,209,-213,-9,176,127,1192,855,-233,149,732,329,-217,550,203,1031,-258,-327,-912,888,2811,949,-279,-943,735,4020,-872,-619,-758,-603,-1812,206353
1122,218,-224,-35,151,86,1230,726,-217,2,736,337,-187,412,232,1124,-264,-304,-1004,922,3078,1021,-305,-990,705,4495,-909,-658,-826,-653,-1675,206354
311,79,-41,-92,-13,-51,318,-37,-100,8,181,-3,-214,-366,-51,448,-124,-55,-464,250,1377,330,-207,-406,-13,2217,-328,-291,-418,-308,-272,206355
-234,-14,75,-92,-111,-115,-296,-360,101,-19,-245,-321,-164,-380,-194,-71,-2,68,15,-195,14,-152,-98,60,-391,310,90,-17,-48,8,464,206356
-150,6,85,-58,-62,-59,-195,-105,84,-92,-28,-185,-2,-10,-112,-24,14,50,58,-122,84,-60,-67,58,-259,325,77,0,-16,37,268,206357
-107,-6,78,-55,-47,-27,-154,-140,49,-367,16,-218,101,-105,-94,-6,-9,34,62,-94,113,-24,-68,39,-192,327,51,4,-15,31,153,206358
-120,-25,65,-73,-47,-19,-176,-75,45,-11,-313,-234,107,-370,-113,-26,-36,15,41,-114,57,-47,-98,20,-199,214,32,-13,-22,20,145,206359
-64,-11,56,-47,-25,-17,-91,29,43,-6,-341,-156,29,-267,-88,19,-20,5,-12,-68,151,9,-92,-7,-126,325,4,-34,-50,16,77,206360
384,75,-58,6,63,27,447,255,-31,-37,249,138,98,151,13,405,-88,-128,-306,308,1134,391,-127,-334,277,1681,-327,-221,-280,-175,-815,206361
1777,343,-338,60,308,206,1984,1215,-257,-54,1431,677,-192,740,300,1614,-426,-574,-1408,1425,4378,1565,-414,-1480,1306,6257,-1416,-967,-1169,-918,-3106,206362
2057,394,-378,0,326,220,2216,1326,-456,-162,1534,672,-274,789,310,1914,-547,-659,-1847,1601,5344,1789,-590,-1827,1335,7838,-1696,-1233,-1517,-1213,-3354,206363
1675,321,-282,-77,220,138,1687,977,-319,-366,1069,455,-211,491,239,1622,-489,-515,-1677,1257,4680,1433,-581,-1574,910,7148,-1428,-1101,-1382,-1092,-2536,206364
318,83,-2,-171,-57,-64,162,-71,-8,-189,75,-206,-58,-326,-159,478,-213,-97,-674,157,1723,270,-357,-527,-176,3222,-430,-440,-610,-447,-40,206365
-363,-17,142,-130,-158,-154,-533,-449,86,35,-315,-434,98,-349,-186,-113,9,140,76,-319,-31,-296,-142,146,-536,776,192,12,-21,61,878,206366
-328,-30,105,-102,-143,-146,-442,-302,71,-52,-279,-308,16,-211,-106,-113,0,97,107,-270,-144,-290,-133,139,-412,587,176,14,22,90,598,206367
-252,-32,76,-79,-117,-132,-359,-285,85,-182,-349,-200,21,-335,-121,-75,9,88,87,-218,-122,-252,-105,114,-313,606,132,4,28,75,426,206368
-226,-31,73,-80,-91,-99,-317,6,72,-161,-393,-294,-159,-289,-103,-29,29,92,91,-171,-104,-211,-70,126,-239,608,127,22,57,88,374,206369
-224,-25,82,-73,-89,-86,-276,-199,156,-259,-219,-145,-3,-194,-71,-20,70,108,135,-143,-124,-186,-29,160,-194,533,161,61,102,125,417,206370
17,29,15,-41,-46,-60,7,-162,-58,-222,-194,-35,-120,154,-3,161,3,13,-48,44,366,17,-71,-44,-3,1182,-33,-67,-45,0,-96,206371
773,178,-122,-8,121,63,839,365,-245,-76,522,277,23,405,108,816,-176,-221,-626,642,2081,658,-222,-638,540,3557,-606,-446,-512,-378,-1429,206372
1588,319,-273,-11,259,179,1672,1067,-426,-130,995,576,-120,722,205,1571,-331,-419,-1270,1304,4086,1384,-373,-1272,1087,6407,-1202,-845,-1018,-803,-2628,206373
1678,335,-287,-69,243,150,1726,888,-387,-128,994,592,-360,797,180,1701,-386,-433,-1471,1341,4573,1480,-458,-1416,1006,7247,-1307,-954,-1188,-945,-2487,206374
304,103,17,-158,-31,-68,179,-202,-12,-213,88,-105,-152,-266,-61,537,-127,-14,-520,190,1652,317,-264,-397,-177,3305,-308,-318,-455,-335,-39,206375
-431,-27,160,-136,-156,-170,-602,-587,119,-195,-607,-332,88,-584,-181,-130,56,181,166,-355,-153,-274,-85,238,-633,716,259,82,67,130,871,206376
-293,-18,130,-114,-130,-135,-425,-408,29,-305,-389,-322,135,-279,-124,-56,28,108,123,-239,21,-147,-89,137,-454,817,155,24,40,100,453,206377
-284,-31,113,-113,-117,-113,-410,-283,61,-424,-157,-297,196,-192,-169,-64,22,91,100,-236,-36,-133,-100,116,-423,679,131,15,40,86,425,206378
-279,-52,110,-110,-103,-79,-416,-332,123,-7,-322,-343,159,-251,-135,-132,-45,27,65,-277,-133,-175,-152,65,-446,532,70,-41,-10,36,406,206379
-205,-46,96,-90,-72,-54,-340,-436,186,-114,-503,-238,119,-258,-144,-116,-75,-26,19,-251,-61,-142,-165,10,-392,594,1,-79,-51,-6,246,206380
95,34,44,-40,-1,-13,53,59,33,-184,-215,12,52,-74,-37,174,-74,-70,-116,44,592,148,-132,-157,-64,1461,-151,-151,-150,-78,-350,206381
1106,234,-169,25,180,114,1191,795,-220,160,792,464,-97,324,164,1095,-215,-301,-826,893,2898,1021,-246,-884,767,4709,-835,-587,-697,-516,-1958,206382
1541,315,-267,-7,233,142,1614,905,-273,-79,864,612,-32,433,296,1527,-344,-430,-1281,1216,4101,1376,-389,-1287,1010,6550,-1214,-848,-1049,-830,-2530,206383
1282,266,-200,-69,159,95,1257,547,-243,-42,683,353,-147,242,182,1317,-365,-382,-1246,957,3697,1096,-451,-1191,668,6194,-1087,-824,-1038,-825,-1907,206384
150,71,56,-136,-51,-57,-25,-185,28,-72,27,-154,-37,-302,-32,340,-151,-40,-426,18,1183,83,-300,-337,-261,2861,-247,-307,-411,-311,159,206385
-396,-43,149,-132,-158,-133,-597,-514,139,-120,-400,-333,206,-383,-133,-145,16,130,117,-384,-246,-387,-140,184,-556,895,224,21,32,73,797,206386
-391,-30,141,-83,-131,-117,-545,-375,98,-210,-379,-305,70,-278,-224,-143,68,154,220,-340,-416,-373,-55,262,-440,630,278,103,122,165,760,206387
-319,-22,125,-65,-98,-94,-446,-320,158,-58,-400,-284,180,-296,-226,-93,86,145,223,-267,-366,-309,-13,250,-328,661,245,112,143,172,615,206388
-284,-31,108,-72,-92,-92,-385,-225,94,-169,-385,-244,245,-338,-230,-81,88,128,224,-238,-349,-283,-9,232,-275,661,228,114,143,165,488,206389
-238,-27,97,-54,-81,-82,-346,-274,-86,-201,-314,-255,43,-268,-178,-70,83,135,221,-212,-327,-257,-4,221,-233,655,218,108,157,155,529,206390
-129,-23,58,-61,-58,-75,-220,-303,-47,-89,-263,-180,61,-111,-138,16,47,78,121,-122,-89,-161,-35,123,-146,954,122,41,85,90,200,206391
75,33,43,-37,-6,-2,-15,-111,-36,-49,46,-72,208,-108,17,170,-9,7,-52,7,336,-4,-87,-41,-27,1503,-38,-67,-45,-17,-182,206392
118,19,38,-45,-3,20,28,-66,-12,-132,100,-67,-115,-53,30,172,-72,-64,-148,9,452,18,-154,-141,-62,1668,-135,-151,-143,-111,-244,206393
220,43,32,-15,27,38,142,102,90,-124,108,-2,-136,83,-21,251,-84,-84,-218,77,704,113,-146,-218,-13,1998,-208,-200,-199,-160,-292,206394
-21,9,64,-57,-35,-20,-145,37,224,-55,-250,-184,-53,45,-156,47,-45,-18,-73,-110,209,-78,-102,-48,-239,1297,-42,-87,-78,-66,100,206395
-236,-41,91,-71,-72,-62,-378,-131,105,-9,-276,-277,254,-74,-129,-116,3,53,87,-255,-255,-219,-50,127,-379,584,114,23,60,59,380,206396
-192,-24,90,-49,-57,-60,-312,-290,74,214,-309,-126,279,-147,5,-72,31,68,118,-185,-183,-134,-16,137,-313,602,125,52,86,100,342,206397
-132,-7,77,-31,-39,-63,-237,-414,185,387,-261,-100,-7,-111,41,-19,47,68,103,-137,-74,-69,6,100,-265,695,105,41,73,93,313,206398
-126,-2,84,-17,-39,-56,-221,-237,133,-103,-66,-148,-10,137,-45,-30,46,65,113,-138,-89,-82,-2,101,-281,633,108,41,76,93,231,206399
-145,-15,64,-30,-56,-65,-198,-120,99,-119,109,-153,35,-163,10,-63,4,30,99,-161,-108,-114,-39,81,-286,574,76,23,57,67,170,206400
-172,-12,55,-20,-59,-63,-205,-29,78,-12,161,-175,-75,-183,-39,-84,16,40,141,-186,-195,-136,-22,114,-261,461,103,57,84,86,191,206401
-81,0,37,-5,-29,-50,-96,-128,153,221,-31,-74,-69,-154,-100,6,7,14,73,-100,-13,-72,-28,44,-162,734,42,13,44,51,44,206402
-174,-36,68,-40,-68,-63,-249,-189,187,171,-184,-181,216,-118,-107,-96,-2,30,104,-191,-248,-183,-35,95,-240,451,91,49,73,67,211,206403
-200,-48,55,-44,-76,-63,-272,-111,107,51,-114,-150,311,-207,-110,-112,15,35,132,-204,-318,-203,-12,124,-211,354,108,71,98,86,251,206404
-189,-36,37,-49,-71,-68,-234,-12,-28,-25,72,-35,83,-5,-83,-86,37,62,142,-166,-304,-189,10,146,-161,381,128,91,117,92,168,206405
-208,-31,49,-53,-63,-61,-232,-56,-13,-141,-46,-65,264,-24,68,-85,71,96,190,-157,-351,-187,41,190,-150,313,169,120,168,123,307,206406
-181,-28,51,-47,-33,-33,-197,-49,33,26,-74,-54,68,-42,44,-57,80,94,192,-123,-304,-144,66,195,-90,371,157,131,167,121,282,206407
-125,-16,60,-37,-14,-12,-180,-13,-68,79,43,-125,-27,59,3,-58,35,44,118,-130,-242,-137,22,119,-76,461,92,61,105,77,111,206408
-132,-8,69,-6,0,2,-240,-38,-4,274,-212,-114,-85,-91,-70,-114,2,14,94,-186,-321,-183,-22,86,-133,358,79,31,74,45,92,206409
-149,-6,70,4,5,9,-250,-106,-41,173,-278,-147,114,21,-78,-120,28,33,128,-185,-361,-185,15,134,-129,277,116,72,118,76,176,206410
-166,-33,48,-7,-31,-20,-221,-224,-67,-44,-353,-119,274,76,-128,-108,54,50,157,-178,-391,-170,41,171,-122,229,139,96,138,91,221,206411
-312,-70,86,-3,-55,-41,-394,-363,56,17,-336,-144,157,-84,-111,-256,78,99,270,-308,-754,-314,64,285,-255,-301,258,169,227,162,509,206412
-699,-144,180,-18,-105,-76,-831,-748,127,-176,-697,-375,13,-310,-259,-663,109,171,540,-655,-1717,-685,101,546,-587,-1676,515,332,420,315,1115,206413
-753,-140,202,18,-98,-60,-844,-445,92,-52,-522,-462,146,-262,-146,-704,159,203,651,-664,-1928,-710,161,637,-560,-2085,594,408,530,413,1115,206414
-200,-33,80,66,1,4,-206,39,60,-47,-15,-140,238,129,22,-217,84,71,307,-188,-733,-211,116,264,-70,-516,210,187,278,211,121,206415
12,-5,1,39,15,12,32,-94,16,-29,292,15,103,171,83,-13,7,-10,69,-20,-143,-33,37,26,32,306,-3,37,78,41,-151,206416
-25,-12,17,24,6,-6,-31,-63,68,-31,63,-31,145,95,55,-26,15,9,60,-50,-191,-71,43,55,-48,233,43,41,79,40,-8,206417
-61,-5,49,30,6,-20,-70,-67,69,147,57,33,110,197,39,-34,61,63,126,-58,-267,-93,102,116,-87,120,115,97,133,88,143,206418
-51,5,32,32,-7,-23,-9,-116,42,205,39,-2,29,-23,109,-2,73,60,124,-22,-195,-65,110,100,-72,220,89,98,115,96,99,206419
-86,6,49,32,2,-7,-41,-61,87,101,75,-72,54,-51,14,-50,51,54,153,-58,-285,-122,85,124,-119,80,105,98,119,95,43,206420
-191,-39,59,-2,-23,-3,-177,-76,91,2,-117,-133,-106,-21,-29,-164,39,51,180,-174,-520,-227,57,160,-219,-244,160,115,143,100,262,206421
-668,-141,146,-36,-104,-55,-732,-459,100,-59,-745,-388,46,-321,-71,-598,130,179,514,-573,-1630,-646,145,518,-572,-1794,503,343,420,312,1118,206422
-866,-191,177,-24,-135,-88,-1008,-579,119,-184,-856,-390,173,-475,-232,-823,180,227,727,-755,-2240,-831,196,713,-685,-2716,646,463,585,444,1321,206423
-781,-154,179,25,-86,-50,-941,-362,131,57,-605,-368,252,-409,-200,-794,185,202,731,-696,-2203,-761,202,696,-547,-2754,619,461,597,450,1174,206424
-183,-39,70,73,36,45,-275,-56,54,-85,-74,-77,226,16,51,-285,65,33,308,-197,-911,-238,124,254,-31,-1036,217,197,283,190,101,206425
107,19,3,69,77,79,44,84,48,-122,192,157,-148,67,13,-2,3,-44,28,35,-132,47,76,-4,161,37,-26,38,63,2,-308,206426
39,-4,-14,35,30,41,-7,2,114,-10,108,156,-205,14,36,-22,22,-13,37,-3,-156,32,84,24,92,34,9,47,63,10,-153,206427
-12,-6,-7,26,19,16,-10,30,132,-55,91,54,-228,70,159,-29,74,49,108,-8,-186,41,136,102,87,-45,88,109,122,69,87,206428
-48,-13,-5,32,7,2,14,-71,28,-248,-121,-50,-77,55,49,-66,58,30,123,-46,-241,1,111,102,46,-103,81,96,112,49,114,206429
-43,6,-22,36,-2,-4,29,24,-116,89,-144,-18,206,24,-31,-67,34,23,93,-49,-238,-13,83,81,41,-83,61,76,94,38,11,206430
-166,-25,13,23,-29,-20,-127,-151,-52,140,-96,-75,81,-100,24,-166,63,66,151,-143,-485,-113,91,162,-62,-433,152,126,153,89,236,206431
-543,-105,89,0,-108,-86,-542,-370,21,124,-438,-252,-14,-179,-69,-486,138,175,431,-439,-1333,-438,165,458,-329,-1612,434,308,377,273,923,206432
-1006,-184,187,6,-189,-145,-1023,-755,204,-31,-570,-263,5,-420,-153,-912,232,289,812,-814,-2469,-854,264,825,-652,-3236,774,554,672,514,1590,206433
-1137,-214,229,39,-174,-126,-1200,-693,324,39,-816,-269,109,-517,-185,-1103,261,307,974,-941,-3013,-1024,295,958,-730,-4091,874,629,800,614,1736,206434
-324,-87,53,102,1,16,-307,-172,66,137,-143,103,29,21,26,-433,108,49,438,-273,-1347,-351,180,371,-50,-1873,293,270,388,272,298,206435
121,6,-28,104,85,88,195,167,10,124,308,213,105,271,126,-10,20,-41,67,85,-240,29,103,10,239,-330,-22,60,89,26,-283,206436
11,-17,-21,64,42,47,68,108,114,-256,64,101,32,139,67,-103,10,-28,38,-23,-395,-93,81,30,71,-493,0,44,74,23,-69,206437
23,-4,-35,60,29,22,96,195,-129,111,24,53,-163,250,139,-83,2,-32,-9,-2,-325,-90,76,0,43,-371,-12,18,45,-7,-83,206438
33,9,-45,66,26,-3,137,89,-181,97,60,131,-179,531,79,-27,48,15,46,37,-230,-31,114,52,86,-253,32,77,74,34,1,206439
39,-3,-39,50,20,-1,121,88,-39,58,176,95,155,243,12,-8,53,20,77,52,-191,-15,119,56,80,-179,35,99,90,40,-51,206440
-227,-55,30,23,-26,-19,-235,-256,23,244,-19,-126,64,-54,29,-243,90,102,218,-183,-786,-252,124,244,-186,-1001,231,195,218,139,559,206441
-1020,-216,180,-26,-180,-125,-1141,-755,230,134,-731,-411,88,-475,-200,-977,230,305,793,-852,-2650,-947,243,846,-799,-3617,788,557,663,506,1776,206442
-1264,-257,224,-8,-207,-142,-1348,-737,326,211,-835,-473,82,-516,-251,-1217,300,363,1074,-1022,-3355,-1139,338,1068,-869,-4711,999,713,892,689,2015,206443
-1210,-234,211,47,-159,-106,-1201,-668,174,148,-675,-278,172,-334,-169,-1166,345,381,1160,-924,-3343,-1042,400,1113,-692,-4841,1025,775,970,762,1809,206444
-252,-69,-1,124,30,38,-99,40,-41,-6,45,97,43,257,-35,-358,170,93,491,-137,-1274,-211,280,399,112,-2108,328,324,447,338,45,206445
258,19,-103,104,107,96,425,425,-124,211,254,228,-119,161,47,87,18,-80,-63,216,1,208,126,-86,393,-337,-120,4,29,-27,-574,206446
258,17,-89,70,98,86,368,364,-76,-68,-85,212,-116,-3,32,92,-21,-97,-135,174,110,199,75,-138,298,-135,-159,-36,-39,-102,-491,206447
128,13,-35,73,80,95,199,158,-10,90,-62,80,-10,49,12,-20,-32,-70,-68,58,-105,90,46,-71,150,-399,-74,0,1,-68,-268,206448
125,10,-30,62,74,91,183,19,-18,166,97,157,-39,177,57,-14,-25,-58,-62,67,-67,90,47,-54,145,-342,-63,-7,-4,-57,-193,206449
120,-5,-47,49,63,66,168,176,45,151,-34,56,-116,187,133,-30,-46,-79,-85,50,-54,71,28,-68,119,-295,-77,-26,-39,-74,-177,206450
-20,-20,-11,41,37,47,-18,222,108,63,-28,11,-84,-98,70,-161,-9,-34,25,-85,-373,-78,48,42,-16,-724,27,46,38,-10,101,206451
-402,-92,61,24,-34,-13,-438,-72,147,50,-256,-196,-150,-205,-76,-483,69,90,286,-379,-1235,-401,117,331,-291,-1914,305,223,265,182,750,206452
-777,-154,119,19,-114,-87,-807,-455,202,-8,-446,-344,89,-296,-149,-794,169,216,609,-651,-2117,-700,209,646,-512,-3181,604,423,529,402,1403,206453
-923,-181,134,35,-137,-101,-915,-533,220,38,-396,-348,296,-310,-105,-914,238,266,802,-711,-2532,-791,295,821,-524,-3851,742,556,690,534,1464,206454
-254,-67,-5,87,2,11,-161,160,114,234,305,39,-20,-28,91,-345,121,59,358,-151,-1111,-222,211,326,60,-1958,255,253,329,240,158,206455
147,-1,-65,73,75,82,233,214,-71,128,276,135,-213,112,79,-12,3,-71,-15,117,-170,90,87,-35,286,-618,-75,20,33,-25,-421,206456
104,-12,-57,54,68,69,134,238,-24,121,42,111,-156,92,3,-61,-7,-60,-18,58,-233,29,71,-15,190,-647,-53,24,21,-34,-197,206457
133,8,-50,75,74,79,175,436,-59,127,13,119,86,32,80,-7,21,-24,3,104,-136,73,113,30,215,-505,-14,54,50,-1,-160,206458
106,-9,-74,52,43,42,185,209,-176,-22,238,273,60,160,116,17,29,-9,-22,119,-68,99,111,19,205,-401,-15,47,47,-6,-163,206459
82,0,-47,50,34,30,138,170,-191,39,275,184,34,170,148,2,29,-1,-29,94,-87,73,102,16,166,-394,-20,38,31,-14,-79,206460
-138,-40,5,28,-6,3,-138,36,45,121,-71,2,48,-116,63,-210,35,37,94,-107,-578,-142,80,147,-71,-1052,119,112,113,57,303,206461
-581,-129,102,7,-85,-56,-635,-416,124,-66,-419,-278,-11,-243,-75,-614,136,163,465,-470,-1613,-524,178,505,-413,-2540,455,341,398,300,1023,206462
-692,-142,122,28,-87,-60,-723,-463,140,69,-475,-202,-87,-234,-128,-714,200,221,627,-540,-1980,-608,254,653,-442,-3129,592,441,538,422,1133,206463
-643,-146,83,31,-84,-53,-617,-318,120,93,-360,-120,12,-44,-53,-671,201,203,616,-474,-1911,-550,265,618,-359,-3126,553,431,541,408,913,206464
-73,-40,-42,77,39,39,44,-78,-29,127,-92,105,-28,221,106,-187,87,10,208,-21,-673,-64,185,197,108,-1470,124,169,219,148,-76,206465
203,15,-87,86,91,84,331,157,-127,176,189,53,56,99,54,31,-23,-87,-75,159,15,137,69,-84,240,-505,-126,-18,-20,-56,-429,206466
178,14,-77,80,76,81,292,183,-181,-10,212,1,2,195,102,1,-57,-102,-129,114,46,98,15,-119,155,-435,-142,-56,-68,-97,-372,206467
131,5,-72,53,54,62,221,3,-166,111,75,141,54,32,146,-23,-56,-93,-141,73,-9,53,-7,-104,95,-466,-119,-59,-85,-101,-306,206468
74,-11,-58,31,33,54,125,-91,-38,109,237,68,148,238,91,-51,-28,-46,-74,36,-107,20,38,-33,55,-624,-55,-3,-29,-47,-143,206469
61,-2,-25,35,32,51,125,22,30,16,345,101,42,140,79,-14,-1,-21,-32,72,-76,56,78,-16,95,-577,-29,20,3,-13,-151,206470
22,1,-16,37,25,41,80,55,48,71,219,169,-80,-131,36,-53,0,-10,-11,40,-142,17,72,9,61,-650,2,37,25,4,-42,206471
-104,-19,3,40,-1,-12,-66,-45,161,83,-73,56,-25,52,-14,-167,31,36,105,-62,-452,-92,105,127,-27,-1076,115,115,104,77,250,206472
-123,-22,-2,26,-4,-6,-94,95,110,262,-10,15,389,-94,75,-177,53,49,129,-74,-515,-107,120,153,-28,-1179,129,130,126,104,252,206473
-157,-32,-1,10,-14,-5,-147,-156,-20,145,-20,-11,191,-2,44,-209,72,69,159,-101,-607,-135,132,184,-37,-1315,160,147,149,123,277,206474
-5,-15,-9,34,26,34,7,-215,-173,231,127,-21,-109,174,86,-86,57,47,76,25,-315,-4,116,92,102,-929,76,91,95,76,86,206475
80,-2,-32,26,42,41,104,-19,-50,234,-13,62,-162,41,90,-20,6,-20,-26,83,-81,72,58,-14,165,-575,-24,15,2,-9,-110,206476
31,-1,-22,9,37,45,69,98,-70,220,120,152,-23,220,44,-21,6,-7,-8,68,-89,74,56,5,160,-567,7,26,13,-4,-85,206477
27,-13,-44,-5,16,31,98,32,-181,86,99,155,68,232,40,2,17,7,8,98,-23,104,46,20,194,-473,4,34,22,4,-124,206478
50,0,-44,19,28,37,113,84,-178,-85,-44,47,14,155,-20,4,7,-7,-26,92,1,112,49,5,194,-424,-21,14,11,-20,-130,206479
-6,-5,-27,29,27,34,30,-4,-117,-51,-252,-73,65,99,-36,-72,-10,-17,-33,22,-152,40,42,14,109,-598,-3,3,9,-26,10,206480
-53,-16,7,26,20,26,-16,-129,-131,-94,-370,-9,108,-35,12,-115,15,15,32,-14,-277,-11,70,66,48,-771,48,39,45,21,160,206481
-531,-112,75,-16,-103,-73,-527,-529,-17,-95,-490,-180,61,-173,-143,-516,115,151,397,-391,-1329,-412,148,432,-326,-2244,392,275,324,244,936,206482
-536,-97,55,27,-96,-76,-480,-472,27,-21,-167,-129,-81,116,-63,-489,176,186,502,-342,-1406,-386,222,511,-251,-2435,463,346,427,332,904,206483
-380,-67,29,59,-51,-46,-276,-280,150,-26,-58,27,-255,86,-32,-360,158,150,398,-211,-1131,-270,218,409,-124,-2085,369,301,366,289,561,206484
-83,-25,-26,66,17,16,20,71,45,26,-10,123,-97,37,1,-159,62,23,140,-15,-537,-64,137,143,45,-1270,97,123,152,116,39,206485
110,0,-24,72,65,58,165,173,9,-71,159,204,-121,84,80,-44,-27,-81,-48,59,-140,29,49,-45,107,-714,-79,-20,-23,-36,-227,206486
90,-4,-26,71,38,37,138,76,48,-41,144,187,85,139,50,-77,-49,-82,-62,18,-155,-16,26,-61,46,-723,-85,-35,-48,-61,-229,206487
81,-8,-63,45,20,11,161,219,-35,-10,104,225,-12,2,-38,-34,-42,-66,-90,47,-69,-1,22,-75,58,-595,-84,-36,-55,-64,-217,206488
81,9,-56,43,24,11,170,118,-56,84,359,263,55,-45,37,5,-12,-31,-80,77,-25,29,51,-51,84,-538,-49,-3,-32,-28,-170,206489
63,2,-46,23,12,4,130,57,77,-243,191,166,-93,-157,65,-35,-27,-58,-86,36,-75,-3,25,-70,43,-585,-58,-28,-54,-37,-140,206490
-95,-24,14,18,0,-2,-76,-26,67,-14,-63,10,36,-51,5,-169,8,4,39,-92,-422,-138,54,53,-85,-1070,59,51,37,34,217,206491
-384,-78,46,-13,-70,-52,-371,-266,61,-72,-147,-35,50,-219,23,-409,52,75,244,-306,-1055,-366,96,266,-258,-1964,247,187,203,170,535,206492
-324,-59,17,0,-51,-42,-267,-183,68,35,75,87,124,-46,84,-324,91,98,269,-213,-934,-268,134,278,-124,-1846,262,210,246,213,461,206493
-410,-99,10,-23,-76,-63,-358,-297,211,9,-39,37,-10,-178,-45,-411,105,110,339,-271,-1132,-334,148,336,-167,-2140,319,238,289,238,576,206494
-153,-53,-24,-3,-9,1,-69,-12,20,-51,160,144,-179,23,-67,-219,42,8,152,-72,-605,-115,103,126,61,-1453,119,104,140,102,26,206495
119,11,-57,40,62,60,209,190,-63,3,154,257,-231,263,-4,11,-12,-71,-75,134,8,121,58,-78,259,-600,-80,-38,-24,-45,-257,206496
175,27,-73,70,77,71,252,62,-91,-1,108,192,-169,-62,2,47,-38,-82,-127,163,173,176,30,-131,294,-357,-138,-77,-79,-96,-339,206497
195,39,-68,64,76,62,286,257,-33,63,148,240,-55,2,-16,85,-49,-79,-167,191,294,217,2,-150,314,-172,-165,-95,-115,-116,-319,206498
83,19,-47,47,42,40,166,180,5,-31,156,165,-92,105,49,16,-23,-25,-74,129,105,146,18,-48,231,-425,-49,-39,-26,-53,-139,206499
120,37,-47,38,47,46,190,170,-44,-13,7,144,-151,2,100,52,-13,-30,-94,162,199,188,22,-70,261,-284,-62,-50,-29,-55,-163,206500
-81,-24,19,10,14,19,-110,-21,12,-78,-290,-80,-17,-31,13,-183,-17,-5,16,-71,-340,-55,27,44,12,-971,31,9,32,-10,280,206501
-876,-175,168,-32,-151,-100,-992,-639,131,-50,-856,-296,107,-379,-155,-878,146,234,630,-729,-2193,-758,155,679,-613,-3543,638,402,506,388,1512,206502
-1014,-199,166,11,-157,-113,-1050,-594,184,119,-676,-248,110,-367,-92,-984,244,309,860,-774,-2640,-848,271,875,-586,-4277,828,562,708,582,1569,206503
-641,-138,70,51,-91,-82,-575,-250,192,101,-146,-148,-96,-152,-47,-641,200,197,631,-425,-1861,-518,268,614,-238,-3296,561,419,537,444,844,206504
-54,-16,-46,91,30,3,92,214,100,98,230,126,-165,116,89,-132,99,39,228,52,-555,-15,187,178,204,-1539,141,166,217,175,-109,206505
198,11,-111,71,60,44,351,263,-113,213,171,107,-71,252,105,74,-17,-77,-74,198,93,155,60,-99,297,-596,-117,-30,-30,-41,-391,206506
156,0,-95,46,59,54,250,197,-162,272,204,80,-20,131,79,4,-65,-99,-118,108,32,69,2,-119,164,-643,-124,-61,-83,-77,-291,206507
134,-4,-54,43,56,64,187,263,-98,187,218,133,-53,111,-34,-22,-80,-100,-121,75,-3,23,-17,-113,92,-670,-122,-76,-103,-80,-329,206508
187,23,-57,46,58,55,232,434,-16,118,241,185,-89,176,9,65,-39,-63,-131,150,162,107,15,-114,146,-442,-113,-70,-87,-57,-312,206509
183,32,-55,43,61,59,223,101,92,183,216,222,-131,153,0,89,-3,-25,-116,161,190,133,32,-76,149,-403,-88,-38,-73,-32,-202,206510
66,-8,-53,13,30,32,108,76,5,97,204,199,12,109,-16,10,-8,-5,-57,75,-3,43,41,-22,66,-649,-33,-11,-37,-8,-68,206511
-28,-17,-30,14,18,17,14,-61,-46,-50,26,103,90,-156,48,-78,24,10,45,1,-218,-27,66,58,20,-954,42,49,35,39,124,206512
55,8,-18,42,38,37,76,160,19,37,-91,62,98,35,60,-21,21,0,1,71,-64,40,61,15,98,-765,6,21,9,26,-6,206513
61,0,-45,25,16,19,95,159,-86,-20,-93,15,-21,-122,-5,8,9,-3,-16,86,-2,67,44,-6,130,-649,-8,15,-6,9,-132,206514
136,27,-47,39,49,49,183,124,-56,-121,-165,-36,92,23,45,59,-12,-34,-82,145,155,136,27,-69,200,-425,-62,-35,-56,-32,-249,206515
223,36,-63,31,57,45,250,355,-45,-53,224,20,96,-120,94,114,-56,-73,-189,210,362,198,-13,-165,267,-116,-158,-116,-135,-110,-303,206516
173,19,-66,15,25,13,195,197,-96,76,355,25,-4,-21,101,109,-41,-70,-149,199,348,199,-6,-130,273,-112,-134,-89,-114,-102,-227,206517
90,3,-46,-2,2,8,69,-95,82,46,233,53,23,-57,69,39,-50,-61,-121,135,198,138,-28,-105,219,-292,-101,-82,-98,-93,-138,206518
145,9,-35,-9,19,21,95,19,134,79,178,92,16,-163,67,53,-105,-113,-205,151,271,139,-87,-176,213,-145,-162,-152,-158,-149,-332,206519
130,21,-21,12,27,21,139,109,12,71,259,267,-63,-94,85,61,-51,-66,-155,152,258,148,-44,-118,212,-170,-104,-103,-110,-111,-165,206520
-118,-9,-6,0,-36,-41,-38,-113,27,-40,93,125,265,-85,-1,-107,29,33,43,-21,-217,-22,39,87,63,-825,91,38,53,34,282,206521
-619,-90,85,-1,-122,-111,-552,-462,214,-9,-201,-187,298,-284,-50,-521,146,192,433,-410,-1368,-449,144,481,-306,-2439,463,298,357,295,1033,206522
-738,-132,121,19,-124,-85,-721,-331,210,49,-512,-251,108,-415,-105,-673,195,228,606,-526,-1827,-585,198,627,-377,-3148,583,399,495,400,1164,206523
-502,-100,87,35,-64,-23,-502,-260,240,-81,-300,-73,15,-171,30,-512,160,156,492,-351,-1442,-414,189,492,-184,-2697,435,313,405,333,776,206524
-74,-31,-4,46,9,28,-43,90,119,-98,15,280,-60,83,133,-158,65,20,184,-16,-513,-61,105,156,120,-1464,117,115,170,131,32,206525
205,30,-64,47,65,65,286,246,-80,2,88,218,-71,374,110,106,-6,-49,-68,206,233,184,42,-102,297,-427,-106,-38,-39,-30,-464,206526
165,20,-80,25,40,38,255,12,-73,-18,352,58,44,249,75,103,-2,-38,-84,176,247,163,41,-107,239,-384,-95,-48,-62,-40,-330,206527
202,32,-84,31,45,30,299,124,-87,-318,460,164,40,164,72,148,10,-38,-107,209,358,197,60,-108,241,-225,-113,-44,-70,-54,-269,206528
159,20,-87,24,20,7,253,-24,-61,95,184,171,-250,-35,47,107,-15,-42,-114,176,322,157,19,-127,183,-250,-122,-58,-92,-76,-321,206529
142,28,-58,27,26,20,238,-64,-137,250,46,130,-243,196,63,117,-14,-31,-99,160,316,151,2,-111,153,-240,-110,-55,-81,-65,-328,206530
23,12,-23,17,2,10,94,37,-62,4,124,-17,-77,301,28,7,-10,0,-29,52,53,43,-4,-23,44,-578,-18,-12,-33,-14,-31,206531
-398,-64,65,-5,-72,-40,-395,-302,100,1,-300,-215,19,-58,-66,-382,94,130,323,-289,-960,-327,89,329,-284,-1981,323,216,233,209,711,206532
-539,-91,91,22,-81,-45,-543,-479,151,77,-493,-147,-66,-233,-117,-525,139,162,487,-394,-1374,-446,143,462,-323,-2597,438,301,359,311,849,206533
-404,-69,72,51,-39,-8,-379,-167,117,87,-411,-27,-82,-116,-57,-442,96,91,394,-310,-1192,-365,108,357,-186,-2366,338,227,294,246,521,206534
36,9,-27,81,57,51,109,84,-120,-21,-68,206,164,39,22,-104,-11,-60,52,29,-270,-15,27,6,156,-1105,-4,-5,36,19,-154,206535
303,43,-87,69,86,80,398,332,-160,64,196,312,122,158,30,133,-75,-123,-203,248,403,223,-28,-228,344,-148,-219,-155,-159,-145,-476,206536
252,41,-73,58,63,59,382,283,-104,160,102,130,-33,-9,69,152,-26,-66,-151,250,414,252,7,-174,337,-103,-162,-93,-117,-120,-329,206537
160,32,-55,37,43,32,277,208,-17,-37,107,63,-58,-87,-12,79,-28,-66,-112,170,270,179,-12,-145,266,-260,-126,-84,-103,-106,-248,206538
123,38,-44,34,25,27,202,205,136,198,97,4,-46,-69,2,59,-10,-47,-85,139,187,145,1,-98,250,-339,-86,-65,-77,-70,-149,206539
161,25,-72,16,16,16,226,106,77,19,180,156,-100,-58,30,107,-5,-42,-113,177,309,200,-2,-123,285,-161,-111,-72,-99,-92,-286,206540
131,13,-81,-1,8,3,189,20,81,-107,248,267,-91,91,26,118,0,-33,-101,180,328,210,5,-109,282,-123,-93,-70,-90,-86,-225,206541
23,9,-40,0,7,15,55,183,120,99,96,154,26,108,94,40,15,16,-24,86,89,109,19,-16,169,-434,-4,-23,-22,-26,-60,206542
17,5,-7,15,16,40,6,-117,64,-31,-45,39,38,88,101,-19,2,11,7,45,-13,45,7,5,122,-584,7,-5,-11,-14,39,206543
154,40,-28,24,44,70,150,68,-72,50,-152,2,24,19,82,70,-60,-65,-91,124,266,132,-44,-116,201,-195,-108,-83,-106,-87,-195,206544
166,32,-28,18,36,68,180,229,51,17,-120,-14,-80,34,53,100,-57,-60,-117,137,337,143,-58,-148,191,-84,-119,-94,-123,-89,-318,206545
115,17,-31,-2,22,33,148,93,81,-159,38,142,-205,69,43,112,-5,-3,-93,138,290,132,-11,-90,165,-148,-68,-52,-77,-49,-152,206546
101,29,-23,-9,22,14,140,16,36,-280,-49,149,-184,229,6,146,46,39,-47,158,298,143,30,-39,179,-156,-22,-13,-24,-8,-24,206547
95,32,-41,-3,15,11,134,20,-42,-23,25,82,-286,299,62,134,32,25,-51,146,287,131,28,-42,154,-160,-35,-12,-34,-8,-4,206548
126,37,-38,8,29,22,150,142,-49,-173,-2,90,-116,215,35,112,-20,-34,-89,132,299,106,-27,-101,121,-111,-88,-65,-90,-63,-134,206549
129,7,-51,-15,30,27,119,150,-198,-99,-126,-29,-64,125,14,72,-73,-81,-138,89,270,61,-83,-141,74,-127,-138,-115,-146,-115,-169,206550
234,38,-50,-5,55,67,244,153,-137,-89,-41,-70,-131,94,14,182,-84,-99,-212,186,535,165,-88,-217,165,235,-207,-160,-198,-146,-381,206551
547,86,-122,-6,105,108,616,329,-130,-164,386,184,-122,314,19,484,-145,-195,-482,467,1352,472,-158,-488,414,1396,-463,-335,-405,-308,-1016,206552
757,128,-161,-8,138,125,818,547,-141,-130,310,152,-362,204,77,681,-197,-261,-680,629,1902,661,-213,-675,537,2228,-635,-455,-569,-456,-1323,206553
812,136,-162,-17,137,111,840,579,-195,47,349,191,-137,231,112,724,-234,-276,-764,646,2083,700,-250,-735,518,2566,-696,-503,-631,-510,-1191,206554
330,70,-55,-43,31,18,318,358,34,-60,-119,55,18,-19,77,353,-121,-100,-388,275,1110,321,-160,-346,143,1282,-310,-253,-353,-269,-237,206555
10,30,5,-21,-40,-42,-6,78,26,-145,-137,-84,-43,-147,53,80,-8,22,-52,49,344,80,-55,-43,-32,217,-28,-51,-94,-50,121,206556
44,28,-12,-12,-34,-38,58,9,46,-164,-105,-60,-119,-145,65,85,-25,5,-86,65,334,96,-58,-70,26,200,-59,-84,-100,-58,-23,206557
31,9,-11,-17,-28,-32,21,-279,-31,-60,-138,-84,-160,-254,10,32,-40,-31,-102,9,231,72,-78,-84,1,61,-67,-93,-100,-83,14,206558
29,4,-9,-26,-17,-16,3,-145,55,21,-173,30,-66,-376,-42,38,-8,-10,-62,28,217,92,-61,-66,31,32,-55,-68,-85,-53,38,206559
52,8,-20,-26,-20,-15,33,98,133,73,-102,48,-83,-81,5,84,-7,2,-53,76,290,134,-43,-60,75,120,-58,-62,-78,-45,-44,206560
378,71,-107,-8,32,17,390,428,-26,275,222,214,-254,129,79,388,-80,-113,-295,354,1046,417,-110,-310,352,1170,-302,-222,-253,-195,-796,206561
1585,311,-316,59,287,205,1701,1251,-385,79,1209,677,-153,784,354,1430,-313,-447,-1190,1311,3813,1430,-315,-1229,1228,5037,-1170,-797,-958,-764,-2693,206562
1894,355,-348,-2,316,226,1976,1375,-340,-37,1274,745,-34,664,382,1727,-465,-572,-1610,1485,4779,1644,-483,-1600,1261,6565,-1497,-1062,-1319,-1059,-2959,206563
1491,278,-272,-86,201,139,1489,833,-387,-92,686,443,16,469,205,1422,-445,-473,-1456,1129,4127,1292,-517,-1403,811,5861,-1286,-975,-1226,-981,-2224,206564
314,63,-31,-164,-40,-47,177,-201,-154,103,-132,-146,152,-44,-18,444,-205,-117,-601,184,1581,280,-335,-506,-140,2468,-414,-419,-572,-432,-149,206565
-311,-33,81,-144,-149,-143,-457,-539,122,-77,-330,-317,145,-329,-133,-83,3,115,49,-230,19,-218,-119,107,-476,279,146,-5,-52,26,706,206566
-227,-13,78,-108,-101,-91,-345,-401,133,-177,-175,-265,-91,-253,-77,-15,45,121,90,-132,25,-148,-62,113,-309,235,150,27,12,80,492,206567
-197,-31,87,-102,-91,-55,-360,-380,131,-25,-464,-369,58,-92,-46,-59,17,71,85,-152,-65,-175,-78,79,-297,83,106,9,7,62,356,206568
-135,-27,75,-92,-69,-37,-280,-202,104,101,-298,-337,94,-13,-45,-31,-4,32,70,-124,-14,-145,-95,46,-231,133,58,-14,-15,40,243,206569
-97,-15,42,-68,-67,-65,-187,-82,-13,32,89,-138,124,-120,-74,18,4,29,66,-73,82,-89,-76,32,-156,231,39,-7,-16,41,187,206570
148,38,-37,-30,-25,-58,129,47,-27,-82,160,-12,-42,-90,-6,228,-42,-52,-106,135,608,122,-107,-163,60,947,-145,-116,-145,-71,-307,206571
748,144,-143,-1,97,46,791,566,-173,-10,487,264,-150,293,38,754,-148,-204,-588,615,1985,642,-210,-631,501,2893,-580,-420,-501,-379,-1186,206572
950,174,-189,-21,129,65,994,676,-299,-67,576,286,-238,487,39,941,-220,-271,-823,758,2548,812,-273,-825,580,3761,-775,-570,-701,-547,-1470,206573
950,192,-140,-19,146,80,921,554,-346,-214,476,86,21,384,87,929,-254,-275,-865,712,2603,787,-312,-850,494,3909,-783,-602,-740,-576,-1312,206574
208,41,-12,-95,-37,-59,86,42,-87,-119,-20,-193,212,-180,-53,314,-130,-64,-374,116,1066,182,-240,-326,-107,1873,-267,-274,-361,-266,-138,206575
-251,-37,52,-113,-133,-126,-342,-243,118,-145,-326,-361,95,-226,-108,-49,7,83,50,-187,28,-135,-112,73,-340,407,104,3,-19,30,420,206576
-207,-28,50,-99,-108,-100,-262,-206,55,-76,-250,-191,-58,-6,-83,-32,11,68,62,-133,30,-87,-97,70,-261,343,95,-1,10,50,319,206577
-161,-18,44,-73,-89,-78,-229,-188,46,-81,-155,-125,-44,41,-15,-22,10,60,59,-120,16,-65,-94,53,-211,308,72,-13,14,41,266,206578
-94,-8,45,-52,-58,-54,-174,-79,59,-24,-190,-112,85,-5,-50,11,14,38,45,-87,96,-10,-66,12,-140,379,27,-22,-4,6,210,206579
-118,-31,31,-66,-68,-71,-185,-164,-46,-16,-70,-171,155,154,-90,-19,-22,8,20,-106,49,-40,-80,-14,-159,298,-3,-39,-32,-17,156,206580
48,2,-7,-40,-26,-34,12,67,-86,-112,111,-74,64,-36,-45,127,-55,-54,-102,31,415,93,-116,-140,-25,787,-118,-123,-123,-89,-203,206581
765,138,-140,-6,120,74,789,624,-236,-97,558,253,-244,237,113,732,-194,-258,-625,596,2016,681,-243,-691,504,3027,-648,-468,-531,-429,-1335,206582
932,172,-141,-35,136,91,930,654,-146,4,712,254,-47,275,122,889,-259,-305,-855,695,2511,793,-311,-882,516,3824,-806,-596,-721,-577,-1467,206583
613,115,-81,-74,67,35,551,341,-148,-7,356,60,97,-13,66,647,-209,-197,-677,421,1892,504,-286,-671,208,3077,-585,-474,-580,-448,-815,206584
45,15,22,-99,-51,-56,-73,-11,-98,191,76,-243,186,-195,-124,180,-75,-16,-234,-22,629,20,-180,-207,-217,1391,-144,-183,-231,-164,166,206585
-214,-34,69,-95,-94,-102,-322,-236,94,46,-113,-250,21,-149,-153,-36,13,66,57,-196,-33,-181,-97,52,-330,458,89,3,-16,27,398,206586
-216,-32,71,-92,-88,-103,-289,-287,119,-99,-264,-144,75,-117,-112,-52,30,70,102,-183,-108,-183,-75,85,-284,327,100,28,20,62,331,206587
-143,-13,73,-68,-56,-80,-203,-259,-31,51,-139,-183,106,-33,-37,9,45,75,100,-115,-19,-116,-47,54,-189,408,75,33,29,61,234,206588
-149,-38,43,-78,-62,-73,-223,-289,-57,-84,-226,-259,32,-128,-70,-19,13,43,71,-137,-65,-144,-66,25,-201,338,50,9,11,33,234,206589
-142,-37,37,-58,-50,-63,-262,-93,43,-190,-189,-239,-12,-201,-119,-74,-28,10,38,-169,-127,-186,-87,-16,-224,248,36,-24,-15,7,208,206590
-123,-29,39,-48,-49,-56,-243,-131,32,-144,-236,-156,17,-114,-10,-69,-6,15,54,-157,-139,-169,-77,3,-205,215,43,-6,3,17,187,206591
-47,-12,35,-31,-38,-44,-125,50,25,-55,-22,-111,97,60,4,20,3,20,44,-74,13,-81,-55,-18,-118,397,15,-11,6,20,77,206592
5,-9,3,-33,-36,-42,-27,-58,-74,-138,127,-129,-27,79,-65,85,-27,-10,-6,-16,177,-16,-76,-74,-54,621,-43,-48,-32,-18,-35,206593
52,8,-3,-28,-27,-30,52,-79,38,-67,201,1,11,144,-10,132,-37,-22,-62,46,355,60,-83,-137,0,848,-87,-86,-84,-59,-77,206594
-71,1,20,-39,-47,-45,-85,-178,-33,-99,191,50,-202,-17,-17,56,7,32,16,-48,134,-18,-51,-46,-84,528,5,-13,-3,4,38,206595
-157,-25,42,-50,-43,-32,-200,-276,37,-54,-126,-61,-82,-41,-72,-40,21,35,63,-147,-120,-107,-39,18,-158,157,53,16,42,28,168,206596
-98,-30,44,-51,-18,-6,-187,-53,118,-145,-148,-94,209,-24,-38,-70,-19,-2,23,-156,-125,-115,-76,-38,-156,136,13,-34,1,-6,83,206597
-22,-8,51,-26,1,22,-96,25,54,-133,-170,-88,229,23,-88,0,4,13,36,-75,17,-42,-39,-33,-78,303,7,-13,8,6,25,206598
-83,-19,33,-34,-25,-24,-99,-115,3,-244,-69,-175,190,-113,-101,-2,52,51,82,-74,-27,-42,5,19,-74,209,41,45,61,55,159,206599
-103,-22,22,-35,-32,-47,-130,-189,36,-44,-74,-243,20,76,-121,15,71,84,107,-64,-65,-39,28,45,-68,154,82,58,99,85,179,206600
-18,5,36,-3,-8,-10,-68,-110,-16,81,-207,-233,-148,149,-30,53,45,54,48,-21,54,3,-4,-20,-38,320,31,18,42,42,27,206601
17,-6,22,-17,-5,3,-58,166,-83,2,30,-88,-127,-3,-81,33,-33,-25,-37,-45,107,-19,-66,-113,-67,404,-45,-41,-36,-36,4,206602
-15,-10,24,-25,-6,-1,-82,49,-88,-1,142,-69,25,22,-25,-11,-48,-45,-31,-88,27,-60,-84,-111,-117,334,-40,-53,-38,-35,0,206603
-75,-16,42,-6,-20,-17,-142,28,12,-40,24,-112,-46,94,-84,-56,4,6,45,-121,-120,-102,-53,-31,-157,123,32,4,27,14,105,206604
-68,-13,48,4,-6,-5,-143,-123,-38,14,17,-144,7,-88,-68,-57,12,29,54,-114,-136,-95,-31,-18,-147,75,48,15,28,23,145,206605
-85,-19,29,-16,-21,-13,-163,27,-115,-116,-79,-122,158,-110,-33,-75,21,25,49,-123,-166,-100,-33,-8,-147,9,55,11,40,25,183,206606
-77,-25,25,-9,-18,-12,-148,122,-179,112,-245,-77,147,-203,-61,-76,-6,0,52,-115,-143,-83,-38,-26,-127,39,24,6,29,11,113,206607
-37,-25,22,-2,-11,-10,-103,-47,21,-54,-316,-119,108,-235,-55,-54,-35,-32,11,-101,-69,-56,-62,-82,-98,147,-16,-39,-19,-21,24,206608
-65,-13,30,0,-21,-28,-115,166,19,-115,-119,-113,66,-175,35,-52,-5,-5,19,-109,-106,-66,-32,-48,-110,85,19,-14,14,9,185,206609
-72,-1,40,9,-22,-26,-113,81,112,-9,-132,49,242,-177,47,-34,56,63,92,-77,-136,-31,30,30,-66,11,94,61,88,67,237,206610
-120,-20,38,0,-30,-40,-171,-219,59,120,30,26,189,-205,93,-74,64,70,139,-108,-242,-53,41,64,-96,-153,123,90,121,87,293,206611
-206,-44,61,-4,-42,-40,-299,-247,88,147,-161,-118,200,-318,41,-183,55,73,209,-208,-492,-167,37,122,-174,-499,165,116,153,114,390,206612
-283,-56,90,-11,-56,-32,-386,2,164,116,-3,-68,151,-191,-27,-269,61,77,259,-275,-693,-257,37,176,-230,-824,224,154,206,150,441,206613
-319,-70,63,-30,-74,-54,-395,-85,19,104,-61,0,64,-38,-36,-250,108,115,295,-244,-712,-235,74,210,-182,-884,259,189,247,193,422,206614
-156,-43,18,-20,-52,-34,-233,21,49,21,-12,-8,-74,198,-26,-86,98,91,195,-88,-354,-76,68,118,-12,-410,162,136,178,159,145,206615
-15,-17,11,-15,2,4,-109,-18,42,44,-38,-1,-8,191,34,45,68,58,83,12,-61,5,52,15,65,10,78,78,99,87,25,206616
-18,-2,23,-10,8,0,-99,3,86,-11,64,66,-129,199,-7,38,49,45,53,-3,-63,-52,43,-17,35,42,59,56,70,57,42,206617
-7,5,-3,-6,-4,-16,-11,36,44,-22,100,66,-135,122,18,37,27,23,30,4,-17,-70,39,-45,22,126,25,32,32,33,11,206618
-19,-2,-4,4,3,-5,6,-90,-152,-24,17,-16,-49,39,-31,-13,-22,-17,10,-53,-81,-130,-14,-67,-44,64,2,-2,4,-2,-28,206619
-9,9,23,27,24,20,-12,81,-62,61,-81,-24,-82,82,-18,-27,-1,-5,31,-73,-141,-156,-17,-43,-72,-9,36,10,32,28,63,206620
-117,-7,63,12,-8,5,-136,-152,7,90,-41,-93,-6,20,-65,-109,48,68,119,-158,-378,-233,33,58,-163,-352,136,86,111,98,297,206621
-537,-91,138,-10,-98,-58,-594,-558,159,-84,-348,-286,83,-256,-133,-470,130,171,413,-472,-1310,-550,108,368,-463,-1684,423,282,344,282,942,206622
-687,-118,136,-4,-121,-103,-710,-513,44,-115,-552,-295,-30,-285,-203,-604,183,211,579,-556,-1699,-622,173,508,-512,-2310,534,385,480,385,997,206623
-577,-92,101,37,-87,-85,-565,-293,27,-46,-169,-104,-36,-225,-100,-518,196,200,555,-450,-1531,-490,201,471,-375,-2181,487,369,472,384,829,206624
-129,-7,4,76,0,-20,-40,72,-48,-200,103,138,-60,25,44,-140,90,53,227,-74,-515,-67,131,126,2,-859,154,148,224,170,89,206625
90,36,-44,67,33,24,186,45,-2,-55,69,88,94,168,55,51,10,-38,-4,92,70,141,51,-105,130,-54,-59,-6,32,-1,-210,206626
59,32,-28,53,26,30,116,210,-9,114,50,55,7,-16,42,33,15,-15,21,63,46,139,51,-69,77,-81,-18,15,39,4,-74,206627
4,14,-24,35,7,-12,67,70,-39,63,72,143,-106,-96,-20,-1,43,29,60,49,-7,132,69,-14,61,-169,51,50,79,33,10,206628
-10,12,-16,29,5,-14,58,-97,22,95,-55,70,-73,-70,-56,2,44,39,59,51,-7,146,79,0,70,-171,55,61,94,37,-23,206629
21,23,8,38,26,25,74,178,142,31,-49,65,24,208,-36,21,48,30,50,60,47,162,74,-20,78,-104,31,44,73,23,-21,206630
-57,-6,36,29,24,23,-39,124,74,-29,-131,79,-45,0,-13,-60,42,45,104,-17,-140,76,82,39,5,-342,82,62,97,47,139,206631
-369,-60,109,15,-32,-20,-425,-109,27,149,-463,-84,-140,-255,-42,-368,86,109,343,-304,-918,-241,111,270,-257,-1406,312,214,270,202,699,206632
-567,-88,141,18,-81,-41,-634,-302,119,205,-356,-165,47,-323,-31,-570,128,163,491,-486,-1465,-460,128,422,-396,-2194,472,309,403,310,963,206633
-536,-83,113,39,-71,-45,-546,-237,140,55,-94,-70,-60,-316,-16,-534,164,180,514,-434,-1482,-445,174,450,-307,-2254,477,333,439,338,786,206634
-152,-23,11,56,7,16,-82,4,70,121,12,22,-154,-41,26,-204,74,52,220,-122,-657,-155,110,151,15,-1119,168,144,215,156,149,206635
133,15,-35,53,58,56,237,64,-43,53,124,159,-53,191,53,55,-3,-32,-5,82,10,30,48,-91,196,-146,-51,-3,19,-5,-222,206636
66,9,-20,29,32,34,155,13,-85,-112,180,7,-13,165,-67,24,9,-14,19,22,-63,-62,52,-64,117,-184,-16,21,25,0,-88,206637
72,12,-17,19,31,32,130,196,-131,-134,223,87,-10,80,-22,39,7,-15,-18,30,-35,-87,30,-69,101,-91,-15,9,2,10,-200,206638
54,8,-16,5,25,35,63,202,-94,26,190,-9,38,76,49,5,-33,-16,-25,-18,-107,-156,7,-75,21,-138,-6,6,-18,2,-190,206639
78,3,-10,1,45,52,42,36,-17,115,23,-47,-18,-59,40,-18,-50,-50,-65,-46,-123,-182,-22,-103,0,-146,-37,-19,-55,-23,-138,206640
-117,-42,42,-9,2,29,-191,-145,130,33,-99,-97,173,11,-49,-205,-17,-1,62,-213,-559,-336,0,27,-185,-745,85,51,41,42,280,206641
-682,-138,143,-27,-116,-76,-766,-481,321,81,-525,-276,200,-274,-136,-654,151,211,537,-605,-1792,-720,149,523,-551,-2525,553,366,426,358,1293,206642
-841,-137,155,19,-149,-109,-877,-602,217,-110,-588,-323,16,-229,-125,-770,258,301,782,-647,-2210,-753,267,734,-541,-3258,738,530,637,523,1505,206643
-626,-95,120,56,-83,-39,-622,-333,191,-147,-276,-152,85,-108,-69,-621,210,224,664,-458,-1822,-538,245,596,-321,-2847,594,448,552,440,940,206644
-78,-13,3,86,34,48,-30,28,54,-148,110,125,-75,99,22,-182,88,44,245,-15,-595,-34,146,161,117,-1264,173,172,224,170,79,206645
219,30,-40,91,88,90,268,62,-89,-61,161,301,-74,107,141,71,-13,-68,-60,189,166,238,59,-128,278,-209,-109,-34,-17,-51,-337,206646
208,43,-33,75,74,73,242,304,-83,280,378,277,-83,123,88,80,-20,-71,-98,172,235,255,31,-159,225,-102,-120,-63,-55,-85,-340,206647
118,40,-43,67,41,38,174,258,11,119,237,271,-26,6,68,36,-2,-44,-54,133,140,223,39,-102,156,-217,-61,-22,-27,-59,-157,206648
119,41,-42,57,47,37,192,191,7,-306,81,235,50,114,68,50,3,-26,-49,154,200,249,45,-91,162,-135,-57,-20,-19,-51,-186,206649
90,28,-39,26,31,33,163,183,-82,-281,-130,143,-48,60,90,47,17,-12,-44,143,177,226,41,-66,135,-142,-42,-21,-10,-46,-141,206650
21,18,-23,15,21,32,85,87,-42,64,-273,55,49,123,-7,2,31,13,-5,86,63,161,56,-15,83,-283,11,0,25,-19,34,206651
-202,-18,39,15,-6,24,-216,-221,30,24,-514,-82,141,-3,-41,-195,71,95,176,-114,-491,-59,83,172,-113,-1050,197,123,157,122,353,206652
-264,-50,55,4,-14,18,-329,-349,-44,-22,-265,-53,287,-240,-7,-291,65,80,242,-197,-738,-167,87,220,-168,-1383,238,166,203,159,448,206653
-187,-32,45,20,-4,30,-218,-94,72,31,-19,12,177,-67,41,-223,84,87,254,-129,-636,-122,139,218,-84,-1235,217,187,210,158,242,206654
49,10,-10,37,36,45,94,14,44,76,182,188,-50,158,38,-4,43,15,83,62,-106,49,107,42,104,-509,53,68,81,60,-92,206655
151,29,-55,31,43,32,224,167,-145,130,263,185,-126,447,106,90,8,-20,-25,120,149,85,53,-53,141,-104,-28,3,-12,-1,-167,206656
119,39,-37,41,39,25,193,-22,-126,321,98,45,-165,155,105,79,8,-6,-22,77,109,20,46,-44,88,-105,-17,25,-13,15,-103,206657
94,37,-13,42,53,40,126,175,47,106,96,71,-120,89,55,39,-16,-31,-47,7,15,-63,16,-61,3,-193,-25,-7,-36,-4,-151,206658
118,23,-22,32,49,40,125,202,45,-43,37,9,-28,168,33,45,-52,-60,-103,6,55,-77,-36,-104,-10,-100,-56,-59,-84,-31,-167,206659
80,22,-12,20,42,42,96,11,65,-101,44,48,46,30,-4,36,-20,-19,-38,4,26,-77,0,-44,-13,-157,-10,-7,-43,1,-89,206660
112,38,-17,34,47,41,147,172,42,-61,247,62,-39,38,24,84,12,3,1,63,115,0,52,-16,56,-54,2,33,-11,21,-63,206661
113,30,-6,15,25,34,143,77,-32,85,106,78,176,2,52,83,-3,-13,-42,72,151,28,31,-43,52,-9,-24,-3,-40,-2,-130,206662
77,16,-29,-2,5,10,114,-136,-60,107,-38,108,-9,88,16,74,-2,-8,-48,80,157,53,17,-47,62,-17,-27,-7,-27,-20,-143,206663
91,14,-35,-4,15,21,123,-75,72,150,-173,47,93,-2,25,78,-30,-46,-93,111,235,106,2,-83,87,81,-65,-39,-71,-57,-138,206664
82,29,-7,1,22,28,88,-127,123,-110,-103,115,-15,72,24,57,-16,-18,-72,101,183,113,2,-54,70,10,-50,-22,-51,-32,-65,206665
57,33,20,20,35,38,46,-16,101,52,32,109,-67,91,-18,16,2,8,-15,78,78,100,29,-5,45,-141,4,6,-7,5,38,206666
71,16,0,16,30,41,41,5,85,175,192,36,-124,29,-49,-10,-54,-48,-83,64,100,87,-20,-83,28,-86,-66,-62,-59,-66,-108,206667
93,23,-7,32,42,50,84,130,113,93,104,39,-63,41,-65,39,-42,-44,-94,97,180,128,-20,-86,60,18,-76,-64,-66,-71,-145,206668
69,39,19,39,42,42,80,-73,106,90,110,151,-1,-62,-12,61,3,7,-33,111,162,148,24,-13,80,-18,-14,-17,-22,-21,-38,206669
66,27,2,19,25,17,79,-129,-43,-9,445,62,-66,42,55,61,-10,-18,-50,102,176,132,11,-26,74,22,-42,-30,-36,-32,-71,206670
165,56,1,30,46,41,174,215,25,5,277,47,-56,123,17,107,-41,-56,-134,157,347,167,-28,-117,109,280,-110,-92,-97,-81,-227,206671
329,73,-61,24,62,41,357,341,0,-53,363,162,-32,124,56,255,-76,-119,-294,286,765,306,-63,-269,218,870,-256,-190,-213,-192,-514,206672
402,77,-78,21,79,36,455,153,-77,-56,199,199,32,-10,102,350,-70,-106,-339,339,987,380,-47,-303,262,1225,-297,-205,-255,-219,-575,206673
374,78,-62,19,75,39,418,-19,-112,-50,104,101,-108,17,33,325,-83,-107,-318,286,931,318,-83,-288,178,1206,-273,-190,-245,-208,-571,206674
178,58,8,16,41,29,180,13,20,5,-71,-119,-48,-57,24,137,-48,-37,-158,93,445,107,-45,-113,-36,564,-104,-93,-135,-103,-93,206675
42,42,36,22,9,5,36,-194,58,28,-56,-117,93,-177,-73,21,-11,6,-29,-15,105,-19,-14,4,-129,105,-3,-12,-35,-10,83,206676
61,44,27,36,22,15,48,-155,7,145,4,75,180,-143,-3,41,-6,0,-20,3,127,2,-13,14,-108,117,2,-11,-29,7,10,206677
38,25,17,13,20,1,16,-69,29,-115,-92,-64,-1,-163,43,35,13,6,-3,-14,104,-3,6,33,-106,56,23,8,-10,28,60,206678
34,24,16,17,10,-2,5,25,22,112,-113,28,-172,-115,52,43,20,23,18,-3,101,5,15,48,-88,39,47,22,7,43,43,206679
33,40,19,23,12,10,41,-1,20,9,-49,113,-11,-200,8,29,-12,0,-8,-2,118,2,-15,17,-90,52,3,0,-24,24,-74,206680
153,44,-30,1,26,12,196,275,-120,-164,108,265,-30,20,19,133,-62,-58,-124,106,408,108,-58,-106,30,452,-122,-76,-113,-61,-295,206681
449,115,-87,28,80,57,536,208,-139,-61,174,320,-126,176,116,436,-79,-106,-310,385,1137,401,-61,-308,308,1473,-308,-194,-255,-178,-705,206682
492,108,-79,-3,87,57,562,332,-96,-57,207,182,4,36,72,495,-94,-124,-380,422,1316,452,-85,-362,331,1773,-348,-238,-313,-227,-717,206683
403,86,-45,-42,65,43,449,206,-104,37,170,166,-121,119,82,423,-102,-115,-356,351,1177,378,-107,-322,245,1655,-309,-234,-298,-235,-583,206684
83,22,1,-81,-8,-11,61,75,-16,-25,-92,-57,-38,-49,-20,134,-68,-55,-184,80,476,84,-93,-129,-17,772,-116,-130,-161,-127,-105,206685
-31,10,53,-31,0,-10,-103,53,3,76,-81,-133,139,-246,-82,-15,-49,-23,-68,-36,81,-59,-69,-12,-113,251,-13,-58,-74,-43,79,206686
-32,0,36,-29,-13,-17,-59,-323,27,-80,-179,-75,82,42,-30,9,-11,24,-28,0,43,-38,-18,44,-66,184,26,-8,-17,8,104,206687
-56,-1,42,-22,-13,-9,-55,-203,-15,8,117,-89,99,226,-11,26,63,77,56,24,-12,-25,31,115,-30,95,85,58,54,66,169,206688
-23,-13,20,-31,-8,14,-39,25,-64,-5,71,-128,66,309,40,32,14,16,10,22,44,-22,-9,42,-12,186,8,7,4,7,20,206689
-32,-4,8,-38,-6,2,-28,-69,-10,163,10,-199,-40,-41,16,21,-9,1,-14,11,25,-44,-26,25,-28,182,3,-8,-1,-8,44,206690
50,12,-18,-29,-2,-14,77,-22,20,111,173,-72,-88,12,-26,102,4,4,-47,98,198,43,-17,-9,49,410,-30,-21,-24,-15,-63,206691
263,67,-51,0,36,14,336,-14,-22,-71,301,133,-62,345,63,295,-28,-43,-199,273,690,232,-41,-157,213,1086,-170,-109,-129,-107,-424,206692
354,68,-59,-5,58,24,419,23,-25,-179,93,91,46,377,69,366,-85,-97,-320,314,930,300,-98,-270,220,1472,-283,-203,-235,-190,-615,206693
356,74,-46,-1,55,22,396,-18,95,-76,41,79,-62,270,31,339,-122,-128,-342,271,946,276,-133,-304,153,1503,-300,-237,-282,-229,-513,206694
114,39,10,-22,17,-11,128,-258,63,-121,12,30,84,70,14,124,-75,-59,-158,43,432,74,-91,-131,-81,785,-121,-114,-160,-130,-57,206695
-66,8,37,-12,-20,-30,-65,-130,70,-46,-6,-64,58,-150,-50,-42,-20,-6,-3,-83,27,-50,-39,27,-215,163,11,-19,-35,-11,84,206696
-18,2,14,-16,-21,-21,-27,4,-44,-176,104,-1,139,-90,20,4,-12,2,-11,-36,128,31,-43,27,-160,245,-3,-26,-36,11,28,206697
-12,-2,42,-13,-8,3,-73,77,-34,-58,-77,4,219,-125,33,-3,-15,11,1,-53,92,40,-55,43,-159,151,12,-16,-16,14,143,206698
61,19,45,-1,31,34,-14,-18,63,-59,156,29,133,39,58,60,-13,2,-35,15,257,131,-47,-6,-80,334,-34,-34,-41,-8,65,206699
28,11,25,-12,1,4,-9,-28,-77,89,92,2,40,-45,23,52,0,6,-10,12,251,124,-25,11,-73,311,-20,-23,-30,-2,59,206700
161,38,-29,-9,23,0,166,-102,-194,55,-155,104,-124,73,77,207,9,-5,-66,169,577,268,0,-51,99,759,-82,-41,-61,-17,-238,206701
620,118,-133,-1,106,69,636,223,-273,-168,204,214,-169,301,148,615,-85,-135,-431,544,1629,636,-94,-420,457,2265,-435,-281,-346,-253,-1047,206702
784,143,-128,-10,145,113,716,374,-101,-45,409,276,70,454,187,736,-177,-212,-649,618,2023,701,-192,-598,488,2943,-587,-428,-527,-398,-1176,206703
660,105,-96,-42,112,86,528,342,-181,119,250,127,66,103,15,607,-222,-224,-648,468,1780,526,-254,-576,307,2760,-561,-434,-538,-428,-933,206704
184,18,21,-83,19,15,47,101,9,194,-15,-88,99,-148,-6,211,-111,-76,-299,72,713,90,-176,-212,-72,1370,-202,-197,-265,-206,-131,206705
-79,1,70,-62,-38,-41,-106,137,24,92,-162,-146,-99,-114,-3,35,13,61,5,-70,97,-106,-52,82,-169,522,76,11,-9,21,203,206706
-96,1,44,-31,-47,-64,-73,63,215,-20,-150,-55,155,-160,55,11,7,48,20,-70,17,-138,-49,77,-146,425,66,0,7,34,160,206707
-40,21,57,-15,-17,-28,-36,-2,125,104,-27,-34,199,-72,46,30,-8,30,-12,-58,35,-131,-57,48,-117,459,22,-25,-9,24,115,206708
-41,13,63,-17,-20,-20,-70,-109,-42,92,36,17,-31,-207,54,-1,-7,19,-5,-80,-44,-165,-63,52,-132,368,28,-19,-13,23,125,206709
-63,-1,53,-30,-26,-26,-87,-246,24,200,9,-25,-153,-221,-15,-23,-14,2,-8,-83,-92,-181,-59,46,-134,305,32,-25,-10,10,49,206710
145,45,2,0,17,15,166,-23,5,149,302,-1,-4,-95,-14,166,-40,-46,-137,104,367,19,-79,-102,48,907,-109,-104,-102,-63,-387,206711
851,173,-155,23,159,106,978,538,-171,11,914,312,-128,288,154,825,-175,-232,-672,709,2074,679,-196,-646,604,3275,-639,-437,-526,-412,-1526,206712
1241,261,-222,9,213,137,1401,937,-256,-71,805,458,-144,672,246,1244,-227,-292,-978,1062,3187,1087,-239,-941,874,4877,-926,-611,-782,-612,-1983,206713
1232,253,-235,-36,184,114,1361,859,-305,-2,616,404,23,461,209,1262,-290,-334,-1114,1014,3397,1094,-323,-1047,755,5265,-1003,-723,-911,-713,-1791,206714
234,64,-13,-109,-20,-40,187,57,-100,21,70,-136,168,-268,-70,392,-136,-76,-431,151,1252,244,-228,-339,-131,2391,-299,-287,-413,-305,-86,206715
-347,-36,122,-97,-105,-95,-476,-197,119,-92,-357,-240,250,-449,-96,-147,31,110,145,-281,-205,-220,-76,210,-493,308,197,61,44,84,608,206716
-230,-28,86,-81,-74,-56,-343,-267,79,-113,-300,-147,193,-308,-73,-57,22,78,100,-154,-52,-80,-69,153,-334,419,135,24,49,83,394,206717
-261,-38,91,-72,-72,-59,-359,-517,156,-26,-316,-272,228,-199,-139,-98,53,111,163,-174,-191,-81,-21,209,-324,144,177,83,105,133,553,206718
-179,-26,94,-40,-36,-15,-277,-381,79,-190,-363,-139,1,163,-76,-72,51,78,144,-126,-110,-29,-1,165,-243,202,118,58,96,101,413,206719
-99,-9,71,-33,-22,-8,-185,-173,17,-198,-233,-141,89,-19,31,1,51,59,108,-61,46,44,1,119,-158,396,72,35,70,73,260,206720
288,79,-19,19,54,22,298,185,-7,15,256,10,-52,56,147,352,-4,-32,-150,276,884,387,-39,-139,185,1551,-179,-116,-117,-68,-541,206721
1466,298,-285,80,274,171,1650,1090,-337,-61,1133,474,-424,702,334,1392,-284,-406,-1087,1228,3617,1362,-288,-1099,1057,5430,-1100,-731,-859,-684,-2534,206722
1729,344,-317,22,288,187,1915,1177,-441,-5,1066,583,-387,619,304,1658,-415,-498,-1451,1372,4490,1531,-442,-1416,1086,6837,-1365,-959,-1182,-949,-2739,206723
1195,255,-206,-50,154,65,1307,598,-385,-52,710,334,-300,341,177,1257,-330,-324,-1152,927,3518,1066,-401,-1061,583,5696,-1009,-761,-964,-761,-1702,206724
131,84,40,-96,-56,-86,97,-257,-37,-31,-250,-165,-80,-220,-71,358,-109,5,-345,68,1133,130,-220,-229,-262,2532,-195,-228,-329,-236,64,206725
-400,-25,145,-112,-136,-143,-513,-452,220,-42,-401,-318,2,-293,-184,-130,40,159,160,-330,-271,-354,-80,247,-567,578,242,85,86,118,782,206726
-304,-21,144,-83,-90,-84,-446,-264,75,-119,-464,-396,201,-149,-156,-107,31,110,172,-270,-277,-321,-72,225,-438,523,196,68,93,134,602,206727
-230,-41,118,-92,-69,-64,-395,-212,29,-181,-334,-366,169,-340,-129,-110,-39,30,80,-260,-248,-329,-112,131,-394,558,103,-14,22,55,357,206728
-231,-48,102,-77,-74,-65,-380,-73,126,-285,-188,-319,106,-379,-170,-121,-12,48,112,-260,-332,-344,-91,157,-368,426,143,19,61,85,401,206729
-209,-46,92,-45,-62,-58,-310,-142,121,29,-174,-189,115,-127,-86,-60,43,97,179,-199,-301,-270,-18,200,-285,414,189,89,123,141,408,206730
-72,-22,60,-38,-34,-27,-144,-155,-34,-86,26,-69,164,-146,-43,39,7,44,73,-93,-21,-149,-29,82,-154,766,60,24,42,71,63,206731
268,51,1,-17,34,31,249,224,-119,0,368,49,28,-15,31,321,-69,-78,-197,179,766,148,-101,-200,96,1842,-216,-157,-180,-122,-478,206732
376,90,-32,-19,41,29,381,467,-23,102,438,67,-101,203,41,437,-96,-100,-332,273,1126,271,-140,-306,158,2336,-316,-235,-277,-212,-593,206733
249,80,1,-32,17,7,217,334,-118,41,239,-27,-100,147,-1,353,-53,-26,-263,175,888,192,-106,-206,36,2017,-215,-172,-211,-148,-249,206734
-75,13,72,-45,-31,-29,-174,-89,58,62,-220,-178,208,-204,-61,48,-15,51,-26,-86,146,-72,-80,31,-217,988,27,-26,-35,3,216,206735
-195,-21,93,-48,-40,-30,-310,-149,51,-49,-89,-194,85,-484,-88,-91,7,64,88,-182,-178,-155,-55,137,-267,492,111,33,52,74,337,206736
-189,-4,97,-36,-35,-30,-284,-39,74,-159,-155,-141,68,-292,-110,-89,25,65,129,-164,-192,-134,-16,148,-216,411,116,49,84,73,320,206737
-196,-19,58,-42,-67,-63,-254,-185,85,118,-201,-197,80,8,-85,-79,45,68,160,-140,-202,-106,17,153,-181,370,123,65,110,82,269,206738
-182,-18,50,-36,-67,-66,-195,-132,50,4,-90,-78,170,-226,-117,-45,60,85,161,-98,-154,-54,42,157,-126,418,123,84,124,95,257,206739
-199,-19,82,-16,-54,-54,-223,28,134,-26,-168,-40,128,-78,-83,-78,47,76,166,-132,-248,-85,17,164,-146,288,134,89,128,95,345,206740
-127,-10,74,-16,-24,-27,-162,-61,107,-49,-162,-52,187,-149,-43,-66,-19,5,62,-102,-150,-79,-51,61,-136,428,41,1,49,31,91,206741
273,67,-2,14,73,48,287,311,37,170,236,45,6,52,12,282,-82,-89,-220,205,727,246,-107,-226,161,1641,-234,-175,-173,-151,-562,206742
503,109,-64,20,97,68,554,440,-108,-108,546,177,-89,129,95,511,-126,-147,-417,376,1329,432,-147,-411,294,2523,-419,-296,-341,-280,-868,206743
410,98,-43,1,58,33,446,257,-117,-256,411,63,66,237,165,462,-99,-102,-358,297,1195,343,-123,-339,178,2396,-337,-240,-299,-244,-637,206744
-38,17,56,-37,-30,-36,-73,-144,-73,54,93,-152,124,-36,-19,93,-6,46,-32,-62,238,-41,-40,11,-184,1092,-1,-26,-48,-27,179,206745
-278,-55,75,-85,-86,-70,-366,-412,98,-52,-191,-142,109,-163,-75,-110,41,89,153,-244,-325,-244,-11,185,-320,307,163,80,99,96,436,206746
-238,-35,81,-71,-60,-60,-324,-137,106,-182,-152,24,126,-185,-47,-67,78,103,197,-187,-309,-194,28,219,-241,292,183,121,137,138,390,206747
-232,-36,68,-61,-62,-55,-311,-195,181,-542,-80,-53,-82,-183,-48,-88,71,89,207,-204,-350,-209,32,215,-237,202,185,125,148,145,323,206748
-191,-17,63,-37,-37,-28,-262,-261,16,144,-10,-127,67,-25,-44,-105,51,79,185,-197,-345,-202,31,188,-217,183,152,112,132,124,305,206749
-172,-23,69,-12,-34,-13,-239,-74,-81,19,-278,-62,274,16,-78,-117,24,61,159,-206,-347,-193,11,147,-226,150,122,87,108,96,235,206750
-169,-26,60,-8,-32,-20,-200,-172,11,-47,-203,-25,156,105,-88,-75,61,67,181,-168,-296,-149,52,172,-157,180,138,122,128,111,226,206751
-106,-17,28,-23,-25,-24,-130,-16,-103,-47,-183,-69,33,32,-83,-31,24,25,105,-122,-149,-110,25,97,-103,370,62,59,59,62,144,206752
-70,2,33,-21,-10,8,-123,-125,-103,36,-137,-106,-249,-22,-57,-36,-6,-8,40,-126,-125,-125,-28,48,-117,392,24,6,16,12,125,206753
-102,-21,55,-25,-16,21,-208,-216,-50,-22,-305,-161,-123,-69,-97,-100,-17,-9,41,-173,-247,-166,-46,68,-158,233,28,8,17,16,188,206754
-102,-33,41,-21,-15,20,-188,-158,-1,-160,-238,-154,-43,23,-134,-88,-1,5,46,-138,-236,-139,-37,79,-106,254,25,16,37,23,144,206755
-98,-18,37,-14,-21,5,-161,-111,18,-174,-219,-62,-108,-24,-98,-68,13,39,64,-101,-228,-121,2,93,-81,273,57,43,59,37,211,206756
-132,-31,40,-23,-34,-14,-193,21,-82,37,-178,-186,-1,-183,-61,-106,6,24,59,-131,-319,-172,-7,86,-106,162,62,31,53,28,169,206757
-89,-2,40,-2,-34,-18,-117,-46,-106,111,146,-35,-61,-101,28,-38,22,29,65,-58,-208,-116,16,80,-29,329,47,48,65,35,67,206758
-161,0,46,10,-50,-52,-153,-113,108,59,148,55,-41,63,23,-62,80,96,175,-72,-355,-148,74,192,-52,127,146,137,159,116,241,206759
-147,-14,25,-2,-41,-46,-147,-132,74,-65,118,-5,75,165,29,-55,76,86,157,-52,-338,-135,67,173,-38,133,139,120,152,101,253,206760
-149,-25,39,-7,-26,-21,-188,-147,81,25,146,-275,83,-108,-33,-105,40,43,118,-114,-405,-185,27,133,-107,45,121,69,107,55,187,206761
-162,-30,57,2,-20,-3,-210,-45,94,107,121,-164,136,101,-90,-154,28,32,141,-165,-477,-211,18,151,-149,-78,126,76,116,70,187,206762
-87,-19,20,4,-21,-5,-101,37,43,118,66,-82,-32,50,-78,-82,14,15,70,-110,-278,-133,-4,76,-84,152,39,36,63,24,56,206763
-68,5,30,42,3,16,-62,28,21,-41,-122,-112,-12,-59,-82,-45,46,51,86,-88,-227,-93,28,107,-60,165,72,65,80,62,135,206764
-108,-4,30,31,-9,8,-118,-27,-52,-174,19,-169,69,-9,-81,-88,42,55,123,-141,-300,-114,19,132,-106,21,95,84,93,69,203,206765
-139,-19,32,15,-29,9,-182,-41,48,-270,-15,-170,147,-55,33,-148,38,48,165,-193,-388,-147,38,156,-147,-138,95,104,120,76,197,206766
-115,-25,38,7,-22,11,-174,-68,-119,54,74,-129,137,-161,-4,-139,25,25,138,-183,-341,-127,27,127,-125,-113,78,88,102,57,140,206767
-93,-15,27,15,-15,2,-143,22,-26,167,-27,-83,54,-119,7,-105,19,18,100,-152,-265,-92,31,92,-100,-36,55,65,79,45,116,206768
-88,-7,24,20,-12,-13,-136,20,78,307,-307,13,135,-86,-63,-99,18,26,98,-148,-242,-79,39,94,-86,-34,71,64,87,55,130,206769
-77,-8,31,22,-12,-6,-138,-14,34,6,-36,22,190,-82,-36,-108,13,14,78,-160,-224,-76,19,80,-77,-37,58,54,64,46,69,206770
-159,-19,57,10,-16,-1,-218,-88,72,-51,-112,19,128,84,-42,-163,29,44,147,-216,-365,-123,38,143,-115,-235,112,87,107,76,209,206771
-386,-67,88,-11,-75,-47,-446,-235,159,-24,-433,-180,63,0,-93,-338,94,118,342,-369,-871,-298,100,334,-259,-950,295,214,260,204,619,206772
-480,-73,115,15,-68,-48,-536,-452,112,79,-336,-254,-108,-255,-132,-430,138,162,463,-424,-1176,-397,131,459,-296,-1415,411,310,367,297,878,206773
-519,-75,115,32,-74,-43,-567,-482,116,102,-295,-218,-16,-253,-83,-481,151,175,497,-439,-1363,-460,141,496,-302,-1682,449,333,416,327,737,206774
-176,-20,17,41,-9,-2,-181,-34,38,139,-153,16,-32,111,-9,-201,90,69,234,-136,-641,-185,113,226,5,-690,174,157,225,161,144,206775
26,2,-35,20,15,5,34,39,21,77,4,89,96,224,33,-5,29,-2,30,29,-157,-38,44,27,142,52,-8,37,63,9,-25,206776
35,13,-26,23,26,12,33,100,174,77,-59,100,-25,125,22,-7,23,-1,35,33,-177,-67,51,40,120,98,8,44,55,0,-81,206777
76,20,-33,16,30,16,94,119,69,138,110,120,-112,115,47,36,-2,-31,-13,81,-48,-43,41,-21,141,324,-39,0,2,-41,-240,206778
30,15,-22,11,12,-6,68,102,6,273,14,88,13,-263,52,23,6,-14,-2,57,-106,-82,35,13,101,271,-6,18,9,-26,-182,206779
-33,7,-4,2,-1,-5,-9,-117,49,192,60,44,38,-143,10,-39,8,-3,0,-9,-242,-135,23,39,23,104,19,22,24,-15,-115,206780
-317,-55,60,-25,-55,-19,-366,-306,113,-58,-91,-78,101,-297,-98,-318,30,51,174,-269,-887,-393,33,199,-236,-779,189,113,136,73,492,206781
-1148,-221,231,-50,-199,-137,-1317,-686,250,-128,-694,-430,113,-764,-290,-1089,182,274,815,-987,-2840,-1119,176,844,-885,-3558,797,525,638,473,1825,206782
-1335,-241,285,6,-201,-140,-1460,-952,356,-50,-739,-465,182,-786,-375,-1285,308,383,1142,-1108,-3496,-1239,314,1136,-901,-4668,1041,735,920,706,2080,206783
-974,-164,195,65,-125,-74,-992,-524,339,-8,-326,-307,170,-390,-150,-963,316,316,1014,-776,-2788,-867,357,944,-503,-3907,853,657,835,649,1511,206784
-233,-49,22,103,13,31,-171,139,96,-10,278,-19,64,78,37,-326,157,71,428,-185,-1105,-210,223,349,80,-1682,268,275,386,285,139,206785
150,17,-56,92,75,81,196,37,-13,117,254,197,56,94,40,-9,19,-58,20,69,-145,105,83,-24,279,-352,-67,24,67,4,-430,206786
139,19,-56,77,72,69,181,-18,-73,-104,8,110,-154,146,78,18,39,-24,13,66,-35,129,106,-7,244,-228,-51,38,56,-1,-224,206787
79,10,-56,56,46,44,124,4,-121,36,-107,126,-78,98,40,0,50,-1,60,32,-45,127,119,27,196,-240,-12,73,68,13,-117,206788
56,18,-36,55,45,34,109,12,-19,-409,-35,99,-90,305,-13,1,41,0,75,26,-2,145,115,31,183,-196,-1,81,71,19,-157,206789
46,8,-27,37,37,37,67,-138,-44,-231,16,59,-130,235,8,-21,22,-12,62,4,-29,107,81,27,147,-199,-11,66,53,7,-97,206790
-143,-40,-5,-2,-5,-16,-161,0,-38,-167,-212,-19,-152,-15,73,-187,38,25,133,-168,-442,-72,74,136,-33,-739,95,112,110,62,294,206791
-641,-115,112,12,-93,-66,-708,-425,260,-41,-595,-191,68,-196,-63,-631,157,190,523,-568,-1632,-526,176,548,-411,-2411,488,357,435,330,1085,206792
-865,-162,160,21,-130,-85,-934,-688,282,-195,-495,-288,20,-235,-87,-864,203,245,742,-737,-2287,-751,228,732,-537,-3354,665,488,614,474,1327,206793
-847,-178,148,22,-122,-87,-907,-471,243,-177,-487,-171,1,-247,-98,-874,214,225,789,-696,-2357,-756,256,752,-459,-3511,677,524,649,501,1208,206794
-186,-53,16,74,15,17,-155,106,76,23,-68,118,-79,156,76,-296,112,55,331,-129,-952,-193,184,289,112,-1621,216,230,320,221,27,206795
199,15,-70,84,68,61,295,314,-74,152,234,209,16,237,66,64,5,-67,-49,179,20,129,75,-75,348,-226,-107,-5,17,-39,-441,206796
114,15,-64,73,39,30,215,131,-14,196,192,124,-13,443,115,30,47,-7,28,139,-100,60,108,14,258,-326,-19,73,53,-3,-181,206797
119,15,-67,61,43,32,196,197,-133,-28,158,237,-104,384,111,49,39,-4,5,166,-25,68,98,2,249,-189,-24,39,35,-17,-196,206798
62,3,-40,48,46,41,64,316,-139,-84,63,50,45,21,14,-16,23,-12,-9,92,-143,-10,68,13,165,-311,-24,20,20,-30,-153,206799
25,-17,-20,30,37,47,-44,163,-141,-105,28,-72,-72,-115,27,-87,-19,-51,-19,22,-249,-86,22,-8,88,-428,-36,-9,2,-47,-126,206800
-317,-87,61,-13,-43,4,-422,-165,35,-65,-288,-137,-144,-34,-68,-363,49,63,239,-257,-984,-361,87,255,-190,-1453,219,168,194,117,584,206801
-1498,-285,290,-65,-272,-173,-1664,-1071,401,34,-980,-548,256,-617,-260,-1376,338,454,1177,-1196,-3680,-1331,332,1215,-1044,-5273,1152,800,943,736,2648,206802
-1904,-359,341,-13,-325,-216,-2025,-1182,524,90,-1136,-636,304,-755,-282,-1795,468,574,1617,-1498,-4887,-1668,493,1622,-1203,-7135,1514,1079,1321,1054,3041,206803
-1478,-284,245,60,-202,-126,-1499,-897,423,88,-741,-373,-111,-466,-223,-1492,402,430,1404,-1149,-4169,-1308,480,1336,-757,-6359,1224,932,1164,911,2084,206804
-274,-92,-45,129,33,34,-120,-63,63,208,98,205,-61,193,73,-452,157,51,508,-168,-1476,-236,294,391,219,-2775,307,335,465,325,-29,206805
353,24,-163,130,128,99,586,593,-261,271,413,362,-238,461,205,134,11,-122,-76,319,171,323,141,-162,597,-493,-187,-16,2,-65,-854,206806
263,32,-131,97,96,86,473,338,-235,55,341,272,-472,331,131,86,2,-87,-87,224,165,254,105,-136,435,-449,-146,-16,-26,-81,-538,206807
247,42,-95,86,98,110,398,219,-232,235,216,115,-199,370,95,65,-12,-76,-104,186,169,226,76,-122,357,-396,-134,-22,-46,-80,-367,206808
251,27,-70,68,107,129,340,183,-89,320,83,99,39,92,67,47,-46,-108,-156,154,188,188,34,-166,284,-318,-179,-66,-102,-129,-378,206809
255,28,-55,44,109,121,300,152,8,21,77,78,8,-25,-70,38,-72,-137,-210,134,234,167,5,-196,239,-227,-220,-110,-151,-159,-363,206810
44,-6,-8,37,53,72,57,168,100,52,-141,48,-13,-67,36,-126,-20,-41,-51,-33,-208,-10,25,-22,49,-803,-38,-4,-20,-55,-4,206811
-620,-116,110,22,-89,-53,-653,-354,245,69,-224,-195,-37,-398,-78,-669,144,201,505,-548,-1717,-547,186,539,-426,-2891,504,368,428,316,1073,206812
-932,-186,131,28,-158,-115,-933,-451,272,133,-476,-156,154,-462,-119,-913,255,307,835,-715,-2474,-759,319,829,-529,-4005,782,585,693,540,1453,206813
-814,-177,105,48,-116,-90,-760,-463,264,111,-233,-49,70,-253,-63,-815,255,258,814,-581,-2298,-654,333,775,-350,-3865,710,569,686,533,1219,206814
-110,-48,-33,81,33,29,40,-36,-57,72,342,144,-90,123,108,-206,123,50,304,12,-772,-58,235,249,228,-1815,191,232,302,206,54,206815
246,26,-107,83,90,76,420,270,-10,156,332,301,-177,256,185,103,9,-74,-67,278,143,233,111,-95,421,-524,-118,3,6,-47,-518,206816
206,31,-95,89,84,59,367,184,-29,92,260,321,-194,286,96,94,15,-36,-62,247,149,224,98,-69,345,-481,-82,15,1,-42,-356,206817
194,27,-105,87,70,56,353,151,-77,56,158,173,-157,224,71,78,-9,-64,-107,224,184,202,55,-108,301,-399,-117,-33,-56,-79,-370,206818
183,28,-84,77,67,70,319,90,-68,46,94,35,-153,332,114,46,-34,-93,-147,196,196,182,48,-150,248,-361,-157,-71,-104,-124,-356,206819
175,24,-74,65,61,58,311,143,-103,45,-56,100,-178,182,41,62,-20,-63,-151,201,228,181,48,-126,243,-306,-151,-64,-92,-105,-319,206820
21,-8,-45,50,21,29,153,11,-83,25,-170,129,-41,43,32,-54,23,10,-32,65,-76,59,69,20,117,-725,-18,23,13,-12,87,206821
-671,-142,82,-13,-136,-98,-624,-579,85,-130,-698,-95,69,-198,-105,-641,156,204,502,-483,-1619,-526,193,550,-394,-2847,500,379,424,324,1213,206822
-950,-179,138,-7,-161,-125,-953,-530,167,24,-685,-194,62,-177,-93,-910,226,281,794,-690,-2409,-769,277,809,-523,-3995,755,557,667,534,1518,206823
-737,-155,88,24,-92,-75,-737,-232,197,214,-547,-66,-52,61,-96,-756,212,228,710,-520,-2095,-605,275,694,-301,-3638,636,492,607,488,1095,206824
-72,-42,-56,72,27,24,11,327,81,27,-49,277,-103,336,55,-189,102,37,257,13,-674,-44,190,214,242,-1724,173,204,256,201,12,206825
319,49,-116,104,101,80,460,490,-126,94,289,317,51,421,98,158,-4,-77,-91,299,283,279,91,-120,465,-369,-129,-18,-26,-40,-515,206826
261,44,-98,82,84,80,411,237,-60,71,234,146,-57,262,69,142,-19,-76,-131,254,309,231,57,-138,370,-270,-138,-37,-65,-80,-459,206827
215,28,-77,59,75,65,350,92,-105,-108,128,244,-135,235,116,108,-24,-54,-123,213,265,195,57,-113,309,-280,-111,-27,-67,-74,-327,206828
210,26,-85,53,50,25,352,56,-136,-498,320,192,-165,227,198,127,-22,-54,-142,214,303,204,39,-119,281,-189,-116,-41,-87,-78,-342,206829
213,48,-74,56,69,37,339,167,38,-37,223,153,-294,247,121,137,5,-29,-136,228,332,209,50,-107,260,-120,-112,-49,-79,-72,-290,206830
93,11,-42,27,33,33,142,-38,-34,-25,81,53,-238,51,42,-15,-35,-42,-93,82,38,46,11,-61,84,-482,-70,-37,-56,-54,-91,206831
-255,-79,33,-9,-41,-10,-294,-273,-7,52,-160,-95,44,-279,-45,-365,-19,7,129,-238,-792,-293,16,157,-221,-1607,149,87,103,67,402,206832
-393,-100,67,-3,-54,-25,-426,-249,117,155,-129,-17,246,-166,-63,-476,37,66,295,-331,-1159,-381,89,297,-268,-2164,283,185,231,179,569,206833
-335,-81,21,23,-34,-26,-299,40,116,178,-27,84,143,-135,13,-389,62,72,314,-245,-1037,-287,130,301,-149,-2055,278,207,255,206,458,206834
38,4,-32,66,38,46,113,348,-83,98,216,284,-18,3,150,-62,19,-19,64,71,-233,46,94,36,154,-995,34,62,74,56,-145,206835
227,19,-69,55,70,82,279,374,-127,204,414,121,-80,111,123,83,-59,-102,-135,195,244,201,5,-161,247,-340,-151,-79,-99,-94,-448,206836
239,20,-49,49,85,105,262,276,-97,213,298,137,30,48,44,82,-75,-104,-139,192,320,224,-9,-168,229,-240,-163,-89,-109,-118,-357,206837
201,8,-49,40,82,97,221,210,-12,-43,258,116,120,-44,-75,67,-56,-72,-118,163,280,203,-7,-123,189,-297,-129,-64,-94,-89,-267,206838
191,7,-63,17,51,74,242,43,16,-104,144,99,-54,168,-20,77,-74,-88,-164,172,344,214,-22,-156,186,-201,-151,-98,-122,-108,-308,206839
221,24,-70,29,47,45,297,160,41,-58,255,112,-166,200,29,127,-59,-72,-174,208,454,257,-5,-169,220,-40,-157,-97,-127,-107,-285,206840
90,19,-38,30,18,6,177,163,38,114,188,106,0,223,62,70,30,29,-27,139,208,179,69,-6,154,-367,-4,31,-8,9,41,206841
-150,-30,-5,4,-38,-33,-83,-123,75,127,-274,43,65,7,55,-136,64,84,135,-52,-338,-42,94,157,-30,-1106,154,120,117,106,357,206842
-250,-59,26,0,-37,-26,-255,-235,128,139,-450,-121,32,-18,52,-282,38,60,188,-174,-673,-196,71,185,-147,-1552,182,127,157,123,394,206843
-187,-61,17,-5,-31,-9,-220,-312,126,78,-322,13,76,4,-16,-266,13,10,134,-159,-621,-179,51,133,-103,-1474,106,87,111,82,318,206844
101,1,-26,30,41,43,126,-80,-37,143,-180,263,-85,46,54,-2,-26,-44,-42,98,-3,60,37,-48,141,-610,-61,-19,-20,-19,-152,206845
200,12,-61,27,56,35,249,-5,-139,100,242,163,-138,28,14,102,-58,-87,-171,179,296,154,-12,-163,210,-157,-152,-98,-121,-94,-241,206846
205,23,-54,32,59,50,229,205,31,125,161,124,94,79,25,90,-78,-94,-195,156,295,132,-47,-174,174,-105,-164,-115,-149,-116,-333,206847
204,25,-57,20,49,52,248,299,-77,108,146,187,-76,90,61,108,-77,-88,-200,166,347,134,-64,-175,161,-9,-163,-110,-150,-123,-348,206848
124,17,-53,-10,14,30,191,219,-102,-134,224,137,39,-26,90,86,-34,-40,-147,145,266,100,-29,-116,134,-120,-104,-76,-108,-80,-202,206849
124,29,-47,16,17,20,195,93,-167,12,123,69,67,52,112,101,-5,-19,-82,160,260,122,3,-73,157,-127,-65,-36,-64,-44,-142,206850
130,28,-46,17,17,12,189,-4,-129,153,-32,-26,-116,-10,43,81,-38,-45,-100,138,231,91,-27,-99,124,-134,-82,-54,-85,-58,-153,206851
206,15,-56,14,41,27,235,160,-84,100,105,59,-158,-104,69,124,-66,-86,-182,177,373,132,-60,-169,160,77,-146,-109,-157,-108,-275,206852
202,13,-84,-3,19,12,232,187,-63,94,-50,81,24,-116,51,137,-68,-83,-209,181,436,154,-50,-190,166,188,-176,-133,-169,-124,-335,206853
223,55,-72,30,40,19,302,311,-11,-10,156,100,-66,142,91,209,-19,-31,-159,244,556,241,3,-145,228,341,-130,-86,-124,-87,-285,206854
127,33,-46,21,18,0,190,152,-48,25,-3,106,-135,99,26,121,-18,-23,-109,146,352,153,-14,-88,127,75,-72,-56,-93,-51,-155,206855
48,10,-28,9,-5,-22,79,-73,-15,-84,-111,63,11,-175,47,28,-20,-15,-61,57,158,76,-18,-40,55,-216,-35,-41,-52,-24,-60,206856
27,-12,-30,-12,-9,-26,55,-9,-102,-156,-53,-35,69,-97,34,5,-49,-47,-96,32,153,64,-50,-78,28,-255,-72,-67,-80,-58,-51,206857
-5,-14,-15,-6,-9,-17,22,35,-25,-709,-22,-26,91,-164,55,-31,-25,-23,-50,-11,56,34,-34,-35,4,-399,-41,-36,-50,-23,3,206858
27,6,-27,-2,-10,-12,94,97,-41,-457,184,86,-2,-35,11,-2,-28,-18,-51,15,107,70,-44,-42,32,-328,-30,-41,-47,-25,-62,206859
41,17,-36,-2,-3,-15,158,287,-74,-37,182,35,-15,61,11,45,-15,-13,-39,52,187,108,-8,-44,77,-236,-33,-23,-42,-34,-49,206860
180,41,-64,25,37,0,290,306,-167,83,84,81,75,118,40,140,-57,-77,-144,156,480,205,-44,-151,173,170,-150,-97,-118,-110,-353,206861
543,96,-133,41,103,57,598,324,-198,114,300,104,-115,225,56,408,-174,-221,-476,397,1252,460,-157,-484,389,1298,-455,-331,-392,-321,-972,206862
655,102,-145,12,114,74,670,414,-244,96,338,82,-170,365,87,549,-193,-240,-606,500,1604,563,-198,-593,428,1864,-535,-415,-491,-393,-1056,206863
498,72,-94,-3,75,55,496,279,-180,14,512,140,113,135,51,455,-138,-151,-504,394,1327,444,-160,-451,295,1576,-396,-327,-388,-307,-780,206864
204,44,-15,-16,30,25,178,51,-46,8,142,9,-24,18,-9,218,-54,-32,-249,181,669,189,-86,-181,86,718,-143,-147,-181,-144,-198,206865
28,8,4,-23,-2,-11,-17,44,16,-14,-105,-34,5,-33,1,57,-9,21,-75,44,226,27,-37,-41,-26,117,-16,-51,-71,-29,104,206866
-12,-13,-5,-28,-25,-47,-39,31,139,160,129,13,94,55,29,6,-39,-17,-49,6,93,-34,-74,-34,-48,-52,-20,-47,-65,-34,-4,206867
-31,-9,11,-17,-25,-51,-45,74,153,166,110,19,75,-60,70,-8,-24,-1,-22,-4,5,-50,-64,-8,-44,-187,6,-31,-26,-10,21,206868
-42,-16,-7,-12,-35,-62,-37,140,86,444,0,-5,-105,-110,44,-16,1,8,-43,3,-13,-47,-34,-12,-34,-212,-3,-40,-17,-10,2,206869
-18,4,-21,16,-32,-51,21,102,18,-16,93,50,-36,-64,157,26,35,44,-14,59,43,-4,5,9,15,-161,17,3,3,23,5,206870
53,14,-44,7,-23,-39,120,18,-88,42,167,6,-11,-16,65,104,10,2,-56,123,232,79,-5,-50,92,91,-33,-34,-40,-10,-164,206871
186,26,-58,-2,20,-5,254,184,-195,-19,167,53,41,214,34,217,-44,-50,-174,228,566,201,-47,-168,189,546,-153,-119,-138,-95,-325,206872
237,48,-32,-1,51,33,263,260,-130,33,114,70,89,25,3,241,-36,-52,-212,236,651,239,-55,-186,191,676,-168,-139,-167,-115,-256,206873
219,47,-29,-2,38,35,216,183,-102,43,33,-62,269,11,25,213,-34,-38,-189,207,602,212,-56,-169,151,648,-163,-135,-156,-114,-256,206874
4,-9,-15,-27,-25,-21,-11,-20,-2,-108,98,-19,119,68,-29,18,-33,-11,-62,4,159,18,-50,-54,-40,63,-43,-64,-77,-50,-28,206875
-99,-13,31,-25,-19,-32,-111,-164,-9,-126,2,-53,10,351,3,-58,5,24,26,-77,-107,-67,-12,35,-95,-307,48,-5,9,24,161,206876
-50,-8,26,-21,-12,-13,-70,-92,43,-108,-28,-114,-43,19,-35,-20,-4,10,-13,-63,-39,-34,-5,4,-46,-222,17,-28,1,13,79,206877
-14,-18,18,-28,-7,-1,-42,15,45,312,61,-2,-138,-131,-50,-20,-27,-10,-32,-57,-7,-24,-32,-40,-29,-178,-14,-32,-19,-29,38,206878
3,-17,-13,-21,-12,-22,0,-148,-59,119,1,107,-159,-204,40,4,-28,-7,-25,-38,29,-12,-48,-28,-6,-144,-9,-35,-12,-14,67,206879
41,17,-22,16,7,-10,77,-118,47,158,34,181,-1,-112,-5,45,-3,20,-8,16,102,35,-19,-10,49,-42,5,-6,-9,8,-29,206880
187,46,-32,34,42,23,207,-37,119,95,-2,216,54,-73,20,139,-33,-46,-139,114,380,129,-60,-140,138,356,-116,-104,-109,-92,-297,206881
514,97,-74,45,103,87,542,353,-121,41,296,177,19,122,85,430,-109,-156,-406,383,1152,409,-115,-406,370,1443,-382,-285,-325,-264,-859,206882
605,112,-107,18,107,79,631,399,-190,-33,142,183,-33,58,110,560,-129,-173,-505,480,1499,517,-141,-501,411,1966,-469,-336,-407,-337,-919,206883
463,86,-90,-16,62,22,464,361,-178,100,94,155,94,-69,121,463,-123,-130,-433,379,1287,416,-142,-420,281,1723,-379,-295,-364,-285,-667,206884
95,24,7,-38,-12,-19,50,77,41,-26,-104,-75,38,-158,21,122,-63,-33,-193,71,461,82,-112,-157,-43,620,-114,-136,-175,-139,-166,206885
-77,-16,42,-40,-28,-19,-154,-48,196,-160,-62,-50,-44,-217,-4,-73,-56,-17,-65,-93,-29,-96,-101,-32,-189,-45,-12,-73,-80,-65,129,206886
-29,-15,16,-28,-14,-19,-117,44,33,-193,47,-37,91,-190,2,-60,-79,-53,-88,-66,13,-63,-117,-72,-143,-16,-62,-103,-103,-78,31,206887
-25,-16,-9,-32,-27,-38,-83,-1,27,157,49,-13,186,12,-34,-35,-61,-55,-83,-35,47,-42,-106,-73,-102,9,-69,-102,-93,-76,-88,206888
-61,-19,-12,-27,-42,-58,-83,-98,-32,421,-41,36,-160,103,-52,5,21,38,21,0,18,-1,-28,27,-54,-74,34,-8,12,24,-12,206889
-88,-24,-16,-27,-55,-58,-80,-18,-60,131,22,31,-45,38,-16,17,40,63,63,7,-7,5,-6,68,-22,-107,78,24,45,52,47,206890
-80,-11,-3,-16,-37,-37,-67,149,-4,27,103,-17,50,4,-31,14,67,78,80,16,-26,8,26,89,2,-143,94,54,67,70,118,206891
68,30,-20,4,13,9,83,-1,41,-25,13,70,-39,110,-11,130,40,29,-29,122,254,120,-4,-22,111,249,-17,-20,-9,4,-56,206892
194,34,-33,-5,39,39,187,-60,-137,-161,62,-70,-46,113,22,198,-39,-55,-178,172,505,174,-84,-160,141,618,-154,-132,-138,-110,-309,206893
215,25,-44,-14,28,21,194,-5,-128,-117,-35,-30,70,-133,46,199,-74,-74,-237,162,579,174,-116,-216,123,746,-197,-179,-187,-150,-357,206894
59,12,-5,-11,-2,-4,41,-134,58,99,-32,-15,30,-233,11,78,-23,0,-102,33,262,64,-67,-73,10,325,-55,-71,-71,-53,-99,206895
-55,-6,30,3,-12,-8,-71,-208,41,-90,-213,-89,-59,-38,-58,-15,13,39,23,-57,-17,-36,-19,43,-54,-55,41,4,21,28,93,206896
-50,-22,8,-27,-29,-18,-74,-146,82,-137,15,-144,0,59,-47,-36,-27,-14,-35,-89,-15,-68,-63,-13,-72,-51,-14,-50,-37,-15,7,206897
-22,2,35,-18,-2,2,-74,83,59,182,6,-89,53,94,44,-22,-15,-3,-42,-65,-4,-50,-57,-2,-51,-46,-13,-39,-20,-4,88,206898
-31,-6,19,-13,6,-8,-85,47,-113,281,-95,-116,-40,62,2,-29,-5,7,0,-77,-42,-48,-50,18,-54,-106,8,-11,14,17,94,206899
-30,-17,3,-24,-7,-8,-83,10,-97,-78,-50,-41,-53,158,19,-34,-25,-14,0,-87,-42,-43,-53,-6,-60,-100,-2,-20,-5,-6,63,206900
-7,-8,-14,-24,-15,-23,-81,-26,-52,-116,119,62,12,155,29,31,-7,10,-11,-19,55,18,-15,-16,-6,26,-18,-18,-4,-9,-49,206901
317,71,-40,3,67,41,263,197,-47,17,523,219,66,286,138,346,1,-19,-183,290,785,329,-3,-184,287,1002,-195,-116,-122,-101,-503,206902
452,76,-51,0,87,69,401,284,-98,-65,476,249,21,366,113,447,-57,-85,-339,381,1140,427,-74,-322,336,1520,-314,-215,-257,-214,-660,206903
382,45,-60,-40,53,60,336,259,-128,-11,294,58,-105,89,73,343,-155,-161,-424,269,1021,303,-182,-398,198,1433,-368,-295,-343,-284,-658,206904
105,7,5,-44,5,33,67,-19,-4,-113,-123,-123,50,-250,-26,79,-127,-98,-251,26,385,24,-180,-214,-71,597,-188,-193,-215,-185,-119,206905
-96,-19,28,-39,-35,-14,-91,-179,110,-84,-262,-167,-66,-188,-56,-44,-40,-13,-51,-79,-48,-110,-91,-21,-159,2,-18,-55,-52,-47,141,206906
-67,0,35,-8,-30,-30,-48,-94,22,-41,-106,8,9,-240,-43,-4,23,42,10,-26,-51,-64,-2,34,-75,-18,33,-5,14,22,145,206907
-45,8,15,7,-26,-46,-22,115,-18,116,-82,-77,116,-191,-30,16,43,59,39,-2,-43,-48,24,47,-39,-16,50,18,41,50,111,206908
-61,-6,9,-7,-23,-27,-68,-83,24,338,-11,-70,129,-262,-81,-24,15,45,69,-39,-120,-90,1,57,-62,-109,56,33,45,43,144,206909
-83,-32,14,-27,-31,-24,-120,-128,139,-40,-52,-96,125,-114,-36,-65,-15,13,37,-85,-203,-134,-37,44,-93,-215,45,7,28,24,123,206910
44,2,0,3,8,1,30,39,125,-68,68,-30,208,42,19,46,-7,4,-18,44,58,-3,-19,-15,42,113,-15,-25,-3,-5,-19,206911
223,43,-46,23,37,27,262,142,-53,-6,116,75,6,169,28,246,-2,-16,-140,212,532,199,-13,-131,208,766,-133,-90,-89,-74,-287,206912
289,63,-55,26,49,29,352,252,-56,-39,184,148,-78,229,77,335,-20,-42,-205,269,774,278,-36,-200,248,1116,-197,-129,-157,-119,-426,206913
249,58,-30,0,43,30,289,94,-73,25,227,42,-89,224,52,288,-47,-65,-237,213,731,233,-82,-226,173,1081,-205,-153,-192,-148,-426,206914
-11,3,0,-44,-23,-15,2,-125,34,-156,75,-235,-25,101,-88,70,-21,-4,-84,6,224,28,-61,-73,-34,384,-46,-62,-83,-55,70,206915
-123,-17,26,-46,-40,-32,-129,-118,-5,-277,-111,-151,15,104,-77,-33,27,54,64,-88,-78,-58,5,70,-104,-66,76,40,36,45,207,206916
-94,0,33,-19,-28,-22,-87,-60,25,-244,-1,-58,-24,68,5,-10,56,72,92,-65,-55,-7,31,87,-62,-71,83,65,64,63,160,206917
-146,-16,39,-21,-45,-37,-148,-376,72,324,-305,-97,84,118,-38,-72,58,64,120,-117,-193,-48,40,113,-111,-287,111,84,89,69,273,206918
-73,-10,34,-2,-10,0,-100,-241,32,323,-280,20,118,28,-21,-34,34,38,60,-79,-83,-11,16,53,-65,-159,52,41,44,34,164,206919
-41,-28,22,-13,-6,13,-101,-172,-30,-10,-163,-160,162,-93,-58,-60,-28,-25,-19,-100,-68,-29,-51,-24,-87,-122,-19,-31,-16,-17,49,206920
94,-5,4,0,27,45,34,-59,25,-204,20,-229,-47,-150,-87,10,-79,-88,-115,-29,152,40,-90,-127,-17,194,-118,-113,-97,-94,-190,206921
309,47,-53,9,68,55,334,82,-7,-148,211,7,-19,29,-9,249,-86,-104,-237,192,703,251,-93,-245,187,957,-235,-177,-203,-168,-451,206922
370,87,-65,23,62,39,471,91,-75,21,564,201,-24,138,50,382,-35,-41,-247,315,951,360,-39,-240,273,1333,-224,-139,-203,-150,-477,206923
271,64,-59,-13,23,4,344,209,-172,-35,250,119,-75,261,46,311,-43,-34,-246,233,792,260,-53,-226,166,1190,-198,-135,-196,-155,-392,206924
-3,7,-16,-41,-46,-47,-20,-97,-13,-69,6,1,144,211,11,64,-3,34,-51,4,184,11,-26,-47,-53,371,-19,-18,-50,-43,140,206925
-115,-15,27,-33,-46,-44,-166,-330,-38,88,-107,-88,231,140,27,-42,43,84,97,-82,-143,-92,25,98,-114,-110,101,73,70,61,268,206926
-117,-15,26,-38,-47,-43,-139,-280,-40,35,-123,-128,2,200,-17,-24,78,104,116,-56,-151,-65,57,121,-75,-145,130,89,112,87,345,206927
-96,-14,20,-26,-41,-35,-111,-271,41,-71,-65,-69,75,110,-79,-14,63,72,105,-38,-119,-47,55,102,-44,-108,106,71,92,84,268,206928
-33,8,36,4,-7,1,-71,58,93,-215,-69,-80,77,68,-38,10,26,38,79,-15,-63,-17,20,68,-17,-23,70,46,57,60,178,206929
-70,-13,21,-28,-17,-13,-102,51,139,-30,-102,21,16,3,-66,-27,5,17,42,-44,-106,-52,0,48,-62,-93,56,16,32,38,103,206930
-60,-15,28,-37,-7,1,-108,-172,69,-40,-136,25,62,36,-55,-30,9,9,27,-48,-76,-35,1,18,-50,-68,24,3,22,21,95,206931
75,12,-6,-29,20,18,61,-86,-61,-128,-6,41,-27,22,-33,87,-16,-32,-65,58,222,87,-22,-82,52,359,-74,-46,-57,-55,-184,206932
145,24,-26,-20,14,3,150,150,-7,-184,173,35,-132,86,13,148,-24,-40,-94,114,394,141,-38,-124,90,594,-101,-63,-92,-89,-261,206933
118,11,-18,-32,9,1,79,125,-20,-82,89,4,-210,68,-64,93,-73,-72,-155,42,314,67,-93,-169,12,525,-138,-110,-139,-133,-216,206934
-12,-15,37,-30,-5,10,-118,-40,77,82,-155,-150,106,-176,-16,-52,-58,-41,-66,-86,-31,-77,-92,-66,-130,50,-50,-67,-77,-79,86,206935
-58,-18,35,-24,-7,-5,-157,-52,151,301,12,-78,33,-179,-1,-62,4,25,35,-87,-146,-88,-27,37,-119,-133,48,18,28,21,160,206936
-20,4,19,-3,-11,-10,-68,71,32,378,-110,66,-224,-37,23,4,33,41,33,-13,-54,-36,10,41,-38,1,53,27,37,44,32,206937
-1,4,6,-8,-16,-14,-37,-21,-40,299,-92,30,-120,-76,-41,12,13,18,9,-9,-16,-41,10,8,-35,57,18,7,6,8,32,206938
-21,-3,34,-3,7,5,-98,20,-45,296,73,-138,55,24,-76,-34,18,22,31,-50,-121,-92,20,19,-73,-90,25,23,11,11,85,206939
-9,-5,32,13,15,10,-77,-107,7,80,95,-17,103,-26,28,-30,12,15,30,-45,-126,-96,5,16,-68,-92,30,19,11,9,11,206940
31,11,20,10,8,6,27,143,35,-21,230,29,-105,123,25,33,16,21,-6,13,5,-31,10,-13,-11,84,7,13,-8,1,-76,206941
90,17,-14,-11,14,3,144,303,-2,-174,-5,44,-179,14,70,102,-21,-22,-86,76,199,41,-29,-94,28,363,-68,-48,-75,-61,-200,206942
110,37,-15,6,17,9,164,228,38,-95,236,-46,29,-116,38,86,-48,-55,-117,59,253,50,-46,-129,26,428,-107,-72,-106,-96,-205,206943
98,32,-8,5,15,8,118,20,8,-204,100,-69,-38,-47,-25,83,-59,-64,-105,42,264,60,-54,-126,2,418,-112,-84,-117,-106,-123,206944
0,12,6,-6,-3,-8,-16,-18,-90,-108,138,-54,-80,-5,49,9,-28,-21,-22,-26,77,6,-16,-42,-70,131,-40,-35,-60,-48,89,206945
-19,15,25,2,-6,-7,-43,-170,-37,30,154,-91,-75,-59,40,16,38,48,53,9,30,37,44,47,-27,30,48,44,32,30,138,206946
-33,-1,15,-6,-15,-19,-63,-25,-68,-36,-48,24,9,-107,-18,17,57,61,68,-5,-4,49,56,68,-25,-13,81,52,62,50,158,206947
-54,-4,30,11,-1,-6,-97,-53,79,-296,12,-31,3,-75,-67,-31,40,43,70,-57,-88,8,27,59,-65,-128,76,40,50,38,187,206948
-13,10,39,15,23,22,-68,-63,78,-530,76,-120,135,89,-29,-49,-11,-7,19,-54,-57,-10,-12,6,-73,-96,12,-4,-10,4,179,206949
-44,5,44,5,23,10,-91,89,-92,67,-160,-127,59,18,-51,-73,-20,-2,47,-91,-133,-33,-16,20,-98,-181,32,10,23,6,197,206950
-58,-4,15,2,-6,-33,-62,139,-16,117,-238,-51,126,-42,18,-59,-13,5,69,-74,-121,-25,-17,31,-74,-172,32,36,35,22,149,206951
28,14,-9,9,-7,-21,42,21,21,48,63,-4,138,-59,84,23,-27,-24,-3,11,92,46,-22,-38,1,99,-31,-16,-28,-15,-79,206952
71,28,-10,3,11,-5,66,51,-19,10,215,7,-13,202,24,59,-32,-25,-50,46,184,68,-22,-71,21,238,-59,-41,-52,-46,-134,206953
70,29,12,8,21,8,55,54,1,94,119,-20,-142,161,24,53,-11,-17,-39,31,156,55,-11,-47,11,221,-39,-25,-40,-30,-103,206954
14,15,28,8,15,9,-22,149,38,3,-228,-11,10,-115,32,-8,5,-3,10,-19,0,-18,-5,-9,-41,33,4,-1,-14,-7,5,206955
-52,-1,15,7,-8,-12,-74,199,-86,34,-247,-26,26,-335,-32,-59,5,12,44,-79,-145,-86,-10,32,-78,-156,36,22,4,11,133,206956
-67,-6,19,15,-1,-11,-83,20,-52,17,-144,49,210,-189,3,-68,12,18,49,-76,-205,-117,-11,40,-81,-218,52,40,26,22,133,206957
-41,-11,4,16,-7,-24,-53,-42,-35,-128,-36,-13,85,-87,59,-50,-19,-1,4,-63,-169,-118,-41,8,-68,-137,32,2,-12,1,-28,206958
-5,-2,-8,6,-10,-29,-5,-69,57,-98,86,3,112,33,13,-11,-31,-27,-43,-19,-57,-79,-38,-36,-36,20,-15,-27,-54,-38,-12,206959
4,-3,-9,-19,-20,-31,10,-90,44,-46,57,83,-26,0,11,17,2,-5,-3,24,1,-43,-18,-8,-1,73,11,9,-18,-11,57,206960
-69,-16,-7,-25,-31,-31,-25,59,-80,118,-40,-71,115,9,23,-16,18,23,69,-15,-108,-77,6,59,-33,-82,69,53,43,39,133,206961
-9,6,-8,-3,-4,-9,28,-80,-106,120,-123,37,-57,144,63,19,2,3,25,0,-14,-28,-17,3,-7,40,26,24,11,10,-5,206962
21,-5,-22,-18,-4,-10,50,-9,-77,72,18,58,-91,71,35,19,-33,-29,-52,5,66,-4,-51,-60,-3,142,-41,-35,-50,-43,-82,206963
1,1,1,2,4,-1,21,-83,123,-37,-74,14,-41,-23,-16,36,25,23,6,17,47,26,4,15,3,85,21,19,0,0,62,206964
-68,-17,-5,-16,-5,-29,-110,-216,24,-109,68,-68,-144,-141,-21,-30,17,10,27,-62,-102,-25,2,39,-52,-130,29,23,12,18,158,206965
-58,-15,9,-14,-5,-10,-130,7,-52,-27,40,-13,-28,-241,-51,-59,-20,-18,9,-84,-114,-43,-31,11,-70,-180,1,1,-7,-8,44,206966
-29,5,23,16,4,9,-55,-39,49,135,35,12,-167,138,36,-29,7,13,31,-31,-46,14,-8,23,-33,-119,38,18,24,8,52,206967
-16,0,26,13,6,19,-20,-208,59,-118,148,19,-135,68,55,-14,6,10,29,-9,5,50,1,18,-11,-72,31,22,18,7,71,206968
8,4,14,-6,3,24,0,-248,23,124,-22,9,-72,88,-58,-10,-41,-42,-29,-6,74,43,-30,-51,-9,28,-37,-34,-51,-52,-41,206969
28,16,33,4,21,39,4,68,86,79,72,-6,39,15,-29,4,-39,-38,-21,2,89,61,-30,-44,-4,32,-30,-20,-41,-35,-52,206970
96,25,14,5,39,45,86,79,-126,-109,315,37,-9,164,13,70,-32,-42,-56,62,247,123,-29,-77,55,268,-56,-56,-68,-54,-157,206971
209,48,-9,7,54,51,214,351,-148,25,252,55,56,178,21,176,-56,-64,-173,164,529,210,-49,-185,135,687,-162,-121,-150,-128,-342,206972
241,43,-36,-15,52,31,246,265,-58,12,12,102,-19,-14,26,204,-94,-102,-248,159,632,220,-85,-255,126,869,-225,-167,-210,-180,-453,206973
197,51,-32,2,30,16,216,57,-104,-151,36,128,-223,83,8,197,-58,-52,-177,137,551,191,-57,-174,87,792,-154,-107,-161,-129,-298,206974
6,21,0,-3,-13,-29,15,-85,-194,-83,3,-18,-97,161,2,59,16,38,15,14,127,24,4,19,-42,241,33,27,-8,-5,154,206975
-69,0,3,-12,-23,-31,-76,-43,49,-45,-8,-116,-105,-214,-57,-15,24,28,68,-38,-76,-68,10,62,-79,-8,77,60,34,28,199,206976
-69,-6,-5,-20,-12,-24,-67,-88,-26,-123,-99,-75,-109,-124,-34,-17,12,18,65,-27,-116,-107,2,50,-69,-10,62,40,40,20,139,206977
-54,-2,-1,-6,-11,-21,-26,56,-43,-52,51,-26,17,-119,5,2,13,27,57,-19,-104,-116,-6,36,-53,28,57,22,35,26,69,206978
-36,0,7,-19,-26,-26,-6,49,72,-241,131,-11,123,-84,24,13,10,25,22,-7,-78,-107,1,13,-30,86,34,5,15,7,32,206979
-94,-8,35,-13,-30,-23,-87,-31,53,-77,106,-85,105,-72,1,-27,50,61,61,-45,-233,-164,32,81,-76,-115,96,39,62,46,141,206980
-11,2,-1,-20,-5,-8,34,10,28,83,122,-37,3,117,35,51,11,11,-28,26,-26,-75,-15,-18,1,155,13,-21,-15,-7,-65,206981
130,23,-35,-18,23,24,184,218,-37,18,247,63,-102,148,-14,143,-56,-75,-150,112,323,50,-65,-167,80,615,-126,-102,-126,-114,-326,206982
152,34,-35,-11,26,31,194,257,-35,-57,-56,58,-26,22,13,166,-56,-70,-162,124,398,94,-66,-169,80,712,-137,-110,-133,-131,-294,206983
158,48,-25,3,32,15,177,331,-12,-19,-12,58,30,-70,101,169,-29,-39,-135,139,441,143,-51,-137,83,718,-110,-83,-117,-101,-209,206984
81,35,12,5,23,8,52,334,-7,5,-129,-32,-119,-99,3,77,-16,-20,-53,48,256,93,-34,-64,6,436,-48,-38,-63,-60,-164,206985
-3,-8,38,-19,14,17,-96,216,64,-33,-241,-70,-32,-19,-53,-36,-21,-22,1,-49,40,8,-37,-5,-77,109,2,-23,-25,-27,-64,206986
-13,-14,37,-25,11,22,-103,108,64,50,-110,-77,42,-87,-43,-18,8,-6,43,-28,54,41,-21,17,-48,70,18,9,-1,3,39,206987
-50,-17,11,-49,-26,-15,-98,27,31,18,-133,-62,-55,-114,-40,-9,21,13,45,-20,40,58,-7,34,-30,40,32,20,20,18,87,206988
-98,-18,0,-32,-40,-53,-103,18,-6,73,-154,-63,-44,-136,0,-31,42,42,46,-50,-38,40,-7,62,-41,-85,73,26,45,34,88,206989
-76,-9,-17,-15,-36,-57,-33,-100,-45,-53,-24,1,-158,6,9,0,36,27,36,-26,30,75,12,39,2,-8,39,22,33,25,69,206990
-33,3,-22,-11,-26,-31,-1,-126,30,-46,-28,47,-136,-77,-74,15,3,-1,-21,-10,82,63,-18,-18,-2,75,-10,-24,-20,-20,-76,206991
112,38,-8,12,11,10,118,40,55,23,-57,35,85,32,22,117,-12,-19,-79,104,344,154,-30,-84,89,440,-76,-52,-58,-53,-214,206992
134,22,-7,-11,13,19,113,-38,-45,150,-54,12,195,-117,-54,118,-35,-35,-103,114,386,140,-43,-113,86,543,-100,-78,-86,-77,-205,206993
118,3,-12,-25,7,17,91,-94,-69,25,89,-22,360,-264,-32,104,-58,-48,-125,87,355,98,-55,-130,50,549,-112,-95,-102,-104,-172,206994
42,-2,19,-18,-3,8,27,-145,12,-15,245,31,219,-134,-29,40,-46,-41,-74,5,160,12,-52,-66,-29,343,-59,-62,-57,-72,-109,206995
-41,-4,38,-4,-7,2,-57,-18,38,31,163,-56,128,-60,-15,-32,-4,-8,8,-60,-75,-94,-24,12,-95,52,20,-8,2,-23,100,206996
-98,-11,36,-11,-19,-16,-117,-86,88,171,17,-65,65,-223,-42,-82,21,27,63,-91,-247,-167,-8,60,-130,-151,88,32,48,20,207,206997
-16,15,28,11,4,-2,-24,141,76,-162,100,15,-146,-87,-16,12,47,27,71,2,-89,-78,23,58,-27,63,72,42,62,38,9,206998
-75,-5,18,-16,-36,-28,-95,58,73,-241,-57,-16,-38,-308,-39,-27,43,39,108,-37,-196,-127,25,98,-69,-60,100,67,93,70,78,206999
-35,3,18,-5,-13,-19,-85,28,12,28,-139,62,-34,-61,30,23,62,59,106,13,-104,-65,37,94,-12,31,104,67,97,83,53,207000
36,22,16,1,7,0,-39,141,-52,88,-71,156,21,18,79,86,44,33,43,84,98,27,34,33,60,273,44,34,44,40,-40,207001
112,21,9,4,13,12,6,184,10,169,227,113,-22,-153,28,132,-1,-23,-66,121,282,101,-6,-68,102,541,-57,-45,-39,-25,-138,207002
103,1,-9,-23,1,-1,10,99,29,-44,78,144,-23,-49,-26,115,-43,-66,-101,92,331,92,-48,-112,68,591,-114,-84,-90,-70,-205,207003
67,16,5,4,11,12,64,-14,5,50,143,88,112,131,35,106,-7,-18,-26,81,276,92,-26,-43,66,481,-46,-33,-32,-21,-170,207004
-44,10,38,-2,-17,-9,26,38,55,97,73,-5,94,-117,-35,30,32,36,38,4,53,22,-6,49,-15,172,52,27,30,40,-5,207005
-89,-5,22,-25,-30,-29,7,46,0,-110,-104,-61,-6,16,-58,3,22,23,45,-26,-30,-3,-3,47,-30,74,47,24,28,35,56,207006
-51,-2,21,-15,-9,0,-20,-126,-17,-327,-195,-88,153,-102,-25,-23,-28,-23,-11,-41,-22,-28,-30,-19,-38,79,-20,-17,-22,-19,-64,207007
-31,-4,15,-15,-10,0,-45,-52,8,-54,-269,-27,-67,-206,-14,-47,-38,-22,-26,-57,-61,-50,-36,-39,-51,28,-22,-36,-24,-35,-43,207008
16,-11,0,-16,-1,7,2,100,-73,-143,-114,34,-138,-118,2,-13,-43,-48,-34,-23,37,-8,-31,-57,-2,163,-44,-40,-47,-43,-88,207009
59,-3,-2,-5,12,24,36,-133,-60,-68,-129,50,-12,-7,-127,20,-30,-50,-50,12,125,18,-26,-68,23,271,-67,-52,-63,-50,-61,207010
48,5,15,13,16,26,24,70,59,39,196,102,-44,-38,-81,27,-3,-8,-5,8,81,12,-4,-10,9,214,-18,-14,-15,-18,-21,207011
-36,-6,21,15,-6,-9,-46,51,119,-7,94,48,-155,17,46,-35,11,26,55,-51,-87,-63,-3,51,-42,-29,47,26,34,22,110,207012
-81,-12,17,9,-20,-16,-71,34,-1,-50,-21,89,-46,106,89,-57,12,30,75,-72,-175,-86,4,66,-64,-139,56,41,45,37,172,207013
-58,-8,9,4,-14,-5,-45,28,33,-94,-104,64,15,111,32,-14,49,51,95,-24,-133,-39,44,81,-7,-106,89,63,73,65,241,207014
-40,-7,-18,-15,-21,-24,8,24,19,-134,-198,152,-73,170,-16,36,59,63,80,25,-14,24,68,72,41,24,81,70,75,65,107,207015
13,12,-3,-5,-11,1,42,-88,-43,-122,-80,224,54,353,31,73,41,37,37,59,104,77,46,34,64,168,33,30,34,30,6,207016
13,-14,31,-36,1,41,-37,-244,-2,-317,-128,54,56,88,-12,15,-26,-33,-28,6,85,44,-22,-43,1,136,-29,-39,-41,-21,-2,207017
55,-23,46,-28,35,79,-41,30,16,-137,-133,-40,-29,63,-5,12,-39,-49,-50,17,145,74,-48,-61,16,223,-49,-53,-51,-32,-44,207018
19,-12,39,-15,27,56,-40,126,26,51,-263,-85,68,-17,-39,17,20,10,47,14,90,84,7,40,20,132,41,32,30,42,-10,207019
7,5,-6,3,4,7,10,-30,32,-82,-191,-16,-158,-47,-23,21,13,2,64,11,93,91,19,47,20,121,29,35,36,43,21,207020
-28,8,7,28,-8,-4,-13,-135,103,52,-276,-15,-121,-187,-53,-36,22,19,97,-54,-45,23,29,68,-39,-61,60,57,58,63,144,207021
-54,1,23,26,0,3,-35,-216,98,158,-116,-64,207,-150,-53,-79,23,15,74,-76,-139,-28,21,68,-53,-166,50,32,51,56,135,207022
2,8,14,28,14,21,-6,-90,5,94,-208,-5,89,15,2,-22,20,9,31,-27,-47,5,20,35,0,-26,22,17,28,41,22,207023
17,6,8,10,12,21,-12,-134,-47,64,-201,-10,57,90,29,-8,22,14,34,-9,-26,-5,19,35,25,18,26,26,39,37,1,207024
21,-3,-7,-6,4,17,15,-34,50,69,31,98,126,34,-134,15,4,-2,10,25,31,-4,-1,16,48,122,3,4,13,31,-36,207025
16,6,10,0,7,19,17,58,26,-91,9,153,206,-45,-45,11,12,13,39,9,-16,-30,-4,31,30,102,23,12,23,41,52,207026
8,-6,-14,-9,-8,-7,2,-24,51,-70,-103,-123,31,-2,-32,0,-15,-6,-9,-5,-28,-63,-27,-9,-2,100,-6,-20,-15,5,-16,207027
56,10,-20,-8,8,-1,59,79,-20,132,-42,-44,126,174,-8,53,-9,-11,-35,45,75,-23,-14,-25,43,254,-33,-21,-28,-5,-94,207028
21,6,-1,4,4,4,18,129,-116,86,-80,29,96,33,46,28,6,8,-11,9,-4,-58,-7,3,14,188,-6,-2,1,-7,19,207029
-7,-6,-12,3,-5,-7,-14,65,-87,-45,-138,-55,-5,-110,54,-17,-13,-26,-40,-21,-65,-101,-33,-22,-42,102,-29,-37,-29,-33,-43,207030
29,14,-10,7,9,18,21,49,-55,-47,-163,-20,-114,-6,-7,22,16,-6,-21,21,0,-47,5,-25,-5,167,-17,-15,-24,-20,-77,207031
74,14,-15,-3,16,13,72,92,-40,-54,-60,51,-28,85,-35,85,14,-4,-13,71,130,35,15,-29,57,339,-31,-3,-14,-14,-60,207032
127,11,-29,-2,18,9,129,85,50,45,81,81,19,104,10,135,-11,-28,-75,116,286,93,-33,-85,97,539,-89,-51,-70,-49,-174,207033
93,5,-30,-16,4,-7,89,188,-4,61,-161,139,42,-32,-13,99,-35,-42,-122,77,269,69,-54,-108,44,510,-110,-83,-101,-86,-84,207034
30,5,-6,-11,-1,-2,19,92,25,-106,-14,16,-148,-59,-54,42,-13,-4,-66,26,137,42,-20,-45,-6,299,-51,-36,-51,-39,54,207035
-10,-1,-11,-18,-12,-17,4,-149,26,-89,45,24,-35,140,12,18,-10,7,-33,0,89,51,-14,-21,-21,196,-31,-25,-31,-14,14,207036
-53,-6,-22,-8,-30,-35,3,-95,-18,-93,-105,-1,-57,-74,-50,18,12,31,1,-13,80,84,10,24,-19,134,6,6,3,22,79,207037
-97,12,-13,-1,-34,-29,-40,-175,-27,-102,-70,-62,49,-4,-59,-7,53,59,95,-24,2,87,63,95,-14,-39,72,68,67,71,220,207038
-59,-5,-7,-1,-11,-9,-30,-8,77,-17,-13,-59,-267,157,-46,-20,18,24,68,-33,41,94,30,49,-3,-15,36,30,43,48,64,207039
-58,-18,19,-8,4,17,-75,186,17,112,39,-119,-71,73,-173,-63,-21,-14,28,-79,-14,49,-11,11,-39,-72,3,-10,9,28,42,207040
11,-17,11,-14,11,31,-35,-19,-54,-141,-4,-113,-134,-114,-155,-37,-28,-38,-16,-47,70,71,-7,-21,5,68,-47,-34,-26,9,-62,207041
9,-30,11,-17,1,13,-19,-163,104,-91,-78,-94,-40,-168,-64,-33,-39,-31,-8,-35,64,44,-13,-15,7,78,-47,-34,-28,17,-21,207042
-19,-11,13,0,-1,-3,-46,-34,68,51,-9,32,47,-36,-34,-37,-5,12,57,-32,-31,9,12,42,3,-7,24,12,17,61,98,207043
-35,-17,-2,-8,-13,-17,-69,174,47,211,112,89,-78,-150,-38,-46,2,17,52,-40,-82,-33,18,46,-1,-19,41,13,30,69,165,207044
-4,-7,5,0,-5,-2,-24,114,3,120,42,63,144,104,32,-4,16,34,28,4,-44,-36,21,43,21,77,37,14,41,52,156,207045
-48,-3,0,-12,-23,-29,-24,116,-5,11,-37,-6,49,24,-22,-6,39,49,56,-3,-115,-61,43,71,18,4,53,39,62,62,179,207046
-39,-7,-2,-20,-13,-10,-12,75,-27,113,26,59,66,-27,-45,3,10,20,44,-5,-117,-85,30,45,19,31,21,28,36,33,73,207047
-17,-5,17,-23,13,15,-4,199,-43,25,215,-11,-9,113,-9,17,-15,-4,31,0,-84,-81,23,16,21,80,-2,10,17,9,29,207048
33,-9,25,-17,25,35,11,68,135,-242,233,66,126,-6,82,27,-8,-1,1,21,-26,-54,27,-1,34,154,-28,2,3,-4,74,207049
33,-5,21,-7,24,35,-41,-7,13,-64,132,38,159,-138,72,-2,-42,-11,-52,-3,-62,-94,-19,-39,-1,123,-51,-38,-37,-37,53,207050
-64,-23,10,-18,-14,6,-140,-251,106,5,-114,-64,81,-174,69,-101,-65,-32,-53,-95,-254,-191,-55,-22,-104,-138,-37,-38,-30,-47,179,207051
-161,-38,27,-9,-36,-13,-180,-232,69,64,-60,-17,-30,-190,-23,-146,14,37,80,-140,-439,-218,27,105,-124,-452,81,57,82,56,264,207052
-242,-24,72,22,-32,-4,-252,-155,156,23,-108,-59,29,-54,9,-209,83,94,212,-183,-647,-250,90,217,-154,-789,198,148,183,143,488,207053
-254,-48,70,8,-27,-6,-304,-105,194,-14,-61,-73,146,7,-27,-269,47,49,205,-232,-722,-264,56,196,-175,-934,167,130,165,124,438,207054
-64,-18,36,28,26,28,-122,101,166,146,3,-7,29,-170,34,-139,-10,-9,68,-100,-355,-111,13,65,-40,-487,30,32,65,40,58,207055
85,6,-7,28,31,20,62,229,-21,172,-105,82,-27,-242,51,1,-31,-41,-42,26,40,63,-17,-51,75,11,-65,-34,-16,-24,-135,207056
127,33,-21,46,18,7,138,239,-97,374,205,132,48,109,56,83,16,-2,7,96,237,190,49,-12,144,201,-32,12,9,13,-132,207057
31,14,-38,11,-15,-31,59,44,1,43,16,113,95,180,8,31,19,11,14,47,161,159,55,11,79,93,0,11,14,26,32,207058
-34,9,-17,12,-17,-20,-18,27,-29,38,-20,47,-55,162,-8,-31,14,17,37,-18,32,103,39,54,15,-87,29,34,28,55,83,207059
49,20,-5,25,19,12,63,46,-15,104,85,47,85,60,35,32,0,-16,-9,40,186,161,31,4,87,134,-27,10,-6,28,-42,207060
-63,-20,22,9,-8,4,-73,-100,17,54,-25,2,186,-139,37,-71,10,10,56,-66,-68,33,20,80,-10,-192,51,43,49,71,198,207061
-368,-71,69,-8,-76,-62,-389,-209,-10,-164,-107,-220,161,-123,13,-323,83,122,314,-288,-787,-239,88,342,-219,-1152,304,201,246,237,700,207062
-422,-82,80,-2,-78,-69,-433,-440,35,-83,-263,-284,48,-149,-66,-371,122,147,394,-322,-995,-301,131,402,-216,-1448,365,254,317,300,722,207063
-300,-66,46,0,-55,-31,-315,-370,19,1,-122,-96,-15,-11,-77,-283,90,98,300,-217,-799,-235,114,299,-111,-1175,253,190,250,232,395,207064
-9,-6,-14,26,13,25,-5,-97,-66,81,49,84,-59,248,119,-15,42,23,118,39,-173,1,85,98,130,-311,72,84,105,110,20,207065
140,33,-31,36,38,37,186,-79,-37,178,98,131,-129,183,141,121,3,-22,-18,163,209,114,44,-40,218,253,-41,4,-7,18,-163,207066
92,26,-27,35,23,23,124,22,1,262,164,161,-154,86,94,64,-11,-17,-40,94,109,40,19,-39,122,156,-37,-18,-26,3,-153,207067
68,13,-19,25,29,32,84,157,-144,-1,115,81,-32,67,75,39,-20,-23,-53,68,64,7,-5,-35,80,114,-50,-30,-42,-18,-137,207068
79,6,-14,5,22,29,65,52,22,223,-14,126,83,112,-4,55,-11,-14,-53,92,84,26,26,-41,76,149,-60,-14,-26,-21,-140,207069
65,13,1,1,15,28,83,-2,-35,60,115,49,6,-15,33,74,17,19,-35,103,94,41,54,-9,74,147,-17,15,7,5,-75,207070
30,5,-11,8,-4,-1,70,58,-2,-7,13,17,-111,78,75,67,21,27,-9,77,64,30,57,15,56,94,11,30,15,22,-20,207071
-26,-7,-25,-11,-13,-17,-23,-42,54,34,-184,-15,-151,59,-35,-26,-19,-16,-31,-13,-79,-45,2,-3,-33,-91,-12,-5,-16,-14,-25,207072
-23,14,4,10,23,18,-42,-115,-35,24,28,-59,-74,59,-30,-59,-24,-22,-25,-34,-134,-56,-6,7,-52,-186,-8,-8,-2,-8,-35,207073
20,19,4,8,28,33,15,61,-96,-42,87,-134,33,54,-8,-8,-21,-23,-31,8,-22,-7,4,-9,-16,-53,-23,-20,-13,-9,-148,207074
80,27,-9,11,35,37,87,56,-172,-8,-16,-62,63,11,-42,63,-2,-11,-51,72,137,70,13,-32,53,153,-41,-26,-26,-16,-153,207075
87,32,-6,16,31,27,82,105,32,64,57,15,-102,44,-19,80,8,13,-42,89,186,106,15,-14,80,207,-13,-3,-10,13,-130,207076
131,40,-15,33,29,16,142,135,62,-48,36,39,14,143,46,109,-1,3,-64,105,282,152,4,-33,112,328,-41,-19,-32,4,-206,207077
54,28,-18,14,4,-18,84,-45,25,9,34,106,6,225,38,46,-14,-4,-53,39,165,83,1,-29,32,190,-34,-28,-40,4,-99,207078
95,39,-34,14,11,-21,142,48,-60,-25,266,183,-73,259,99,92,-20,-24,-95,86,295,135,-7,-74,72,369,-70,-56,-69,-19,-124,207079
73,21,-10,5,11,-6,99,109,-11,121,-31,77,86,-36,99,73,-13,-13,-93,60,252,115,-16,-57,44,330,-53,-53,-64,-16,-98,207080
-13,2,-6,-11,-3,-27,21,-93,40,22,-4,-29,43,83,18,15,4,15,-19,13,79,42,-11,16,-6,117,18,-6,-4,29,-18,207081
-46,16,-5,3,-12,-36,8,-116,-66,-140,-67,79,21,216,-44,18,46,70,76,31,10,38,40,93,15,-5,96,67,72,103,61,207082
-56,17,15,6,-9,-14,-23,-20,-7,-12,-121,-98,-36,18,-21,-15,52,63,93,5,-74,-3,37,102,-8,-111,103,67,81,99,107,207083
-61,-1,32,-1,-3,2,-61,-53,42,-119,-122,-174,-87,-174,-52,-48,21,17,59,-23,-122,-42,14,59,-36,-161,51,30,38,58,73,207084
22,3,11,6,9,11,9,-21,-28,-68,-196,-144,-63,-18,0,10,0,-8,10,29,32,23,16,4,36,47,-6,3,10,19,-121,207085
84,-1,-8,4,11,25,61,103,-47,97,139,-63,-48,-34,48,71,-19,-23,-56,75,189,74,-4,-54,76,258,-49,-26,-25,-19,-180,207086
65,14,6,13,22,18,47,52,-89,212,147,6,49,-112,25,61,-4,-5,-35,73,170,67,6,-18,64,236,-22,-20,-22,-8,-77,207087
44,19,0,15,15,9,31,-175,-60,89,-38,-37,-112,0,11,50,-8,-7,-48,58,148,48,-3,-20,51,218,-27,-20,-31,-6,-96,207088
41,37,4,19,5,0,45,-80,-11,4,-30,-101,-8,107,-6,63,15,25,-32,80,139,59,13,11,56,205,-4,-3,-4,14,-110,207089
37,37,12,16,-4,-1,61,-47,51,-107,54,56,0,149,32,93,34,47,20,97,146,82,36,34,87,204,30,31,21,31,-50,207090
25,29,9,-7,-2,-23,20,15,-54,-71,-25,102,-16,134,93,80,17,21,-9,90,159,79,15,10,86,229,10,11,-8,14,-58,207091
-51,-10,5,-40,-24,-22,-125,-203,-15,-94,-12,-18,106,142,49,-9,-16,-7,-29,-16,-30,-11,-31,8,-21,10,14,-19,-26,2,-26,207092
-24,-7,-1,-35,-16,-5,-110,-138,16,-6,-17,-153,62,30,-52,17,-10,-9,-34,4,32,13,-25,3,14,86,2,-29,-14,-1,-45,207093
34,17,-2,-15,4,6,6,-173,55,23,124,-116,-12,97,-26,72,-1,6,-38,73,167,72,-14,-10,65,269,-1,-15,-10,12,-165,207094
35,13,-14,-15,-11,-15,58,-202,-19,60,100,-124,68,-6,-20,55,-28,-16,-65,50,161,51,-52,-45,24,279,-33,-45,-51,-15,-123,207095
40,23,6,8,19,9,81,-67,-30,-4,-51,-215,59,-95,15,23,-46,-43,-54,11,119,15,-68,-47,-2,232,-55,-52,-59,-25,-170,207096
84,30,3,20,40,14,122,202,64,92,115,-152,-28,96,40,51,-46,-46,-76,43,185,43,-65,-61,19,349,-81,-69,-72,-44,-211,207097
63,24,-2,13,17,0,92,30,9,-22,4,-5,-14,-143,-16,82,0,-5,-76,49,171,50,-23,-34,19,339,-54,-46,-45,-19,-90,207098
55,27,-4,-5,2,4,62,-79,-23,-51,72,57,126,-44,52,96,18,21,-50,65,177,64,5,-26,36,351,-34,-18,-35,-7,-54,207099
-7,6,3,-36,-11,-1,-9,-86,50,-65,150,-102,16,95,30,48,5,28,-30,34,91,20,-15,-5,3,234,0,-10,-15,4,-30,207100
10,13,0,-46,-2,7,10,76,-76,-141,154,-4,12,177,42,73,-7,5,-40,48,143,47,-24,-21,32,294,-28,-32,-35,-14,-82,207101
64,30,-16,-18,12,19,52,114,-52,-11,41,37,-44,172,23,101,-14,-8,-56,67,216,79,-19,-38,53,383,-46,-32,-40,-30,-188,207102
31,27,-1,-4,2,16,26,36,3,28,66,-79,3,69,24,47,-27,-11,-49,25,122,27,-30,-38,10,269,-42,-41,-35,-34,-102,207103
-5,26,21,10,5,3,-6,-40,32,-119,-92,-7,44,19,-56,9,-11,10,-7,0,28,7,-13,-1,-6,131,-1,-8,-3,8,2,207104
33,30,6,5,10,-7,51,-48,18,-69,27,-26,-77,62,-40,58,6,13,-14,49,135,60,-2,-7,42,262,-7,-6,-7,10,-94,207105
34,26,-16,-12,-4,-14,54,-145,56,-305,55,-42,-148,143,-38,69,-3,-7,-50,57,184,74,-19,-30,44,319,-25,-24,-35,-8,-134,207106
21,24,-11,-9,-3,1,22,-213,-63,-266,-161,67,-137,-6,-22,45,0,-7,-35,47,132,60,-16,-17,30,255,-22,-11,-21,1,-45,207107
32,35,4,23,14,15,42,-167,65,-224,-20,74,-6,-237,-50,43,16,20,-9,48,119,72,3,5,28,237,-3,7,1,15,-12,207108
14,17,-12,6,0,-18,49,-197,-31,106,219,-118,-235,-97,-52,42,9,5,-8,34,114,64,-6,-6,14,223,2,-6,-8,10,-61,207109
31,9,0,-9,-4,-14,56,-91,7,41,172,-104,-116,64,-89,65,31,16,7,50,151,87,6,2,45,289,-5,2,-2,22,-78,207110
66,15,28,-6,22,29,37,-156,48,-56,118,-116,-24,-55,-104,39,-11,-14,-29,26,131,57,-33,-26,16,270,-34,-35,-31,-8,-81,207111
-12,2,37,4,10,16,-52,-16,38,-99,88,-226,52,21,-100,-62,-32,-35,-31,-65,-57,-51,-56,-24,-80,23,-22,-47,-36,-32,25,207112
-26,24,13,15,-6,-17,31,-37,-12,-53,116,-113,30,76,-75,-24,6,12,8,-24,-15,-8,-2,16,-32,69,19,-2,4,29,16,207113
-12,21,-15,21,-12,-36,77,-77,95,95,180,26,-52,126,59,24,11,20,2,20,57,30,6,16,14,163,14,6,16,46,-46,207114
50,21,-18,13,1,-9,89,57,42,135,169,82,19,218,79,60,-19,-26,-69,42,175,39,-36,-65,34,352,-54,-51,-52,-22,-92,207115
68,16,10,10,15,20,37,102,52,68,219,2,156,-58,-2,40,-34,-43,-88,16,146,2,-46,-88,-12,348,-73,-80,-81,-54,-111,207116
54,6,9,-23,12,17,-14,25,-38,-167,153,-74,120,-46,-15,4,-60,-70,-93,-21,79,-49,-68,-111,-52,287,-94,-89,-100,-78,-127,207117
111,14,35,-8,40,52,35,-3,-23,85,13,7,117,-159,34,55,-48,-46,-107,19,161,-4,-73,-100,3,400,-100,-68,-94,-65,-196,207118
102,25,51,16,45,59,35,-182,-41,59,-125,-7,262,-116,-15,64,-9,-8,-67,40,145,5,-45,-52,18,365,-45,-36,-56,-27,-126,207119
55,30,20,7,12,18,28,-179,-55,-42,-76,38,110,73,77,53,10,17,-24,26,81,-7,-11,-16,6,270,-7,-10,-21,-2,-42,207120
49,32,-4,14,-4,-3,50,-258,55,95,-38,145,-70,97,57,59,4,9,-39,32,100,4,-20,-37,2,282,-19,-11,-30,-16,-70,207121
149,60,-7,20,33,33,138,212,-46,90,-43,137,-66,-12,0,140,-8,-18,-111,110,322,85,-32,-106,78,582,-88,-56,-74,-62,-254,207122
202,67,-8,4,39,57,202,276,-74,-29,192,129,-69,54,19,197,-27,-41,-173,157,494,150,-41,-158,120,826,-137,-96,-118,-100,-293,207123
143,55,2,0,33,27,157,60,-63,-29,36,2,53,126,13,157,-11,-16,-124,120,411,133,-30,-119,79,714,-96,-62,-88,-79,-156,207124
24,23,9,-8,-3,0,24,-80,-67,-40,-169,11,38,-5,-50,42,11,15,-35,17,137,34,-13,-19,-29,344,-5,-6,-25,-15,52,207125
20,23,19,14,3,2,11,-66,-20,-27,-119,57,21,-16,-91,35,8,23,-17,13,102,27,-4,-4,-32,290,14,-8,-10,1,51,207126
8,3,11,0,-6,-8,-6,210,92,-172,-158,-32,-77,33,-91,20,-8,-3,-36,-8,83,19,-35,-17,-30,268,-15,-27,-26,-13,37,207127
-6,10,23,10,-12,-3,-19,74,99,71,-287,-27,74,-146,-57,20,26,30,18,5,45,23,-8,39,-19,196,38,13,25,36,55,207128
-23,13,4,0,-16,-10,1,54,-14,-207,-67,29,26,49,-56,18,20,22,28,12,56,12,-14,36,-20,196,44,21,23,40,-11,207129
-15,26,14,5,2,9,15,118,67,-6,-85,66,163,69,-43,21,15,10,17,18,75,26,-16,33,-6,232,24,18,25,33,-124,207130
47,28,1,5,8,5,103,118,-143,66,-80,15,162,59,-77,91,21,12,-9,82,211,101,1,6,61,440,-4,2,6,25,-181,207131
199,61,-8,18,49,41,275,254,-108,103,227,99,43,45,110,230,16,-14,-86,209,546,225,0,-72,180,906,-88,-46,-57,-32,-306,207132
280,53,-28,4,56,43,311,128,-66,61,110,98,-4,-11,98,286,-37,-53,-184,241,722,260,-54,-159,181,1177,-168,-113,-146,-111,-457,207133
275,65,-28,6,52,34,279,159,-37,122,-47,-5,-178,-95,84,291,-15,-33,-173,236,723,263,-40,-138,163,1208,-144,-102,-139,-90,-341,207134
88,29,19,-22,5,4,55,153,63,27,9,72,-86,-19,29,155,22,19,-56,102,364,113,0,-6,29,725,-27,-16,-43,-9,21,207135
-25,6,38,-41,-16,-2,-74,-96,59,22,88,-44,49,314,-54,57,34,50,17,8,117,19,24,76,-46,371,30,21,13,27,66,207136
-49,-3,37,-39,-9,-9,-106,-190,47,-113,-106,10,70,22,-43,16,18,33,6,-40,18,-33,-13,82,-83,232,23,19,14,17,113,207137
14,5,24,-18,8,3,-40,-38,-45,-397,60,-140,50,-140,18,29,-16,-10,-25,-22,71,-19,-52,37,-55,298,-31,-5,-18,-11,-11,207138
26,-6,11,-24,4,3,-16,-39,-6,-107,-158,-176,-92,-538,13,25,-52,-31,-49,-27,83,-14,-69,8,-62,321,-55,-49,-48,-49,25,207139
6,-3,18,-26,1,19,-45,21,51,-135,-370,-125,-155,-312,-104,-12,-34,-26,-22,-49,7,-47,-48,21,-89,216,-35,-33,-36,-43,57,207140
111,33,6,1,22,41,78,115,-49,-48,-75,-15,-35,-12,-82,87,-16,-30,-54,59,247,69,-15,-23,21,521,-80,-38,-62,-63,-149,207141
340,63,-52,2,60,52,359,188,-125,32,100,80,-186,193,-12,325,-70,-106,-289,271,877,306,-84,-248,218,1393,-295,-184,-233,-205,-579,207142
430,83,-72,10,79,53,465,44,-131,-76,426,258,-61,223,81,434,-97,-118,-394,345,1149,389,-117,-322,260,1826,-363,-244,-309,-262,-666,207143
386,79,-59,-9,57,36,383,328,-172,-32,226,185,13,130,104,380,-119,-129,-393,281,1068,312,-144,-326,165,1783,-344,-253,-321,-274,-605,207144
37,4,-3,-46,-28,-34,-24,-5,14,137,20,-52,-32,-241,5,70,-76,-41,-173,-22,290,-1,-119,-100,-140,761,-127,-123,-165,-136,11,207145
-143,-15,50,-29,-38,-47,-234,-103,102,136,-75,-88,136,-87,-86,-105,0,45,34,-162,-225,-168,-38,102,-250,34,48,5,-4,5,354,207146
-127,-20,44,-29,-39,-47,-189,-99,103,-88,-35,-128,30,-37,-50,-78,-7,24,42,-122,-214,-155,-29,101,-194,41,53,10,24,27,208,207147
-117,-30,35,-28,-46,-47,-147,21,184,106,1,-80,104,-32,38,-66,3,19,56,-103,-180,-128,-19,96,-151,76,55,18,32,33,188,207148
-87,-15,30,-7,-34,-29,-117,84,100,-187,-111,-6,1,-149,15,-51,6,14,62,-87,-154,-117,-16,93,-114,91,51,16,27,34,161,207149
-60,-11,14,8,-21,-31,-96,16,115,161,-60,-27,84,-86,-7,-34,7,21,46,-70,-121,-88,-16,78,-90,141,49,13,23,33,140,207150
46,5,-16,16,-3,-18,55,217,76,183,167,9,101,4,-41,73,-6,-8,-22,38,140,22,-22,5,15,492,-25,-34,-19,-6,-38,207151
432,80,-81,26,67,45,504,449,-43,106,502,251,27,44,5,420,-80,-103,-278,362,1032,360,-76,-271,311,1719,-303,-189,-225,-176,-697,207152
629,108,-108,19,100,74,695,565,-111,-84,486,336,-65,31,88,592,-141,-175,-479,488,1556,524,-130,-477,410,2502,-480,-316,-398,-328,-940,207153
559,106,-87,6,87,61,582,220,-164,-32,304,272,-78,-1,25,549,-122,-154,-467,416,1490,474,-130,-448,322,2464,-438,-300,-403,-326,-748,207154
112,17,-9,-50,-17,-26,52,-90,-17,-60,-113,-11,-54,-86,40,178,-43,-13,-170,65,557,111,-72,-113,-41,1214,-124,-109,-165,-129,-30,207155
-129,-45,15,-69,-73,-57,-217,-206,-55,-128,-196,-59,-152,-223,-43,-50,-6,39,2,-115,-37,-90,-39,52,-197,380,41,-6,-15,0,308,207156
-165,-42,38,-60,-61,-38,-257,-170,73,90,-39,-96,-64,-204,-48,-90,-6,41,47,-155,-177,-122,-36,70,-195,151,69,17,21,29,354,207157
-156,-45,34,-32,-53,-33,-223,-30,161,246,-107,-194,24,-174,-54,-102,-13,24,65,-161,-216,-133,-38,76,-183,56,69,25,29,33,253,207158
-124,-35,38,-15,-37,-30,-169,-42,186,150,-208,-168,7,-106,-76,-90,-11,11,52,-144,-185,-119,-41,44,-158,74,51,16,15,9,167,207159
-115,-30,26,-8,-37,-41,-145,-184,92,26,40,-74,10,-5,-68,-88,-10,20,71,-132,-199,-124,-30,51,-150,33,49,23,30,4,157,207160
71,25,6,17,13,1,51,56,56,34,102,2,58,-2,15,69,-21,-9,-19,21,170,39,-28,-53,11,523,-44,-38,-38,-48,-104,207161
632,112,-95,14,117,84,658,524,-110,27,528,201,28,68,213,547,-172,-216,-505,456,1461,500,-179,-539,416,2358,-505,-361,-425,-369,-1072,207162
867,144,-145,-16,148,96,912,628,-193,-117,629,264,-77,123,187,773,-272,-305,-798,632,2149,699,-281,-784,499,3402,-732,-534,-663,-552,-1404,207163
689,115,-130,-52,87,48,710,392,-170,-52,482,168,-47,253,110,669,-255,-257,-760,487,1922,559,-301,-695,307,3178,-631,-502,-620,-509,-1014,207164
58,14,-9,-85,-34,-32,-46,-262,-29,-187,38,-124,129,-242,-68,137,-122,-57,-306,-31,543,13,-189,-222,-222,1329,-168,-211,-278,-221,100,207165
-305,-42,79,-72,-86,-80,-408,-605,-16,-133,-279,-248,141,-255,-85,-187,12,87,97,-284,-374,-263,-37,145,-414,21,148,44,38,48,589,207166
-212,-28,58,-37,-68,-64,-252,-196,20,-144,-140,-275,-58,-6,-71,-91,41,92,130,-183,-258,-158,4,140,-262,124,138,72,82,89,438,207167
-188,-37,52,-43,-48,-49,-254,-171,-22,-638,-98,-194,-52,-7,-55,-104,13,57,117,-184,-268,-158,-14,109,-244,79,110,56,63,58,352,207168
-176,-32,78,-26,-23,-16,-261,-308,25,-391,-102,-76,140,-138,-43,-113,16,50,139,-182,-300,-160,-9,122,-228,-2,120,72,84,76,352,207169
-151,-24,62,-24,-19,-17,-228,-99,23,9,-72,-123,-15,-115,37,-105,7,29,116,-169,-263,-133,-6,102,-203,22,97,61,74,58,322,207170
32,12,18,10,16,9,20,166,60,-90,-31,-15,69,-40,96,62,-10,-5,-2,3,143,41,-10,-21,-36,564,-20,-10,1,-8,-126,207171
437,69,-65,12,80,60,487,352,-125,-38,173,249,-42,86,70,430,-93,-115,-327,343,1122,394,-83,-350,275,1918,-325,-210,-258,-205,-719,207172
505,71,-73,-26,82,63,533,375,-116,-75,125,238,-126,101,116,488,-139,-153,-442,375,1341,444,-139,-449,262,2291,-416,-285,-361,-294,-780,207173
527,88,-64,-31,80,64,517,424,-253,-85,181,228,-69,154,73,510,-160,-150,-479,369,1434,439,-163,-474,238,2467,-441,-312,-405,-337,-696,207174
44,13,16,-61,-25,-27,-19,-9,-65,-53,-178,-15,89,32,-129,125,-45,12,-115,-6,407,35,-67,-103,-124,1105,-73,-67,-115,-108,149,207175
-225,-20,48,-44,-82,-89,-288,-158,58,-55,-345,-8,70,135,-103,-83,44,109,130,-170,-264,-176,13,140,-243,201,178,104,100,81,519,207176
-221,-22,50,-29,-74,-80,-260,-91,4,-50,-98,-12,10,8,-87,-110,28,87,123,-180,-348,-219,-7,120,-213,87,153,90,87,77,382,207177
-228,-37,62,-41,-65,-54,-268,-222,-11,93,-59,-170,-39,-28,-104,-168,-15,34,115,-213,-443,-287,-31,86,-233,-37,124,62,71,41,303,207178
-183,-39,50,-32,-53,-42,-211,-132,26,66,-112,-145,-78,86,-70,-144,-25,-3,70,-180,-396,-270,-50,44,-194,36,73,19,59,22,189,207179
-156,-23,44,7,-46,-55,-167,40,23,96,-92,12,33,-72,-42,-91,18,39,91,-139,-364,-232,-5,79,-152,60,99,59,91,51,194,207180
100,24,-5,36,9,-25,128,181,-78,85,229,128,41,106,-8,143,-3,-12,-65,93,206,15,-6,-83,76,811,-59,-34,-15,-37,-297,207181
875,156,-147,47,158,103,949,520,-103,-11,811,354,-140,437,211,811,-177,-253,-660,704,1996,691,-158,-710,640,3309,-651,-428,-511,-433,-1476,207182
1075,178,-197,8,183,121,1116,691,-273,16,575,355,-60,381,124,1009,-273,-342,-927,828,2668,875,-272,-964,677,4301,-879,-590,-749,-642,-1727,207183
971,164,-167,-40,142,97,1007,607,-270,-269,619,305,95,293,68,962,-281,-307,-932,740,2660,836,-295,-923,533,4354,-840,-595,-756,-647,-1561,207184
70,14,34,-105,-41,-40,20,3,-18,-258,-46,-95,140,-169,-47,216,-101,-26,-282,4,769,104,-154,-235,-187,1775,-176,-174,-259,-231,98,207185
-415,-45,140,-88,-115,-92,-511,-238,97,23,-468,-423,241,-448,25,-212,61,144,230,-355,-470,-278,-7,246,-466,-4,270,150,151,131,697,207186
-336,-41,101,-62,-89,-79,-415,-291,182,183,-130,-291,289,-222,25,-178,65,112,234,-285,-402,-211,2,209,-351,-11,233,133,166,138,514,207187
-298,-55,79,-70,-95,-87,-421,-229,113,307,-83,-181,169,-75,-14,-189,44,86,196,-282,-410,-205,-2,167,-311,-71,191,110,136,111,448,207188
-273,-46,85,-54,-71,-69,-427,-194,98,279,-346,-253,125,-208,-32,-181,68,106,222,-262,-432,-174,26,187,-260,-144,214,131,171,135,507,207189
-271,-64,59,-61,-77,-96,-407,-140,89,-60,-287,-185,-106,-139,22,-181,55,102,209,-255,-437,-169,24,178,-237,-191,205,121,169,135,474,207190
-155,-43,38,-31,-49,-70,-291,-20,28,116,-109,-33,-135,-120,10,-85,46,66,155,-161,-207,-68,29,97,-116,101,115,88,115,85,198,207191
110,21,-2,4,25,-9,4,35,-4,-12,70,111,-79,-11,60,134,-19,-25,-54,50,373,142,-29,-115,81,902,-94,-48,-49,-52,-243,207192
