67,17,-18,29,18,10,125,62,-3,-20,-95,83,85,92,14,53,20,-8,5,10,207,156,20,-16,177,691,-32,7,1,6,-52,877204
-101,-1,38,20,-4,-7,-90,-113,120,-78,-129,18,173,59,40,-123,54,51,111,-181,-268,27,42,104,-217,-9,96,65,36,77,318,877205
-341,-27,112,56,-12,-4,-427,-266,117,-17,-263,-233,42,22,-48,-419,137,161,403,-466,-1117,-109,139,361,-850,-1399,344,237,165,262,852,877206
-420,-33,131,87,-1,8,-499,-201,117,-9,-369,-177,81,-64,-112,-524,163,176,533,-536,-1464,-181,176,464,-1064,-2047,452,326,266,350,975,877207
-493,-28,155,138,27,29,-534,-274,202,-134,-320,-185,236,4,-43,-650,191,198,675,-617,-1851,-265,224,555,-1286,-2738,535,402,352,418,1017,877208
-153,-22,26,108,48,38,-63,-111,102,-63,-41,-62,55,64,54,-289,61,31,316,-178,-913,-126,134,213,-451,-1318,177,196,253,182,94,877209
117,-3,-38,76,65,54,223,-41,12,-2,145,88,-29,215,14,22,-3,-37,-10,149,-122,-36,60,-31,127,-9,-55,38,116,-7,-236,877210
78,-1,-19,61,44,44,118,191,46,89,107,60,74,105,-9,9,25,-1,-6,160,-169,-89,97,1,50,0,-23,56,102,11,-86,877211
32,-5,-5,48,27,31,7,291,-65,2,161,103,-72,129,37,-14,64,35,28,161,-261,-123,127,67,-42,-108,44,80,117,49,56,877212
6,-14,-17,37,6,10,21,98,-54,15,103,79,-23,61,-62,-8,38,24,14,170,-252,-140,79,59,-39,-67,37,62,93,36,-42,877213
1,0,-5,40,8,17,55,-16,-21,32,101,70,-88,-17,6,-6,7,1,-9,164,-225,-151,48,26,-37,-11,2,39,65,4,-62,877214
-151,-11,45,40,0,6,-181,-134,46,133,55,-51,-28,-16,-11,-173,66,78,135,-41,-663,-205,92,173,-393,-707,155,134,113,101,396,877215
-592,-39,170,98,-23,-17,-765,-133,196,52,-492,-304,200,-216,-91,-653,253,286,674,-538,-1974,-364,280,650,-1390,-2922,632,452,364,457,1324,877216
-699,-58,179,126,-17,2,-881,-281,236,28,-567,-144,110,27,-55,-775,320,338,889,-655,-2377,-334,357,797,-1592,-3796,756,575,522,599,1420,877217
-533,-81,102,105,-6,11,-625,-363,123,-7,-240,-109,-24,158,-19,-601,297,267,773,-481,-1960,-187,342,660,-1204,-3349,630,515,531,531,1027,877218
-73,-38,-58,86,39,28,38,0,-44,53,13,132,-33,171,72,-110,158,87,349,-5,-609,108,224,254,-119,-1347,228,288,382,262,33,877219
181,-30,-148,27,27,7,397,68,-166,167,174,206,-136,161,94,150,-17,-96,-81,197,301,190,38,-130,500,161,-156,3,96,-60,-578,877220
149,-18,-107,17,14,8,304,138,-108,155,173,132,-288,167,65,129,-3,-61,-96,139,328,205,19,-98,446,278,-107,-8,37,-55,-384,877221
130,-13,-68,5,33,44,171,56,-42,160,66,46,-222,86,4,83,2,-54,-71,53,276,173,19,-82,357,249,-89,-12,-1,-48,-265,877222
139,-6,-39,8,49,62,125,-94,33,-36,58,59,-62,23,-5,32,-26,-84,-113,-8,248,127,-19,-129,298,241,-142,-58,-65,-84,-225,877223
96,-11,-43,4,20,40,125,-58,6,-83,148,13,-78,52,14,-11,-40,-90,-110,-46,184,104,-54,-121,233,193,-113,-70,-85,-88,-232,877224
55,-9,-27,22,18,20,106,-18,-2,-50,216,-21,135,115,32,-33,-15,-53,-68,-64,86,87,-46,-58,157,78,-51,-39,-67,-29,-89,877225
-149,-18,24,39,-9,-18,-154,-29,115,10,28,-131,42,-112,-26,-249,37,17,101,-269,-520,-28,11,105,-325,-841,114,47,-7,67,339,877226
-347,-46,75,49,-23,-33,-350,-126,122,30,-40,-189,-57,-140,-55,-465,77,85,278,-445,-1127,-146,69,257,-769,-1837,259,133,97,185,624,877227
-408,-46,92,79,-17,-12,-373,-218,133,88,-106,-34,-3,-49,-32,-511,132,131,422,-457,-1399,-187,146,373,-913,-2366,367,242,223,275,702,877228
-101,-22,5,84,25,29,9,70,-42,28,-347,87,-51,64,47,-189,60,9,188,-69,-623,-63,104,130,-226,-1195,117,135,184,109,-14,877229
79,-10,-29,51,33,49,191,115,-39,23,23,186,-61,-9,36,6,-7,-53,-51,159,-104,-10,29,-51,156,-299,-39,17,86,-38,-206,877230
54,-22,-23,31,28,42,98,-125,-42,-96,126,112,-257,79,14,-16,-15,-42,-57,179,-148,-43,14,-40,84,-321,-38,11,59,-53,-123,877231
56,-1,-10,47,47,53,49,-18,-44,-21,28,154,-216,221,82,10,12,4,-3,222,-136,-25,57,22,77,-289,10,62,91,-7,-62,877232
73,12,-21,48,41,43,105,90,-21,5,61,159,-3,161,58,68,31,14,-9,286,-19,15,81,18,168,-109,17,66,91,0,-98,877233
34,10,-13,54,27,32,94,-38,-23,-73,86,61,-34,4,18,43,58,37,13,256,-76,8,102,37,85,-205,39,78,92,12,8,877234
-102,-9,16,52,9,10,-73,-178,32,-59,-90,-129,-6,-104,0,-106,89,87,135,80,-441,-46,123,154,-215,-794,145,139,123,95,313,877235
-383,-35,89,63,-10,-6,-425,-166,47,-135,-344,-194,161,-28,-111,-421,163,183,436,-288,-1289,-179,169,424,-853,-2206,407,307,254,300,821,877236
-434,-48,102,81,-6,10,-457,-298,91,85,-105,-181,34,169,-4,-508,190,201,556,-386,-1548,-184,204,495,-986,-2733,475,367,331,374,850,877237
-333,-46,60,85,5,20,-286,-265,83,141,-63,-111,-40,168,28,-419,158,139,473,-312,-1301,-115,177,398,-741,-2449,372,312,323,316,626,877238
-14,-27,-48,56,34,48,124,163,-9,-50,-2,54,-59,-82,64,-105,34,-36,122,-13,-351,29,68,44,11,-1008,15,94,164,66,-154,877239
193,-10,-94,23,43,54,330,397,-8,193,-39,174,-144,-114,8,119,-42,-108,-136,154,316,117,-17,-177,477,109,-178,-61,14,-92,-501,877240
191,-12,-91,16,32,41,270,379,-118,-49,256,4,-113,-109,7,87,-81,-145,-213,94,362,80,-80,-212,446,281,-215,-122,-94,-150,-441,877241
168,-8,-74,-1,16,27,220,249,-91,-109,162,25,-174,103,60,86,-41,-101,-158,77,353,89,-63,-136,404,296,-139,-83,-75,-91,-344,877242
101,-21,-71,-21,-10,7,159,21,-85,-128,37,61,-179,208,141,92,1,-38,-83,60,297,94,-15,-57,338,232,-59,-19,-32,-22,-175,877243
56,-22,-79,-18,-19,3,80,-235,-102,-19,162,28,-289,141,165,82,35,-9,-26,46,235,82,8,-21,282,156,-19,11,-8,2,-67,877244
14,-11,-55,-20,-9,8,-21,-272,-14,159,84,23,-230,76,158,28,22,-15,-26,-11,116,34,-7,-23,168,6,-10,9,-19,-2,12,877245
-129,-34,-6,-24,-17,-4,-288,-235,55,14,-170,-24,-122,-85,-3,-170,31,34,92,-184,-408,-63,-10,96,-242,-780,111,68,17,83,254,877246
-224,-36,42,11,-7,2,-444,-446,102,-31,-170,-11,-58,-3,-25,-249,153,168,333,-231,-792,-45,108,339,-490,-1473,344,247,197,256,601,877247
-255,-24,49,55,10,1,-379,-271,146,49,-241,14,62,-101,-4,-284,177,170,379,-224,-928,-58,166,355,-558,-1767,347,268,250,273,647,877248
-18,-9,-28,54,30,26,8,15,-44,-62,121,184,-55,24,68,-45,54,20,91,62,-254,21,83,75,-7,-738,62,96,143,83,9,877249
38,-31,-39,0,14,31,76,44,-137,6,268,51,-247,125,97,22,-19,-30,-64,145,-7,32,10,-34,144,-286,-39,8,42,-40,-49,877250
-6,-32,-8,7,8,19,49,15,31,55,175,37,-145,8,54,-51,-31,-37,-74,98,-139,3,0,-48,14,-469,-63,-11,5,-78,-62,877251
-2,-17,-35,6,4,-3,101,-69,43,114,83,-3,-54,19,-10,-27,-37,-45,-90,139,-76,28,-12,-72,44,-374,-79,-26,-2,-91,-135,877252
-5,0,-43,25,11,-11,89,15,-94,88,-10,-20,-192,-4,15,-4,-9,-15,-40,150,-53,59,23,-33,62,-347,-29,8,17,-53,-64,877253
8,16,-26,48,32,3,38,-45,-28,-7,-93,-18,-170,4,-27,-19,9,-3,-10,133,-87,73,34,8,41,-398,2,22,21,-27,-51,877254
-20,-6,-15,18,17,10,-24,-152,-18,-138,-12,-71,-22,-41,72,-44,15,4,9,91,-142,61,27,26,-11,-493,19,37,31,-17,50,877255
-364,-32,121,77,5,9,-424,-337,196,-63,-266,-273,153,-130,-67,-436,146,173,389,-352,-1250,-143,130,390,-876,-2264,384,255,184,252,828,877256
-455,-62,120,106,-3,-5,-515,-259,176,151,-317,-282,241,-92,-85,-573,191,205,554,-482,-1684,-214,173,511,-1126,-3074,497,349,305,371,968,877257
-286,-34,87,126,47,37,-276,-16,121,235,-91,-98,93,-59,48,-433,152,119,435,-339,-1325,-148,157,363,-775,-2601,334,284,289,280,586,877258
25,-18,-16,91,71,85,123,219,-22,58,46,-13,-76,83,54,-175,-36,-101,22,-68,-452,-67,-8,-27,-83,-1210,-57,14,83,-18,-194,877259
169,-18,-64,36,60,88,271,235,-14,-42,-68,47,-282,-33,32,-15,-127,-188,-194,55,73,-46,-112,-202,270,-309,-207,-122,-55,-151,-459,877260
126,-28,-73,17,23,44,200,117,3,-100,113,148,-93,-61,30,5,-64,-126,-139,41,97,-28,-55,-139,248,-247,-141,-72,-42,-113,-291,877261
76,-19,-74,8,0,7,156,301,17,-62,164,112,-90,13,69,43,-7,-49,-86,62,103,4,-12,-59,242,-232,-64,-20,-1,-47,-192,877262
107,-4,-69,13,3,10,188,146,34,-30,249,143,84,101,34,117,16,-22,-91,118,216,28,1,-47,322,-50,-44,-11,7,-23,-145,877263
109,-6,-64,-12,3,7,192,132,-48,129,108,141,-78,19,39,88,-26,-52,-122,101,226,-9,-30,-92,304,31,-75,-59,-39,-62,-197,877264
44,-11,-34,-2,17,15,105,-36,13,210,66,5,-49,86,82,-21,-35,-46,-73,-9,-16,-61,-29,-52,85,-315,-34,-40,-45,-47,-10,877265
-170,-28,23,35,5,9,-136,-147,125,9,-130,-81,178,-84,20,-238,34,47,141,-218,-615,-157,19,131,-378,-1274,140,84,40,80,359,877266
-226,-29,31,46,1,1,-236,-295,85,-88,-190,-81,24,-45,-20,-307,66,59,217,-258,-840,-170,45,196,-523,-1689,186,134,97,122,378,877267
-172,-31,5,19,-4,-15,-234,-239,85,85,-208,-83,-235,91,-39,-210,77,49,163,-152,-648,-92,76,155,-349,-1470,152,114,117,102,336,877268
-36,-26,-30,7,17,0,-97,-121,81,21,89,18,12,128,40,-19,87,55,71,52,-220,51,107,68,-7,-857,62,81,110,49,40,877269
35,-24,-38,-15,10,10,29,33,56,26,-61,78,92,-18,26,56,64,34,-23,145,43,130,87,1,158,-450,-6,33,67,-20,-51,877270
38,-20,-27,-5,16,21,83,127,31,124,-57,-10,-7,-92,-7,15,5,6,-37,125,25,134,13,-18,118,-467,-27,21,39,-42,-89,877271
84,-13,-36,21,26,33,134,57,-52,-18,144,-50,10,-92,5,19,-72,-64,-99,119,127,132,-82,-90,171,-291,-95,-37,-26,-103,-183,877272
55,-14,-26,13,25,32,76,59,-50,37,103,-96,-25,-39,34,-26,-69,-84,-103,61,65,116,-72,-104,105,-377,-119,-46,-55,-131,-192,877273
64,2,-31,22,23,11,123,176,76,202,205,-33,-8,103,39,10,-34,-63,-105,89,132,132,-34,-94,151,-269,-113,-46,-38,-118,-186,877274
-25,2,-3,33,12,-3,28,-25,24,222,14,16,-18,50,1,-65,8,-5,-3,1,-101,75,2,-5,-34,-624,0,4,-6,-40,42,877275
-265,-25,50,44,-10,-21,-282,-355,96,117,-345,-111,-77,62,14,-334,72,87,233,-294,-876,-79,68,234,-620,-1861,234,144,99,131,602,877276
-347,-41,63,66,-13,-31,-377,-302,76,101,-142,-221,-35,-247,-36,-448,101,119,364,-398,-1258,-162,107,341,-855,-2521,324,230,188,217,724,877277
-254,-36,36,83,19,0,-242,-193,74,218,-100,-183,105,-107,16,-378,83,72,320,-309,-1098,-161,101,266,-665,-2344,232,208,198,164,424,877278
17,-23,-30,59,50,43,98,-106,10,99,-42,72,-177,123,93,-72,45,-11,73,13,-315,-28,63,35,-29,-1140,13,84,137,26,-179,877279
152,-12,-87,14,38,36,269,126,-139,54,332,36,-246,210,99,121,-18,-64,-136,184,218,35,-6,-122,359,-218,-131,-49,26,-81,-321,877280
90,-3,-80,13,17,11,192,171,-118,132,-16,25,15,195,53,70,-30,-63,-126,125,128,-32,-33,-102,244,-281,-105,-52,-12,-78,-210,877281
25,-10,-72,-3,-5,-18,103,181,-144,164,-295,59,43,99,39,15,-37,-51,-86,58,-9,-70,-40,-64,118,-464,-62,-31,-7,-55,-196,877282
16,-27,-62,-10,-11,-12,62,-121,-68,112,-30,72,-40,47,-24,10,-11,-24,-59,54,-28,-73,-31,-32,91,-507,-12,-16,13,-27,-111,877283
32,-16,-36,1,8,20,37,-67,-72,-2,144,-1,60,0,31,24,10,-2,-36,57,-27,-75,3,-2,88,-520,1,12,29,0,-110,877284
17,-43,-43,-16,1,8,0,109,-36,37,32,63,28,45,-1,-24,-17,-35,-66,-2,-91,-105,-22,-37,12,-595,-31,-19,-10,-36,-105,877285
-179,-43,20,12,-13,-6,-156,-169,-39,53,-162,-25,-44,70,-27,-227,46,47,124,-200,-607,-187,31,134,-411,-1444,133,94,68,81,319,877286
-228,-37,25,47,-10,-19,-138,-160,-48,98,-94,-77,170,167,5,-274,65,57,207,-236,-780,-182,69,176,-494,-1780,157,131,114,118,344,877287
-60,-26,-7,30,11,0,23,106,39,100,-18,-84,27,64,-21,-123,21,-8,64,-54,-366,-60,23,48,-144,-1168,30,53,69,23,25,877288
47,-19,-27,17,21,27,98,240,58,153,22,-60,-51,-8,-39,-5,13,-19,-24,64,-36,48,4,-20,85,-687,-25,11,42,-21,-142,877289
58,-28,-54,-3,0,10,109,174,27,18,4,-17,30,-65,87,12,-32,-66,-95,71,99,72,-41,-99,161,-454,-93,-40,-26,-88,-241,877290
35,-19,-45,-4,-1,4,58,27,-8,162,81,124,-19,-18,101,19,-19,-42,-64,45,92,82,-28,-58,135,-487,-53,-32,-28,-64,-188,877291
29,-29,-37,-20,-2,1,28,33,-20,123,24,56,-2,-16,74,11,-10,-24,-68,34,112,87,-9,-76,136,-457,-71,-34,-44,-80,-125,877292
36,-28,-19,-17,15,30,2,124,12,89,-72,-31,-32,-69,73,-15,-7,-32,-36,6,83,73,5,-64,108,-512,-66,-28,-27,-76,-88,877293
46,-41,-28,-37,2,29,12,43,2,33,-41,-10,2,80,1,9,0,-22,-49,31,105,97,-4,-54,139,-466,-51,-24,-19,-56,-60,877294
117,-8,-64,-25,5,27,140,127,-62,67,-203,95,35,93,-7,109,-20,-42,-142,133,345,158,-34,-115,322,-72,-115,-76,-55,-99,-274,877295
453,25,-162,-64,19,34,575,211,-111,51,346,306,-270,210,80,512,-130,-179,-497,535,1437,325,-130,-461,1148,1698,-442,-289,-201,-325,-1033,877296
562,20,-185,-122,5,15,654,367,-190,-92,372,278,-166,-108,78,673,-175,-209,-657,672,1901,350,-201,-565,1436,2611,-545,-369,-311,-421,-1129,877297
476,26,-139,-128,-3,-5,503,436,-136,-128,137,286,-6,-186,-1,566,-190,-197,-643,542,1714,245,-230,-532,1213,2497,-502,-382,-380,-415,-904,877298
112,12,-26,-84,-46,-39,37,138,-69,-21,58,-11,-24,-268,3,162,-98,-67,-309,110,641,9,-163,-230,323,936,-191,-215,-286,-215,-172,877299
-107,5,28,-28,-48,-42,-241,-75,41,-134,167,-125,9,-111,-12,-76,17,60,30,-92,-110,-70,-47,59,-191,-289,74,-3,-91,1,280,877300
-90,9,28,-11,-31,-31,-216,-194,127,36,1,34,108,-48,-65,-58,23,59,58,-64,-137,-72,-20,50,-168,-402,68,17,-38,26,187,877301
-100,5,27,-8,-34,-42,-152,-8,42,131,136,62,82,37,61,-31,27,58,52,-20,-130,-74,-1,56,-143,-436,84,26,-5,32,182,877302
-66,11,25,-5,-20,-30,-52,190,54,126,155,32,-89,52,76,0,40,61,41,36,-78,-42,18,49,-65,-362,79,27,13,37,78,877303
2,9,4,12,6,-5,36,160,14,152,-134,-26,9,46,-34,4,-3,4,-38,47,-7,-40,-16,-28,-13,-261,-21,-29,-34,-19,-25,877304
74,6,-36,-6,1,5,135,161,-53,7,-130,-2,-210,-86,-40,91,-35,-32,-101,128,221,9,-49,-85,170,85,-85,-73,-42,-65,-232,877305
312,37,-84,-31,23,50,442,326,-158,40,127,158,-210,102,37,376,-107,-127,-337,391,982,148,-114,-310,763,1303,-306,-199,-132,-210,-674,877306
510,49,-145,-64,18,47,648,406,-241,-80,128,173,46,17,19,570,-203,-232,-580,562,1635,218,-213,-535,1214,2447,-525,-342,-298,-388,-1065,877307
680,62,-190,-119,12,38,786,326,-326,-93,382,167,124,100,139,769,-281,-312,-821,725,2290,307,-308,-741,1640,3630,-705,-485,-455,-545,-1400,877308
135,17,-32,-103,-54,-33,77,-131,-88,60,196,-85,69,-164,-78,219,-103,-61,-311,104,858,56,-188,-237,410,1514,-196,-209,-311,-219,-53,877309
-179,19,74,-10,-45,-47,-267,-177,102,-27,-165,-128,13,-52,-95,-116,64,105,168,-225,-180,-39,-8,161,-323,-220,170,64,-45,105,477,877310
-86,36,48,11,-15,-14,-130,70,83,-146,-163,-79,51,98,-41,-39,45,63,108,-151,-21,19,-7,97,-118,-54,111,40,-10,91,249,877311
-70,7,10,-16,-33,-18,-103,39,48,-39,-86,-83,169,54,-47,-18,38,55,74,-132,36,29,-27,77,-41,-6,89,26,1,76,160,877312
-53,4,2,-20,-22,-24,-88,-58,116,58,-48,-33,66,148,-44,3,32,53,61,-124,61,41,-34,65,-20,14,58,29,11,60,137,877313
-41,-8,-13,-51,-35,-26,-122,-52,13,-55,-133,-41,-15,151,-19,-11,-13,1,-1,-134,92,17,-75,-4,-2,67,-4,-24,-29,-1,44,877314
194,15,-43,-59,-1,21,123,74,-159,4,-43,147,41,82,41,219,-80,-88,-206,121,714,125,-114,-216,498,1023,-222,-143,-101,-156,-504,877315
861,57,-233,-123,32,54,910,640,-292,-10,526,455,-175,357,195,945,-303,-373,-925,888,2742,452,-323,-884,2051,4332,-880,-570,-436,-634,-1952,877316
1311,103,-354,-199,36,45,1451,954,-422,-139,751,602,-125,453,277,1458,-514,-602,-1570,1371,4335,626,-558,-1426,3102,7150,-1381,-961,-835,-1047,-2749,877317
1081,117,-259,-225,-13,-3,1171,614,-362,-179,638,317,-21,255,163,1275,-476,-471,-1456,1099,3921,472,-566,-1243,2570,6846,-1168,-909,-916,-950,-1995,877318
133,73,39,-126,-92,-83,37,37,-16,40,71,-112,238,-239,-79,294,-153,-30,-492,71,1178,-30,-300,-304,344,2700,-231,-360,-558,-306,150,877319
-300,51,156,-36,-91,-90,-413,-304,139,-210,-247,-286,205,-213,-147,-171,54,171,120,-312,-292,-200,-82,201,-636,236,239,9,-194,104,763,877320
-230,43,130,-17,-59,-47,-271,-259,84,-153,-332,-177,153,-96,-75,-85,82,179,201,-164,-253,-126,6,212,-467,134,243,81,-38,165,524,877321
-161,40,99,-4,-32,-28,-190,-402,28,37,24,-155,81,-119,-12,-57,56,120,151,-103,-191,-117,3,130,-359,167,151,47,-24,109,375,877322
-144,26,84,0,-22,-32,-233,-193,159,16,-156,-181,-58,-138,-39,-104,-1,62,77,-126,-246,-144,-47,64,-366,76,77,-12,-70,43,261,877323
-134,11,83,5,-21,-27,-237,-242,123,-84,-108,-15,105,-101,-111,-104,-10,54,81,-127,-287,-139,-55,73,-357,-20,99,9,-42,47,235,877324
-65,23,45,6,-22,-18,-103,28,-69,-163,-16,-52,92,-227,-84,-18,13,51,47,-26,-104,-78,-40,44,-195,209,57,0,-22,30,62,877325
275,57,-54,-28,2,-1,342,193,-127,-80,245,111,104,-121,59,367,-71,-83,-283,365,940,141,-97,-254,644,1822,-263,-168,-127,-183,-652,877326
755,70,-186,-109,24,32,905,494,-166,-26,439,233,-46,29,102,891,-271,-309,-832,870,2502,376,-278,-785,1806,4394,-767,-498,-404,-554,-1619,877327
746,71,-148,-154,9,31,839,401,-223,-126,575,166,-122,74,94,911,-284,-293,-898,812,2684,355,-339,-800,1794,4914,-758,-552,-515,-580,-1434,877328
47,29,45,-100,-70,-38,-21,-122,32,-26,50,-120,-77,-108,-104,141,-127,-34,-282,-51,725,-33,-229,-197,172,1997,-151,-225,-343,-178,62,877329
-189,35,86,-41,-66,-63,-300,-182,73,-22,-111,-219,154,-174,-152,-118,3,78,94,-317,-106,-99,-90,111,-370,579,120,-11,-88,93,353,877330
-93,26,63,-44,-42,-52,-236,-144,8,67,-73,-98,261,-120,-90,-1,46,85,119,-213,62,4,-37,130,-164,754,133,32,11,138,343,877331
-109,25,69,-37,-41,-39,-234,-99,44,98,-23,-35,-13,-71,-33,-36,45,72,134,-247,-24,-3,-24,130,-198,586,118,51,40,134,304,877332
-93,20,65,-14,-29,-32,-176,28,84,-55,101,-50,26,-55,-45,-53,23,56,101,-262,-53,-35,-48,88,-203,515,79,33,21,95,272,877333
-104,11,65,-17,-25,-14,-158,69,69,-57,30,-151,138,3,14,-79,13,43,94,-282,-135,-58,-46,93,-255,375,77,25,25,100,311,877334
18,3,19,-38,-15,-7,-5,121,76,-117,75,-10,74,103,-21,25,-37,-32,-42,-141,163,-17,-80,-43,4,847,-51,-61,-21,10,-82,877335
374,30,-96,-100,-6,-4,435,356,-183,-93,375,155,0,57,-15,436,-167,-182,-460,331,1333,167,-207,-429,903,2749,-425,-305,-215,-273,-813,877336
243,45,-45,-83,-7,-7,268,139,-86,-102,146,60,47,140,-36,345,-106,-97,-354,239,1079,122,-155,-306,634,2444,-296,-225,-231,-215,-470,877337
152,47,-16,-65,-20,-18,118,5,-21,-214,-9,46,71,5,-48,289,-57,-19,-205,191,844,100,-98,-159,435,2074,-153,-120,-162,-121,-206,877338
-51,13,47,-68,-40,-48,-163,-226,-5,-84,-96,-4,72,-283,-26,82,23,91,33,-1,234,-7,-24,49,-47,1104,63,19,-74,30,245,877339
-164,4,90,-42,-26,-38,-300,-245,29,-40,-149,-38,99,-148,-26,-62,73,153,188,-119,-214,-54,48,185,-352,339,192,117,22,129,443,877340
-157,15,94,-13,-9,-10,-253,-82,-7,-186,-60,-111,-34,-135,-70,-82,67,133,187,-116,-300,-53,55,175,-383,145,181,114,38,126,397,877341
-122,29,84,21,9,1,-205,-121,132,-170,-74,-179,80,-226,-134,-108,46,90,162,-114,-321,-75,36,112,-384,53,119,92,18,74,329,877342
-149,13,57,2,-11,-37,-222,-28,44,-161,-225,-168,70,53,-77,-159,4,53,136,-144,-385,-101,6,84,-423,-64,88,79,-3,28,239,877343
-130,11,48,0,-14,-34,-181,26,-13,-26,-237,-108,127,115,-24,-63,71,114,197,-50,-263,5,82,157,-293,34,160,157,98,102,258,877344
-56,33,43,10,2,-15,-83,-205,31,-23,-318,-57,122,190,33,30,65,93,154,55,-17,62,78,105,-74,373,87,123,90,79,46,877345
49,21,0,-24,-7,-29,-3,-52,-16,72,-60,-50,-97,252,6,118,-29,-19,-40,116,299,62,-12,-68,157,933,-61,-23,-21,-57,-201,877346
-58,3,41,-19,-5,-29,-218,-2,54,131,-73,-12,87,-156,-19,-15,11,35,31,-52,-54,-18,19,45,-133,428,65,25,-3,22,102,877347
-84,-16,55,-14,3,-13,-245,-101,-14,-55,36,49,266,-247,-19,-65,43,70,114,-106,-215,-45,55,97,-234,151,107,75,58,74,155,877348
-37,0,55,-3,11,7,-85,16,19,-46,47,4,42,-259,5,-49,18,19,93,-102,-142,-58,39,69,-141,273,50,67,65,61,137,877349
-34,8,26,22,18,11,15,-64,14,61,-129,-80,104,-83,-59,-80,-68,-66,-15,-165,-137,-153,-69,-27,-126,346,-51,-23,2,-15,-3,877350
-45,8,18,17,10,1,3,-184,-38,-152,-168,-166,103,3,-47,-95,-87,-90,-37,-208,-159,-187,-100,-49,-111,377,-61,-50,4,-23,-30,877351
-35,3,14,5,8,0,-13,3,-34,-233,-81,-169,102,-142,-88,-83,-57,-71,-41,-199,-154,-175,-77,-24,-86,420,-36,-42,26,2,-17,877352
-8,-3,2,-20,-17,-23,35,-11,-28,-10,56,73,-1,-73,-62,11,-14,-15,-18,-98,5,-106,-29,18,48,666,15,-1,76,62,34,877353
-11,18,7,-3,-16,-34,78,-11,-133,-128,138,145,-75,-138,-22,55,26,24,42,-52,74,-59,20,60,104,759,52,54,101,98,45,877354
-66,7,19,-5,-19,-42,10,-33,19,-79,321,-47,-169,-26,30,8,55,52,76,-89,-74,-71,35,106,-27,526,109,79,112,132,213,877355
-61,0,28,-17,-10,-21,-32,-7,-39,64,256,-84,-56,-77,-77,2,64,58,85,-64,-92,-50,57,109,-52,446,99,88,96,104,167,877356
-216,8,94,30,12,1,-300,-223,47,-8,-466,-81,-61,-35,-199,-232,96,108,235,-294,-679,-139,99,232,-535,-538,228,155,105,159,489,877357
-234,-16,83,36,12,6,-337,-162,87,-73,-257,-76,-54,-130,-188,-296,68,82,261,-306,-809,-126,84,226,-613,-853,221,152,121,171,421,877358
-103,-18,61,30,30,31,-131,-6,68,-34,-40,-64,143,82,-152,-160,-5,11,122,-146,-434,-36,33,91,-319,-356,83,76,60,55,152,877359
-18,4,64,44,50,52,-9,40,63,109,-159,63,209,149,-34,-79,-16,-7,43,-47,-187,23,31,24,-160,-49,28,42,36,-4,8,877360
2,6,64,37,52,58,-1,-4,78,-36,49,-6,293,-16,-6,-60,0,-2,42,-29,-119,52,47,16,-112,34,9,43,23,-17,40,877361
-13,5,53,40,36,37,-15,67,1,-113,139,-31,98,32,40,-77,-3,5,47,-53,-153,42,45,13,-137,-2,17,46,1,-24,126,877362
-39,-11,35,14,11,10,-41,55,11,-177,-130,-22,131,-43,18,-81,-21,-10,33,-63,-174,28,21,8,-162,-43,-2,37,-11,-43,91,877363
-71,-21,22,-8,1,-13,-73,-5,69,-118,-26,23,-28,-73,-67,-80,-5,5,79,-61,-204,40,14,43,-174,-96,51,60,21,-11,119,877364
-47,9,39,21,18,11,-54,-3,61,3,94,77,30,76,-72,-30,50,60,129,-23,-153,85,74,88,-118,-43,101,114,71,45,168,877365
-63,-12,23,13,3,-4,-92,-51,74,-71,-2,-29,25,-116,19,-72,43,57,142,-76,-242,29,80,92,-189,-167,87,116,63,36,199,877366
-314,-9,105,56,8,-7,-362,-113,145,62,-213,-150,-136,-67,21,-345,133,176,402,-362,-1006,-110,153,359,-779,-1406,341,269,182,219,770,877367
-435,-20,109,92,-6,-29,-440,-197,153,192,-469,-186,-41,64,-96,-493,158,192,519,-477,-1425,-194,174,454,-1027,-2165,425,336,279,308,894,877368
-51,0,-4,60,31,2,23,-131,-31,-6,-265,30,-16,175,33,-67,48,23,155,-19,-346,-4,85,102,-93,-509,76,133,198,100,-10,877369
100,12,-35,22,34,15,140,5,-84,50,183,168,-4,183,32,132,31,-1,5,163,170,65,78,4,296,393,-24,61,135,27,-171,877370
47,-7,-35,0,8,-8,73,18,-22,50,59,98,-33,0,22,90,46,7,22,110,96,3,96,30,219,391,-9,71,137,38,-33,877371
15,-3,-18,3,4,-11,18,-138,33,73,-180,119,42,-19,25,45,63,27,45,58,-36,-60,108,75,119,258,34,84,153,85,47,877372
-24,-5,1,5,7,-3,-52,-180,-55,-75,-203,54,153,-23,-3,-7,66,46,71,-10,-211,-102,86,119,-18,27,96,96,164,135,120,877373
-66,-12,1,13,-17,-23,-79,-95,-29,113,-102,71,21,-115,20,-45,58,53,113,-42,-308,-139,68,147,-88,-105,124,110,177,154,118,877374
-115,-6,9,35,-12,-39,-126,-32,35,78,49,32,-75,-16,38,-82,101,98,243,-64,-453,-125,126,241,-182,-391,210,203,237,222,252,877375
-394,-24,86,68,-14,-39,-475,-296,61,3,-268,-135,-91,-169,16,-414,154,183,501,-409,-1308,-254,168,483,-855,-1809,442,339,312,371,897,877376
-643,-44,178,115,-12,-12,-760,-505,247,50,-276,-289,-49,-209,-35,-727,238,274,780,-698,-2161,-358,268,723,-1482,-3338,682,500,442,547,1390,877377
-595,-65,163,129,16,23,-707,-325,208,214,-131,-246,-28,-145,-3,-700,278,289,832,-626,-2172,-277,335,728,-1416,-3611,687,545,522,572,1180,877378
-115,-39,25,84,74,82,-126,-108,91,65,-85,9,-30,208,68,-208,119,80,373,-92,-804,17,211,266,-307,-1633,226,295,345,248,127,877379
79,-35,-52,36,55,69,123,94,34,55,-6,153,138,100,63,-7,-4,-55,14,68,-112,82,75,-39,139,-499,-63,67,104,-16,-255,877380
47,-20,-40,39,47,49,104,188,25,93,2,-20,27,-85,80,-41,0,-41,-4,4,-136,71,53,-33,50,-504,-49,51,49,-40,-107,877381
68,-27,-45,20,32,48,114,123,-62,-18,-52,56,-74,-102,-50,-19,-31,-64,-50,17,-1,104,21,-75,125,-280,-87,16,-13,-86,-170,877382
72,-5,-35,35,45,64,107,61,-134,-86,71,141,4,-18,-71,0,1,-29,5,17,35,121,48,-31,124,-239,-47,56,3,-52,-139,877383
64,-3,-38,26,31,43,122,158,-72,-11,-25,-28,-69,35,43,13,-6,-25,-31,26,81,108,29,-48,124,-160,-53,25,-5,-76,-200,877384
9,-19,-24,20,19,13,37,197,-22,-53,-17,3,32,-33,-4,-45,14,-14,-5,-24,-59,83,41,-16,4,-344,-25,30,-10,-45,14,877385
-126,-17,23,33,22,8,-165,-197,22,-135,74,13,138,-8,-21,-190,83,74,178,-159,-487,16,113,166,-327,-1038,153,145,92,83,393,877386
-377,-34,99,62,8,-7,-494,-484,82,-163,49,-63,-32,61,31,-450,164,181,427,-408,-1247,-117,185,408,-904,-2280,393,296,228,250,832,877387
-505,-51,110,91,-1,-16,-634,-341,134,-11,-255,-77,-93,-26,-28,-571,216,220,588,-511,-1699,-187,233,542,-1160,-3070,503,395,351,357,918,877388
-89,-29,-13,45,34,36,-138,14,-2,-93,29,75,18,185,70,-150,91,34,183,-37,-596,-11,134,155,-209,-1384,114,163,234,105,-21,877389
136,-50,-55,-29,36,60,91,94,-57,40,241,177,-183,198,86,86,11,-53,-94,209,76,59,64,-71,278,-211,-91,11,98,-65,-305,877390
88,-41,-35,-13,27,52,104,-2,-52,139,154,117,-186,67,44,35,-1,-39,-106,161,-29,-11,55,-50,160,-267,-89,2,76,-61,-254,877391
56,-4,-12,30,42,47,104,26,-24,170,133,25,-97,-49,46,-36,-39,-68,-129,87,-154,-97,0,-70,36,-372,-110,-39,37,-75,-167,877392
31,-7,-8,29,46,48,15,-80,-14,-47,-38,-46,27,-124,35,-102,-71,-95,-109,39,-258,-165,-42,-63,-36,-476,-88,-51,29,-65,-133,877393
40,-14,0,21,44,56,-25,-10,80,48,-107,13,20,-98,40,-55,-37,-58,-39,80,-227,-126,-5,8,15,-430,-17,13,94,13,-101,877394
-89,-17,19,29,22,29,-133,-45,75,-43,-215,-44,11,-120,-31,-152,30,12,102,-56,-522,-151,65,138,-244,-918,103,103,133,111,241,877395
-468,-30,124,104,-4,-9,-458,-169,173,103,-317,-183,241,-66,-95,-518,204,219,562,-459,-1607,-281,233,544,-1079,-2753,515,392,334,413,1059,877396
-675,-42,151,143,-13,-34,-566,-373,189,140,-318,-230,45,-179,-75,-738,279,302,828,-666,-2252,-331,319,743,-1512,-3960,704,538,480,559,1300,877397
-618,-54,93,135,-13,-46,-468,-283,171,92,-289,-109,41,119,-108,-698,261,247,787,-599,-2128,-264,319,665,-1341,-3983,615,516,493,501,1053,877398
-148,-46,-51,93,27,-4,-3,-90,31,-147,-122,-70,-180,367,44,-253,94,25,315,-132,-840,-17,177,196,-298,-2067,154,246,300,171,54,877399
133,-34,-94,55,49,35,212,195,-141,1,235,-29,-69,47,50,-23,-37,-120,-46,53,-74,55,41,-112,201,-800,-138,17,75,-84,-403,877400
126,-35,-67,28,41,40,161,111,-24,134,205,63,-42,55,62,-29,-56,-122,-121,2,-12,41,-10,-136,174,-659,-139,-33,-16,-126,-322,877401
75,-47,-59,5,20,29,101,38,-18,-21,-122,61,-88,56,-19,-36,-44,-94,-96,-24,-25,47,-9,-95,128,-663,-106,-8,-29,-103,-280,877402
68,-37,-47,7,27,39,117,26,0,215,130,90,-17,52,13,-14,-11,-79,-61,-11,8,60,20,-79,131,-601,-94,7,-22,-88,-240,877403
35,-22,-41,14,22,28,93,-31,-57,131,260,60,-126,24,82,-61,-16,-61,-70,-69,-80,28,10,-74,33,-718,-74,-6,-44,-94,-70,877404
-6,-32,-27,12,11,16,19,-44,-17,64,174,88,-112,110,39,-130,-31,-56,-58,-142,-246,-32,-8,-54,-105,-944,-40,6,-56,-95,23,877405
-153,-45,37,29,20,23,-180,-24,-24,78,-100,-18,89,80,-60,-302,31,20,114,-315,-762,-133,39,116,-505,-1734,129,109,32,19,384,877406
-317,-44,87,66,13,29,-356,-181,26,0,-119,-75,8,-119,-67,-500,92,93,307,-498,-1351,-236,103,294,-928,-2709,284,219,146,146,705,877407
-346,-41,69,98,12,22,-348,-184,151,69,-218,-66,14,-38,-27,-529,104,96,359,-505,-1522,-237,144,327,-990,-3047,310,272,221,164,682,877408
-175,-35,9,85,35,25,-139,-46,147,39,80,-22,-66,-33,-13,-319,88,45,202,-244,-1020,-118,131,188,-552,-2333,168,206,222,65,264,877409
-110,-44,4,82,34,32,-79,44,153,91,-15,-25,-48,-193,26,-282,25,-14,75,-194,-867,-139,67,80,-459,-2052,78,135,142,-35,150,877410
-164,-28,30,103,45,46,-119,142,110,129,-28,-83,22,-77,-4,-362,3,-2,106,-255,-1033,-195,59,104,-603,-2292,106,156,140,-37,201,877411
-200,-27,56,108,42,42,-162,-55,35,6,40,-18,34,39,-41,-354,69,66,201,-240,-1129,-152,128,202,-654,-2491,200,239,220,46,342,877412
-250,-40,48,91,23,26,-202,-290,96,156,-146,-43,-74,-12,6,-349,137,125,296,-229,-1229,-103,191,292,-700,-2712,270,313,303,130,478,877413
-250,-55,21,88,22,3,-204,-248,28,102,-213,-90,-211,77,13,-359,143,117,294,-236,-1242,-95,207,271,-692,-2799,248,320,311,118,434,877414
-353,-63,54,110,22,2,-334,-254,53,188,-360,-120,-64,-95,-59,-513,136,121,386,-399,-1567,-180,211,349,-955,-3375,325,348,306,152,683,877415
-538,-70,128,159,38,18,-592,-310,286,95,-370,-150,155,-268,28,-771,176,173,606,-667,-2252,-319,245,543,-1456,-4573,509,457,395,294,967,877416
-388,-88,61,115,37,20,-403,-82,179,98,-142,-121,71,53,53,-618,117,89,469,-495,-1821,-260,186,381,-1050,-3998,360,370,359,213,625,877417
-409,-85,56,113,27,22,-380,-87,230,124,-148,-122,-27,0,-26,-605,163,114,497,-507,-1838,-261,220,412,-1036,-4100,394,392,369,241,705,877418
-222,-57,-11,116,44,46,-108,66,44,173,79,64,-131,99,6,-364,142,69,350,-264,-1280,-157,214,270,-550,-3303,254,318,341,172,221,877419
-70,-54,-69,75,36,38,75,54,3,182,137,159,-231,162,77,-163,82,-8,150,-71,-704,-88,150,92,-120,-2380,84,197,227,35,-16,877420
-75,-84,-86,24,7,7,0,-31,-18,246,-173,196,-357,70,61,-174,64,-12,105,-91,-681,-107,125,85,-130,-2284,63,160,169,9,5,877421
-64,-67,-61,26,34,33,-41,-68,50,348,-79,138,-192,125,60,-177,85,16,134,-102,-710,-108,126,133,-176,-2340,111,182,183,54,53,877422
-67,-63,-53,36,38,27,-35,-42,-8,235,47,11,-209,84,53,-182,81,1,131,-122,-714,-128,125,120,-186,-2365,101,170,171,46,157,877423
-64,-61,-37,37,33,25,-12,10,55,81,80,-128,-115,-42,45,-214,29,-50,33,-153,-695,-178,77,31,-178,-2304,5,87,86,-40,-7,877424
-152,-62,-1,49,24,32,-108,48,79,160,-2,-126,-176,-150,25,-302,50,-15,86,-246,-935,-230,71,99,-389,-2688,99,123,102,14,257,877425
-272,-63,38,80,20,44,-231,0,28,61,-125,-58,-144,-137,-70,-426,124,74,256,-348,-1334,-239,131,271,-667,-3377,270,237,214,140,519,877426
-215,-74,5,66,8,44,-99,-51,76,12,-45,-31,-215,85,-37,-352,94,52,239,-239,-1149,-173,120,236,-499,-3149,229,250,253,122,315,877427
-295,-47,57,101,38,55,-172,-181,197,129,14,-29,-275,-9,-22,-421,159,131,434,-280,-1379,-146,196,393,-668,-3601,372,393,371,244,609,877428
-115,-34,-20,103,62,66,17,125,-46,140,51,151,-212,150,37,-239,96,40,254,-55,-854,-9,162,199,-256,-2874,166,282,320,105,76,877429
8,-26,-73,54,41,40,138,118,-183,-144,-50,172,-384,244,48,-75,44,-11,66,118,-310,129,125,17,106,-2057,-1,179,220,-38,-139,877430
-44,-47,-71,26,15,22,22,209,-23,-81,-131,107,-320,172,90,-83,86,40,121,114,-293,211,160,83,40,-2078,51,228,236,-9,-1,877431
-15,-54,-75,15,12,22,16,212,-65,35,-112,96,-321,182,84,-32,88,44,117,184,-136,301,171,68,127,-1878,52,223,239,-17,-13,877432
16,-48,-61,12,28,29,24,129,23,36,143,138,-267,269,83,16,93,49,97,222,-2,373,167,49,201,-1709,49,193,224,-23,-101,877433
29,-48,-39,11,43,51,19,26,92,108,53,132,17,175,55,-8,70,41,66,185,-9,357,130,32,161,-1722,34,154,194,-29,-48,877434
-151,-54,10,35,35,53,-179,-41,61,142,-241,-57,143,0,-30,-277,46,42,153,-112,-612,140,82,125,-326,-2559,131,168,164,27,329,877435
-746,-78,199,145,9,15,-893,-431,322,29,-681,-404,72,-184,-150,-968,264,312,855,-815,-2570,-240,291,773,-1787,-5677,764,578,483,508,1662,877436
-723,-97,166,169,21,23,-822,-252,260,13,-126,-275,141,39,-47,-920,336,329,1002,-699,-2699,-230,390,857,-1674,-6083,810,685,681,642,1449,877437
-438,-89,62,147,39,39,-437,-361,87,42,9,-43,-152,194,80,-623,230,171,692,-380,-1946,-166,301,556,-988,-4963,506,511,580,423,815,877438
-31,-73,-89,84,43,57,87,28,-72,18,327,184,-223,7,86,-182,59,-44,191,76,-724,-50,135,112,11,-2979,84,207,358,122,-103,877439
157,-58,-148,10,35,54,319,-2,-176,-89,375,169,-249,151,128,56,-36,-137,-119,281,5,-16,18,-131,514,-1698,-146,21,156,-71,-437,877440
138,-40,-152,1,23,26,300,-99,-204,-80,187,224,-299,259,90,89,-27,-101,-140,278,82,-48,14,-128,505,-1459,-128,3,91,-63,-416,877441
142,-31,-139,0,25,24,315,-173,-51,95,98,240,-126,153,96,129,9,-70,-113,299,160,-61,43,-85,534,-1282,-91,24,105,-22,-388,877442
150,-31,-125,1,28,19,288,-119,-98,201,137,221,-34,-22,98,147,15,-47,-113,297,200,-73,31,-69,542,-1171,-82,37,93,-17,-332,877443
157,-28,-131,4,27,30,217,-124,-76,-14,117,265,34,10,7,117,-19,-84,-146,255,200,-113,-3,-111,501,-1112,-148,0,34,-72,-247,877444
72,-29,-76,1,23,29,118,-227,-3,-26,222,148,-127,77,56,5,-34,-77,-110,137,-18,-175,-25,-64,289,-1410,-96,4,39,-49,-155,877445
-40,-36,-17,31,21,42,28,-4,71,183,38,105,31,33,20,-124,-13,-39,-18,3,-351,-217,-16,26,4,-1940,13,46,83,17,-30,877446
-17,-50,-44,22,6,38,72,-60,2,150,-119,89,88,48,-50,-99,-16,-60,-48,37,-261,-148,-3,-25,65,-1825,-37,14,83,-9,-54,877447
-10,-32,-38,30,10,39,25,105,-6,24,-69,-16,26,-134,23,-106,-3,-37,-30,37,-245,-74,17,-13,44,-1831,-19,34,108,-3,30,877448
80,-31,-83,8,9,21,81,161,-57,125,-5,35,37,-21,13,16,-15,-42,-70,166,76,79,18,-57,264,-1416,-55,41,140,-31,-218,877449
174,-36,-107,-22,15,15,164,69,-64,60,159,162,36,43,87,157,-33,-48,-177,295,501,267,-17,-158,521,-816,-137,-4,109,-117,-357,877450
126,-27,-64,-17,22,17,128,26,-83,-60,37,134,49,106,118,133,16,12,-93,264,459,378,8,-72,423,-962,-51,63,154,-61,-205,877451
140,-22,-79,-13,11,16,225,84,-111,-167,-58,58,-44,120,57,137,-20,-38,-133,267,570,443,-26,-140,470,-831,-114,16,102,-127,-352,877452
118,-14,-94,-21,-7,-1,280,261,-113,92,31,77,-77,-24,37,109,-62,-81,-196,232,642,449,-44,-223,481,-702,-206,-59,20,-208,-383,877453
131,6,-76,-7,13,16,286,273,-122,86,87,95,-15,-43,-7,121,-56,-68,-209,228,681,459,-39,-235,491,-618,-211,-72,-3,-218,-354,877454
78,-13,-49,-27,10,16,175,-24,-22,74,18,39,-92,43,-37,67,-44,-43,-163,173,523,376,-47,-167,380,-802,-135,-48,6,-164,-166,877455
-203,-38,36,-15,-27,-15,-179,-228,92,104,-157,-42,6,-46,-98,-224,55,70,136,-133,-361,133,38,126,-256,-2107,143,117,120,52,439,877456
-147,-36,11,6,-14,-9,-127,-96,-3,65,-121,2,30,-171,-100,-174,59,58,152,-55,-358,81,53,131,-143,-2087,141,120,169,102,228,877457
39,-19,-34,1,6,21,86,125,-36,41,17,-25,-61,-85,49,3,-10,-38,-38,150,80,58,-11,-36,265,-1304,-26,7,98,5,-212,877458
138,-19,-81,-30,0,0,243,193,-32,186,111,131,-177,36,45,147,-26,-80,-170,303,420,32,-28,-134,551,-651,-136,-73,43,-58,-401,877459
151,-23,-93,-44,0,-9,277,262,-18,23,96,64,-155,-8,35,222,-25,-58,-184,344,546,14,-39,-122,636,-356,-131,-67,39,-40,-367,877460
167,-24,-83,-50,4,3,239,101,-135,45,119,42,-96,220,-20,210,-63,-92,-222,323,541,-71,-94,-145,610,-255,-151,-99,5,-69,-367,877461
205,-12,-77,-43,3,15,239,268,-34,27,11,93,-134,146,124,207,-89,-108,-268,324,580,-121,-112,-180,626,-101,-184,-150,-26,-91,-376,877462
209,13,-65,-31,-6,17,265,283,52,-41,226,95,-145,197,97,232,-67,-80,-282,341,620,-116,-91,-169,639,18,-164,-148,-20,-73,-306,877463
166,16,-59,-38,-18,-8,242,194,14,50,137,214,-6,93,68,224,-35,-50,-221,332,579,-108,-53,-126,600,-3,-130,-103,12,-18,-234,877464
136,21,-51,-39,-17,-15,210,192,-38,35,76,163,-37,-53,64,217,-29,-30,-193,312,557,-84,-55,-104,555,-9,-92,-81,30,-3,-218,877465
48,16,-41,-26,-35,-42,104,310,-7,177,-12,-24,-78,-75,55,147,-6,16,-99,219,334,-68,-37,-20,358,-366,-20,-26,76,61,-52,877466
104,10,-65,-35,-23,-37,202,250,-67,-89,-63,35,133,4,4,205,-6,-10,-129,277,519,21,-38,-81,493,-126,-74,-46,70,17,-211,877467
173,16,-77,-37,-6,-20,326,193,-93,-47,112,112,180,155,-8,247,-69,-73,-243,317,763,72,-85,-210,636,246,-183,-145,-15,-89,-406,877468
197,25,-70,-19,4,-15,348,143,-52,14,-169,86,57,217,42,269,-81,-64,-249,318,867,157,-94,-234,660,381,-191,-146,-32,-114,-377,877469
169,49,-65,-8,-5,-28,298,158,-85,16,-86,11,23,122,68,265,-62,-47,-221,277,888,233,-92,-209,630,357,-173,-128,-38,-119,-378,877470
162,37,-66,-35,-16,-23,199,165,-90,-53,226,32,17,47,19,264,-46,-44,-195,258,936,312,-74,-212,627,357,-157,-120,-44,-129,-270,877471
158,24,-54,-63,-11,-18,137,74,-24,-45,134,178,28,162,8,282,-12,11,-124,280,981,427,-30,-157,646,368,-103,-77,-27,-93,-221,877472
155,21,-48,-70,-25,-26,147,128,-105,8,150,62,17,122,26,274,-13,8,-130,259,976,455,-43,-154,624,362,-94,-77,-51,-111,-256,877473
174,25,-43,-55,-24,-18,163,38,-81,-172,269,-68,142,86,38,239,-64,-51,-202,223,976,422,-99,-231,613,416,-176,-156,-131,-181,-289,877474
359,31,-94,-72,-6,-5,363,156,-49,-55,232,131,6,200,106,467,-105,-105,-368,472,1525,496,-136,-389,1062,1336,-326,-246,-188,-264,-726,877475
948,52,-268,-184,22,42,1027,544,-339,-197,648,446,-249,450,168,1119,-335,-387,-1065,1131,3351,700,-354,-1005,2461,4431,-937,-668,-517,-701,-1995,877476
1145,90,-277,-235,13,62,1168,662,-315,-172,624,461,-127,287,162,1320,-457,-477,-1379,1272,4007,655,-490,-1221,2850,5853,-1142,-874,-746,-894,-2257,877477
1038,101,-216,-247,-5,38,1008,521,-399,-20,498,366,-40,112,96,1247,-427,-414,-1328,1149,3828,514,-515,-1109,2610,5930,-1031,-861,-771,-809,-1920,877478
371,87,10,-172,-45,-16,229,87,-44,153,39,18,201,-311,-44,566,-194,-105,-676,398,1921,89,-329,-446,1046,3158,-377,-491,-520,-340,-323,877479
0,80,115,-75,-55,-51,-180,-184,98,85,-392,-43,238,-142,-87,161,-5,100,-134,29,630,-114,-132,14,159,1115,58,-169,-184,51,356,877480
30,74,78,-47,-45,-51,-96,-94,39,52,-127,-118,204,112,-47,185,3,79,-76,104,594,-122,-86,27,234,1005,51,-114,-70,106,202,877481
33,62,57,-63,-53,-53,-97,157,8,-65,117,-66,76,10,-25,190,-12,56,-105,122,563,-158,-105,-15,265,999,13,-133,-44,82,130,877482
27,39,47,-72,-61,-59,-124,38,-78,-210,-131,-36,194,-85,-64,182,-32,38,-136,117,510,-173,-92,-41,270,961,-7,-145,-32,71,41,877483
65,41,59,-72,-39,-19,-67,93,-3,-184,-191,-34,146,19,-30,225,-4,44,-104,176,554,-136,-65,-23,328,1034,-1,-117,16,95,-39,877484
225,20,-11,-104,-31,-16,166,148,-44,-17,-105,5,124,15,33,403,-37,-14,-199,367,1036,-9,-99,-137,732,1755,-134,-160,2,11,-421,877485
509,69,-102,-104,-7,-3,544,144,-17,20,319,154,-61,-2,71,679,-172,-171,-525,638,1906,139,-222,-464,1373,3189,-456,-378,-195,-234,-978,877486
710,110,-152,-115,1,-14,789,489,-126,84,518,97,-65,-20,113,895,-280,-277,-813,827,2600,260,-326,-725,1839,4399,-693,-566,-391,-430,-1364,877487
861,110,-189,-178,-12,-27,965,600,-311,-38,454,209,-297,-22,117,1075,-367,-363,-1063,962,3240,374,-438,-939,2204,5555,-879,-747,-601,-606,-1615,877488
299,84,1,-133,-56,-53,267,177,-68,-205,49,-76,30,-140,0,463,-207,-123,-524,265,1675,128,-328,-416,857,3206,-335,-459,-493,-271,-263,877489
2,76,94,-69,-55,-42,-89,-11,77,-225,-33,-227,131,-137,-26,130,-55,41,-63,-55,654,115,-166,-36,133,1461,25,-187,-256,25,215,877490
100,69,58,-68,-41,-35,7,-129,51,-129,-24,-82,-29,-71,18,214,-75,-10,-130,48,870,251,-171,-136,334,1644,-71,-243,-271,-53,-87,877491
114,49,36,-95,-39,-33,8,29,69,-48,79,-53,115,-169,30,212,-98,-43,-163,46,924,276,-194,-189,367,1666,-131,-276,-315,-109,-153,877492
122,53,29,-86,-39,-35,22,17,-40,-97,14,-41,36,-66,-36,206,-136,-76,-182,46,933,272,-222,-224,385,1673,-159,-287,-345,-142,-233,877493
125,58,34,-75,-35,-42,47,42,-93,-126,91,13,-1,-41,-80,235,-122,-56,-167,80,958,294,-210,-208,409,1708,-151,-265,-326,-137,-162,877494
309,74,-7,-95,-27,-29,263,89,-136,-183,552,79,61,-70,14,472,-110,-70,-287,349,1488,412,-185,-307,851,2550,-259,-305,-307,-191,-574,877495
881,100,-199,-184,-14,-9,959,295,-315,-133,806,282,-147,31,114,1152,-295,-314,-940,1035,3312,650,-360,-895,2266,5597,-822,-682,-558,-586,-1767,877496
1057,126,-235,-236,-22,-9,1136,500,-438,-23,593,389,-322,-41,138,1364,-399,-396,-1265,1187,3988,619,-495,-1114,2653,7026,-1027,-886,-764,-777,-1987,877497
877,138,-138,-240,-33,-21,837,555,-407,-189,210,277,-115,67,77,1210,-311,-258,-1087,981,3564,473,-433,-887,2216,6662,-805,-766,-706,-616,-1432,877498
207,98,38,-192,-103,-95,-11,-67,-89,-231,-90,-212,87,24,-50,499,-110,1,-424,235,1645,90,-249,-276,669,3805,-231,-389,-429,-184,-50,877499
-76,88,106,-114,-98,-98,-347,-239,40,-207,-331,-257,122,-170,-122,162,-3,108,-26,-58,611,-68,-127,48,-16,2160,71,-162,-171,83,420,877500
-56,84,116,-91,-76,-76,-286,-142,137,-175,-87,-232,195,-122,-59,131,-10,85,18,-51,491,-98,-102,45,-23,1924,55,-129,-88,96,284,877501
-30,66,112,-86,-69,-69,-211,26,39,-235,-13,-222,185,-93,-109,131,-39,61,-4,-38,450,-121,-109,7,10,1865,15,-131,-62,91,205,877502
8,54,117,-74,-50,-51,-114,19,75,-158,-73,-186,178,-157,-72,128,-77,24,-45,-16,452,-139,-153,-36,47,1883,-4,-161,-65,72,86,877503
22,61,88,-60,-36,-42,-51,-48,71,-21,-40,-126,93,-72,-94,130,-89,13,-74,-12,460,-133,-170,-57,74,1913,-28,-187,-73,51,2,877504
74,71,37,-60,-41,-53,-11,-83,-36,-46,-79,-93,181,-21,-114,218,-63,23,-93,83,637,-40,-108,-69,240,2153,-61,-183,-64,39,-75,877505
234,63,-21,-115,-47,-73,125,-41,-62,-114,-38,28,17,76,-55,446,-57,-9,-185,301,1201,115,-83,-183,673,2983,-177,-209,-104,-27,-359,877506
241,76,2,-119,-37,-69,97,103,-23,4,26,47,75,129,-4,449,-43,3,-175,283,1206,137,-80,-162,660,3022,-149,-200,-141,-26,-296,877507
190,66,4,-104,-54,-72,85,-11,-62,-167,28,-44,140,-15,-41,334,-102,-58,-266,140,1023,52,-161,-223,486,2802,-203,-303,-267,-100,-278,877508
59,56,63,-56,-52,-56,-28,-175,71,-144,25,-163,38,-223,-143,154,-92,-32,-154,-56,576,-38,-172,-132,127,2104,-90,-270,-283,-36,20,877509
-34,31,82,-50,-51,-58,-135,-25,218,110,18,-171,115,-344,-127,50,-38,24,1,-151,240,-70,-115,-7,-101,1513,24,-179,-237,57,130,877510
12,47,72,-44,-41,-74,-41,-106,98,127,229,-44,165,-267,-81,84,-43,3,-14,-120,305,-57,-108,-57,-3,1565,-20,-200,-283,14,83,877511
-8,69,81,-18,-43,-83,-9,-148,96,3,55,-105,159,-144,-9,84,-24,7,20,-144,223,-89,-90,-30,-38,1421,-3,-178,-287,17,114,877512
10,59,73,-15,-37,-53,13,-282,113,-197,19,-98,91,-133,-70,66,-51,-26,-21,-140,216,-151,-113,-68,-32,1414,-38,-195,-308,-28,43,877513
6,50,62,-26,-38,-40,2,-142,40,-176,85,-112,22,-195,-94,55,-64,-36,-39,-133,200,-182,-114,-70,-41,1395,-43,-201,-310,-37,-19,877514
66,58,43,-26,-42,-38,70,-56,-51,-143,168,46,1,34,-77,145,-52,-32,-60,-46,374,-127,-104,-86,110,1665,-71,-203,-273,-53,-79,877515
191,74,4,-37,-22,-29,225,-100,-117,-4,88,169,97,170,5,313,-61,-53,-169,129,798,-9,-114,-185,419,2337,-174,-227,-260,-113,-352,877516
110,69,19,-28,-30,-50,119,-235,-15,-65,-63,-50,36,174,-45,233,-44,-12,-118,49,610,-11,-87,-113,207,2079,-101,-164,-207,-80,-112,877517
-19,70,72,-1,-25,-34,-60,-192,153,-180,-162,-197,270,-48,-67,39,-23,30,-5,-144,120,-56,-46,8,-195,1304,7,-104,-131,1,180,877518
37,59,78,9,-4,-15,-28,-88,5,-246,-178,-92,206,-84,-42,61,-24,35,6,-87,198,37,-40,7,-126,1363,-8,-82,-73,10,26,877519
33,41,60,-2,-17,-25,-3,-86,-64,13,-61,-122,73,-212,-100,54,-45,0,-31,-80,255,72,-42,-40,-91,1424,-63,-107,-93,-31,-4,877520
-18,34,81,4,-25,-34,-25,-105,-6,58,-61,-98,198,-306,-58,15,-32,12,5,-115,158,97,-33,-10,-157,1247,-27,-83,-52,-17,110,877521
-52,43,94,7,-25,-26,-59,-115,-53,-28,64,-182,165,5,-72,-12,-5,42,58,-147,66,138,-9,31,-237,1064,22,-56,-16,19,210,877522
-63,47,99,8,-11,-6,-105,-4,3,-71,86,-155,160,-182,-65,-26,8,61,100,-149,8,178,16,61,-276,915,59,-36,10,57,202,877523
-79,24,95,5,-20,-12,-114,-12,16,-36,133,-133,65,-194,-93,-32,6,52,102,-161,-21,196,7,62,-277,840,71,-30,8,66,176,877524
-57,33,99,25,-7,0,-119,42,50,19,-119,-178,174,9,-102,-39,4,52,115,-153,-37,185,11,57,-267,792,63,-23,-6,63,167,877525
-18,38,68,3,-10,-3,-92,46,-20,-39,-50,-213,149,-7,41,5,-4,31,86,-103,62,171,7,42,-156,925,49,-36,-34,50,129,877526
-38,39,62,2,-6,-4,-130,-75,68,-56,16,-135,146,-108,47,-35,-14,22,78,-148,-22,92,-26,49,-203,827,51,-59,-73,42,192,877527
-93,27,91,9,-1,-7,-210,-7,118,-132,-1,-131,66,-51,9,-94,42,68,187,-198,-267,4,25,161,-350,438,155,22,-19,126,250,877528
-47,21,72,-7,3,5,-94,126,35,-121,227,-31,42,96,20,-20,34,44,148,-124,-144,-63,40,109,-185,631,83,-5,-58,92,146,877529
-10,23,47,6,-6,-1,-2,63,-1,35,-9,-53,28,-55,-30,-23,-35,-42,36,-126,-110,-242,-27,-12,-108,780,-40,-125,-178,5,54,877530
8,23,36,16,0,8,-20,127,39,36,-27,-122,83,-105,-79,-43,-59,-71,7,-157,-184,-410,-57,-33,-113,796,-57,-157,-241,-3,10,877531
-9,8,46,4,2,10,-96,-5,65,79,-58,-53,-7,-123,-27,-69,-55,-59,10,-181,-315,-538,-64,-2,-173,677,-14,-146,-234,28,39,877532
21,14,50,-6,-1,28,-92,122,-21,-59,-88,-50,60,-140,-21,1,-1,-5,33,-116,-275,-542,-24,53,-110,750,44,-99,-167,88,149,877533
-1,8,50,-12,-7,0,-102,113,-27,-76,37,-9,-35,-153,-17,2,17,10,65,-114,-319,-556,14,87,-136,668,52,-67,-137,96,144,877534
-137,7,82,7,-18,0,-243,-45,150,-150,24,-143,62,-224,30,-174,7,17,139,-297,-715,-605,7,148,-483,47,116,-42,-120,112,360,877535
-462,2,177,71,-25,-17,-612,-123,229,-144,-320,-353,300,-349,-34,-548,129,177,518,-660,-1704,-628,130,476,-1283,-1664,452,197,84,336,1060,877536
-618,-27,191,100,-25,-54,-751,-335,385,-148,-284,-323,320,-269,-64,-698,222,271,769,-775,-2167,-509,247,664,-1616,-2694,619,379,281,490,1309,877537
-574,-44,144,104,-18,-59,-637,-345,258,-34,-374,-245,115,-98,-136,-656,219,247,735,-680,-2017,-301,271,608,-1477,-2743,557,382,343,445,1123,877538
-147,-16,22,79,23,-6,-114,-21,34,-75,-106,-24,-27,157,-34,-224,68,56,276,-204,-768,69,140,164,-508,-970,133,128,188,131,85,877539
80,7,-8,46,37,37,132,115,-8,-34,324,134,7,280,103,18,-9,-26,9,23,-8,290,58,-58,-2,193,-73,-10,41,-64,-194,877540
31,4,-1,30,20,26,91,199,73,-192,164,101,-41,-98,96,8,22,20,40,-4,22,356,74,-22,-57,207,-33,7,10,-39,-73,877541
-40,8,-9,48,7,7,55,-93,0,-119,45,-35,-38,-113,-33,-41,46,41,110,-62,-47,397,98,39,-156,39,33,49,17,-3,33,877542
-44,3,-10,47,11,-6,42,-81,-35,128,-31,20,-54,61,-7,-44,59,49,153,-67,-27,439,109,59,-156,14,42,59,22,10,64,877543
-32,13,10,53,20,-3,20,110,-86,167,-129,22,48,139,108,-30,76,70,160,-61,-4,457,118,73,-158,4,58,69,13,18,79,877544
-75,16,33,62,20,6,-52,-80,68,-109,93,-64,86,-24,45,-111,37,37,136,-165,-199,346,81,61,-315,-255,57,29,-39,3,175,877545
-197,-1,81,65,22,24,-226,-398,98,-309,-136,-81,128,-24,-49,-296,53,54,247,-329,-645,176,93,161,-621,-938,157,77,-14,79,377,877546
-279,-10,110,63,15,34,-356,-359,104,-12,-259,-82,-79,-41,-59,-361,100,119,393,-387,-950,63,145,288,-790,-1426,268,173,82,175,571,877547
-333,-37,107,58,-6,21,-449,-380,121,48,-289,-157,-64,11,-26,-384,180,184,515,-397,-1177,-36,228,417,-859,-1806,374,279,189,297,735,877548
-106,-31,24,21,4,15,-190,-446,12,-40,-372,-22,-60,-43,37,-126,133,84,292,-104,-591,-52,185,230,-300,-836,176,158,142,190,219,877549
38,-20,-18,-6,10,28,-28,-264,-98,-72,60,113,109,55,-16,24,34,-20,50,41,-189,-191,75,51,55,-9,7,-1,21,63,-59,877550
31,-20,-11,3,14,29,-48,-82,-94,-46,47,96,107,31,-105,12,3,-31,-19,23,-255,-403,18,45,48,93,-12,-39,-16,68,-65,877551
17,-15,2,11,14,31,-111,-20,-111,-6,78,-99,-35,22,-27,9,25,2,-5,6,-344,-528,36,83,2,67,23,-16,13,109,79,877552
29,-16,0,-1,12,26,-87,91,-12,88,23,14,-31,-2,37,27,46,-2,15,33,-333,-577,64,96,43,158,14,-11,32,123,93,877553
32,-9,-21,9,8,15,23,96,-13,78,-26,105,47,3,52,28,27,-29,-30,35,-288,-597,43,65,71,260,-11,-40,14,99,-10,877554
-165,-10,35,36,-4,14,-152,134,-34,16,-151,-66,-15,6,-28,-221,21,-1,76,-241,-813,-648,18,160,-406,-602,96,10,17,138,345,877555
-628,-34,179,110,-17,-24,-698,-216,147,88,-391,-318,91,-104,-112,-747,177,214,613,-767,-2240,-709,182,628,-1541,-3046,553,335,263,458,1324,877556
-782,-64,213,157,-9,-27,-846,-501,244,242,-494,-270,131,-236,-38,-907,293,319,899,-883,-2749,-552,327,821,-1883,-4232,743,535,450,617,1556,877557
-657,-70,139,163,3,-18,-650,-631,246,89,-398,-192,-65,-120,-109,-805,243,241,813,-734,-2414,-325,313,668,-1589,-4047,609,488,430,499,1124,877558
-148,-55,-26,105,39,25,-35,-52,25,126,-49,170,-33,163,17,-267,97,43,363,-147,-888,110,199,208,-405,-1894,167,241,245,171,72,877559
92,-47,-84,37,51,44,229,170,19,47,106,148,-133,178,61,20,11,-48,46,108,-2,326,99,-68,167,-549,-85,56,36,-65,-365,877560
88,-28,-47,31,64,69,184,105,-49,4,127,143,-161,-53,9,-9,-22,-63,-12,38,51,364,47,-97,103,-464,-108,-6,-68,-124,-270,877561
93,-16,-39,33,56,67,184,-125,-88,91,-147,198,2,26,23,-19,-32,-75,-41,29,142,415,38,-110,97,-366,-129,-24,-137,-159,-290,877562
60,-16,-54,23,20,32,146,70,-50,170,-152,91,-155,218,25,-14,-11,-46,-4,19,175,432,42,-83,75,-345,-92,0,-146,-150,-266,877563
31,-11,-43,25,12,8,68,-10,-38,90,-3,87,-192,140,65,24,53,30,94,32,155,465,111,-6,51,-408,1,67,-80,-69,-62,877564
-99,-24,-14,29,-7,-14,-85,-103,-49,-48,-58,48,-287,19,6,-139,53,45,158,-138,-224,324,99,66,-274,-948,71,80,-88,-21,175,877565
-411,-41,71,75,-25,-50,-408,-157,-7,105,-178,-95,-162,-156,-39,-494,119,136,406,-505,-1197,53,142,324,-1004,-2429,324,212,33,154,721,877566
-542,-57,117,104,-19,-29,-574,-260,153,-32,-318,-130,-20,-57,-75,-656,185,199,599,-633,-1745,-89,215,500,-1335,-3357,489,337,190,309,962,877567
-534,-63,128,123,2,0,-602,-330,147,6,-229,-145,219,122,-68,-651,229,245,676,-598,-1900,-159,279,572,-1331,-3672,522,412,327,387,1024,877568
-121,-47,-8,75,28,33,-105,-55,8,317,246,131,53,78,28,-191,123,72,298,-71,-759,-49,197,217,-317,-1859,153,223,267,172,20,877569
135,-23,-60,25,38,44,212,172,-55,194,199,167,-37,228,66,98,14,-61,-63,204,21,-125,73,-49,292,-386,-97,22,111,-25,-343,877570
54,-34,-62,2,7,24,138,62,16,126,31,73,-46,182,30,27,-11,-64,-121,117,-178,-352,31,-23,155,-416,-79,-21,100,0,-169,877571
22,-17,-51,15,13,23,109,85,-78,43,42,57,-82,155,44,4,-8,-33,-112,92,-302,-443,32,43,89,-453,-30,-3,138,61,-56,877572
-26,-16,-41,28,15,-1,59,133,-17,-44,-61,21,-12,207,89,-44,2,-23,-87,36,-422,-490,33,72,11,-552,-18,1,140,77,-28,877573
-45,-25,-49,1,-10,-11,-21,-111,53,146,-273,-15,-33,227,84,-66,-1,-36,-61,9,-457,-488,25,78,-8,-582,1,3,140,90,-87,877574
-91,-24,-2,26,14,7,-174,9,71,195,-304,-29,84,16,10,-144,45,20,46,-86,-652,-460,69,152,-191,-968,85,74,156,152,159,877575
-518,-61,119,70,-3,-1,-660,-211,188,200,-399,-211,169,-152,-58,-626,197,220,532,-584,-1918,-538,213,574,-1231,-3170,499,351,313,423,1129,877576
-687,-78,151,119,-14,3,-760,-442,260,133,-395,-261,189,-5,-95,-800,296,318,826,-729,-2453,-431,333,773,-1584,-4353,696,527,472,576,1423,877577
-529,-68,102,132,9,14,-511,-298,263,264,-148,-116,-7,12,6,-633,266,254,753,-530,-2009,-200,323,623,-1191,-3980,556,490,454,476,909,877578
-52,-41,-32,98,60,68,43,22,60,52,-58,155,-12,11,106,-148,117,52,300,-28,-616,123,200,168,-123,-1992,129,220,220,136,-3,877579
155,-40,-71,45,61,77,267,341,-115,-73,-18,240,-135,185,26,76,10,-45,9,166,139,265,88,-97,338,-839,-98,37,-4,-84,-389,877580
123,-28,-78,38,36,48,231,303,-9,60,167,200,-249,87,-2,54,-14,-49,-32,121,203,305,38,-129,297,-740,-119,-4,-100,-130,-342,877581
96,-27,-89,29,21,12,214,216,-15,83,154,174,-231,1,51,49,-17,-49,-71,103,273,327,9,-150,285,-645,-135,-33,-164,-169,-377,877582
70,-6,-82,29,25,20,181,59,-77,-79,-14,231,-188,161,43,42,-5,-40,-58,88,277,337,18,-135,245,-633,-135,-21,-185,-165,-279,877583
43,-13,-79,7,11,18,139,33,-116,-44,-159,156,-328,51,93,13,-11,-39,-41,53,225,300,10,-109,175,-699,-109,-21,-194,-148,-174,877584
-71,-30,-50,8,-3,-9,-1,27,-41,64,-93,69,-202,-11,53,-105,44,30,89,-73,-119,213,47,22,-102,-1199,20,62,-114,-53,120,877585
-345,-32,37,81,-2,-16,-340,-342,161,33,-99,-50,-155,37,-70,-411,145,159,408,-376,-1038,16,151,329,-770,-2625,307,252,68,169,714,877586
-409,-40,60,110,-3,-11,-407,-349,128,-17,-131,-67,-182,128,-73,-494,170,171,515,-433,-1368,-65,184,411,-924,-3183,384,318,190,256,753,877587
-299,-49,36,91,15,8,-306,-114,58,-41,-35,-11,42,33,-23,-370,158,139,460,-275,-1135,-41,202,346,-658,-2833,307,308,250,232,529,877588
-36,-51,-49,42,29,24,-20,167,-100,167,28,160,67,97,73,-96,75,27,152,35,-426,16,134,109,-40,-1623,64,149,193,68,-13,877589
88,-47,-66,0,30,44,96,89,-83,93,94,184,-115,197,107,50,16,-13,-65,176,-33,-15,43,-4,271,-833,-38,42,152,-3,-189,877590
70,-35,-47,0,32,62,31,-82,-63,-53,-54,110,-251,-3,104,12,-8,-38,-118,143,-117,-147,18,-22,226,-772,-83,2,139,-23,-198,877591
43,-39,-55,-4,19,43,-22,-24,-5,-46,-128,139,-55,107,-21,-42,-47,-75,-168,91,-173,-227,-22,-55,179,-745,-123,-51,111,-37,-191,877592
11,-27,-48,12,22,24,-54,116,71,181,35,108,39,82,-61,-54,-30,-41,-114,68,-243,-221,-9,-9,142,-806,-63,-22,142,11,-129,877593
13,-32,-43,6,7,9,-17,-31,67,190,-146,94,63,217,47,2,8,10,-51,119,-195,-165,24,52,197,-724,5,48,199,70,-36,877594
1,-30,-38,10,6,0,23,58,74,146,-198,26,89,90,88,5,33,22,-25,116,-185,-119,55,72,171,-776,30,68,177,90,-39,877595
-5,-38,-36,-1,2,3,-15,88,4,-85,-66,-13,-26,-95,59,-33,15,6,-36,58,-174,-85,37,43,127,-851,9,35,95,58,-59,877596
43,-21,-8,4,20,47,-18,219,-122,25,79,68,-187,-231,37,-25,-13,-32,-54,58,-54,-33,8,-24,185,-750,-35,-12,21,5,-139,877597
80,-31,-37,-8,15,31,62,264,-66,140,291,153,-8,-165,72,38,-32,-61,-77,107,166,44,-17,-95,315,-480,-103,-33,-60,-55,-239,877598
48,-12,-50,-7,-4,5,97,125,-58,109,219,139,33,5,13,37,-9,-35,-40,70,173,76,-14,-70,268,-531,-74,-13,-99,-55,-166,877599
44,1,-54,-4,2,-1,98,145,-74,9,-138,147,28,-110,-24,24,-11,-37,-56,39,164,64,-19,-87,227,-576,-65,-35,-141,-73,-188,877600
50,2,-45,5,16,15,76,238,-46,-23,-44,72,-112,112,4,38,9,-14,-32,33,172,91,4,-65,214,-606,-50,-17,-155,-54,-152,877601
78,-4,-35,6,19,22,89,300,-23,-62,88,84,-175,13,-7,73,2,-13,-45,63,250,112,-11,-82,260,-520,-74,-25,-164,-70,-125,877602
69,-21,-49,-4,8,6,98,104,5,-181,82,-37,-120,-157,26,35,-42,-56,-103,25,245,67,-61,-131,230,-483,-121,-72,-204,-117,-190,877603
60,-25,-57,-24,8,10,92,-51,71,-294,134,-80,57,-180,25,0,-79,-90,-126,6,220,22,-90,-149,206,-478,-145,-97,-222,-141,-280,877604
77,-8,-41,-21,6,32,100,-7,-17,-192,171,87,10,-43,62,33,-69,-84,-141,30,270,37,-89,-154,256,-380,-149,-106,-209,-149,-233,877605
39,-25,-25,-29,2,22,24,111,-37,-167,171,13,-87,-43,-38,-8,-65,-60,-126,-5,160,25,-97,-121,167,-497,-128,-90,-175,-123,-117,877606
83,-22,-20,-18,14,29,62,148,-115,-9,69,-19,-76,-127,-23,33,-62,-67,-151,57,250,36,-78,-132,250,-325,-135,-91,-140,-115,-186,877607
115,-18,-66,-39,-12,3,149,20,-139,68,94,157,-66,-29,-79,97,-106,-98,-264,115,419,40,-119,-220,395,33,-214,-165,-177,-168,-368,877608
29,-16,-54,-23,-11,-13,59,-98,-15,152,93,111,77,-57,-90,18,-95,-75,-210,29,189,-11,-104,-156,230,-211,-143,-140,-133,-134,-163,877609
-34,-12,-27,9,-9,-11,2,-167,-51,-30,-68,63,27,-15,-15,-43,-15,-8,-52,-4,-53,-7,-12,-15,93,-569,-36,-9,2,-39,67,877610
14,10,-17,23,-7,-19,102,4,-66,-131,-85,114,32,124,3,48,33,35,-16,116,71,85,45,29,241,-393,-1,58,94,6,100,877611
35,13,-30,23,-1,-27,146,70,85,28,15,144,24,-17,32,90,33,31,-49,156,157,131,39,-2,329,-251,-27,39,105,-22,4,877612
10,8,-37,13,2,-27,75,65,96,80,57,117,8,-39,96,32,-19,-1,-76,105,88,80,-6,-31,263,-314,-49,1,59,-58,-50,877613
39,0,-16,-4,21,23,-7,113,94,-69,103,-70,-9,-47,54,49,-23,5,-82,118,126,87,-23,-35,294,-258,-34,1,58,-44,-32,877614
105,-16,-18,-29,10,32,40,-69,-66,153,33,10,-45,17,-1,134,-11,0,-120,200,325,144,-5,-75,439,24,-67,-13,35,-66,-134,877615
353,-6,-107,-63,11,27,400,116,-184,254,343,153,-143,176,7,407,-110,-135,-404,466,1136,253,-107,-352,1038,1335,-346,-204,-129,-259,-737,877616
459,36,-130,-60,21,29,527,362,-255,-81,266,119,-95,225,-19,489,-183,-206,-584,505,1503,241,-197,-505,1224,2017,-483,-339,-296,-381,-917,877617
389,49,-81,-49,16,47,406,407,-172,-139,371,71,114,119,68,432,-137,-138,-486,398,1325,181,-167,-409,1021,1836,-377,-278,-292,-300,-596,877618
107,18,-7,-40,-22,9,66,177,-55,-12,42,-105,20,3,70,149,-50,-30,-194,73,553,-3,-105,-141,371,673,-122,-118,-209,-113,-100,877619
-34,13,10,-16,-16,-16,-75,-193,-62,17,30,-168,77,69,2,6,-3,18,-4,-73,125,-90,-56,0,57,-47,17,-16,-109,20,74,877620
-31,3,-16,-28,-33,-38,-62,-101,-60,-14,-207,-124,-13,188,6,35,18,27,22,-45,122,-83,-35,29,85,-85,44,10,-52,56,77,877621
-8,8,4,-43,-24,-22,-64,11,121,20,-102,44,136,236,57,88,61,74,52,4,135,-48,8,55,133,-65,76,35,11,95,76,877622
16,2,12,-55,-14,-5,-71,4,88,-38,-121,-10,26,49,68,83,42,56,17,0,124,-66,1,26,130,-68,45,17,5,76,89,877623
29,5,11,-26,2,17,-30,-83,83,-147,-88,-26,56,-65,-79,26,-17,-13,-64,-43,89,-138,-50,-55,113,-75,-29,-31,-49,10,-7,877624
94,6,-12,-39,-1,22,57,71,-47,-37,63,-40,-31,3,-42,94,-66,-75,-156,35,316,-131,-88,-155,299,302,-131,-103,-91,-63,-293,877625
350,27,-96,-73,8,19,356,427,-114,97,111,211,-92,172,87,446,-115,-125,-395,403,1197,89,-128,-348,986,1722,-335,-222,-167,-198,-755,877626
446,28,-146,-113,-3,-12,435,374,-158,164,130,267,-17,162,92,593,-145,-154,-545,544,1646,187,-173,-461,1275,2529,-423,-299,-261,-290,-878,877627
430,54,-113,-111,-9,-16,397,260,-71,145,251,246,3,168,90,573,-169,-164,-563,514,1663,202,-216,-469,1240,2684,-417,-322,-319,-309,-940,877628
96,45,9,-65,-38,-29,27,75,37,-227,279,3,-100,100,98,201,-79,-27,-256,104,691,69,-146,-171,432,1206,-125,-143,-241,-135,-114,877629
-97,25,77,8,-19,-16,-109,41,102,-152,-57,-85,61,-114,14,-60,-8,51,4,-115,-9,44,-36,11,-66,-3,19,-23,-130,-17,274,877630
-56,38,72,35,6,-1,28,-28,101,-127,-136,-73,61,-167,21,-32,-9,32,21,-45,51,164,-17,-8,28,-38,11,-16,-108,-42,125,877631
-23,32,49,30,6,2,101,8,120,-189,32,-60,76,-145,-77,-11,-15,19,-4,13,139,246,-16,-43,114,15,-16,-20,-108,-84,29,877632
-25,34,46,47,2,5,93,-137,-21,-183,42,-53,-6,-116,-81,-21,-27,3,-13,8,124,274,-30,-45,96,-59,-17,-12,-107,-100,80,877633
-48,43,53,56,11,0,24,-37,10,-36,70,-64,-17,-214,-32,-33,-2,39,35,-12,65,292,-11,-15,60,-198,21,12,-88,-88,93,877634
124,41,-17,7,17,-3,201,222,82,-98,-72,95,-32,28,-34,188,-18,0,-98,215,585,387,-28,-129,496,616,-105,-49,-107,-152,-305,877635
456,52,-120,-61,17,15,566,519,15,-55,160,282,-337,169,66,557,-155,-184,-510,563,1643,435,-168,-494,1284,2419,-463,-295,-298,-393,-1014,877636
561,56,-150,-103,4,18,629,459,-159,-139,270,198,-73,175,62,647,-236,-262,-727,596,2007,331,-270,-654,1462,3224,-597,-440,-441,-495,-1139,877637
455,55,-99,-101,-1,17,476,302,-197,-229,113,133,120,207,59,556,-185,-179,-627,446,1702,185,-243,-507,1151,2969,-452,-387,-397,-386,-760,877638
41,37,24,-67,-39,-38,-12,-71,-41,-217,-126,-149,-122,-159,-80,128,-75,-25,-224,-32,495,-114,-157,-126,189,1233,-77,-165,-209,-105,68,877639
-151,22,71,-26,-47,-51,-245,-101,147,-36,-85,-244,55,-201,-37,-125,-39,18,6,-271,-230,-285,-105,73,-296,120,86,-39,-50,71,294,877640
-120,13,66,-28,-37,-44,-189,-141,78,19,21,-131,279,-190,20,-96,-12,26,17,-224,-240,-309,-65,78,-240,85,85,-17,25,102,263,877641
-91,7,47,-22,-22,-37,-135,-226,-18,-25,-4,-52,280,-203,-5,-85,-31,-12,-19,-202,-226,-340,-71,18,-187,129,25,-51,42,79,191,877642
-36,13,51,7,3,-9,-93,-88,12,50,90,-122,118,-153,-32,-75,-52,-35,-63,-202,-232,-367,-93,-13,-168,163,4,-85,34,60,100,877643
1,16,55,15,7,3,-66,128,27,85,17,-58,255,-24,-26,-58,-59,-43,-67,-171,-208,-359,-105,-11,-126,199,7,-75,40,64,33,877644
103,22,24,1,14,8,68,184,-45,50,-25,-86,331,18,-28,78,-73,-63,-129,-2,132,-251,-103,-77,171,677,-68,-92,30,28,-201,877645
382,17,-62,-56,22,19,425,329,-50,39,47,68,307,-16,75,411,-163,-179,-436,345,1090,-36,-175,-384,893,2172,-359,-279,-142,-191,-755,877646
458,32,-94,-87,12,10,530,327,-175,-64,222,165,239,-97,45,530,-191,-200,-571,441,1477,66,-222,-500,1109,2849,-462,-366,-269,-301,-907,877647
404,47,-76,-91,2,5,469,320,-114,-102,210,20,-70,-223,66,467,-205,-201,-579,360,1416,71,-254,-489,987,2815,-438,-390,-359,-319,-755,877648
87,46,40,-45,-12,-16,58,-59,28,-104,-169,-206,-16,-209,33,120,-92,-58,-243,2,536,-1,-153,-181,249,1399,-137,-192,-280,-123,-40,877649
-116,32,71,-18,-28,-42,-204,-227,64,15,-311,-120,16,-196,-34,-52,11,56,60,-141,3,84,-32,48,-133,353,85,14,-139,55,262,877650
-72,26,72,-23,-11,-23,-165,-177,53,29,-188,-44,99,30,-20,-3,27,73,114,-58,111,245,-5,59,-22,321,106,48,-126,51,130,877651
-10,28,70,-15,4,13,-91,-186,-38,-61,100,-31,0,-115,-34,38,24,49,99,2,233,330,-3,17,79,407,61,37,-152,-10,12,877652
31,23,55,-15,12,29,-37,-80,-73,-39,131,-85,27,-137,-27,84,29,45,62,64,351,383,19,-23,158,505,29,35,-172,-32,30,877653
37,25,51,-6,21,29,-24,80,-15,16,128,28,54,42,-36,91,35,56,41,68,367,386,44,-43,163,508,3,20,-173,-47,51,877654
60,24,19,-11,11,7,59,-111,-29,-74,307,-19,4,50,29,127,0,23,6,91,459,350,6,-78,243,719,-39,-25,-162,-85,-79,877655
433,57,-92,-40,28,15,510,135,-151,-131,332,155,8,155,88,510,-165,-176,-435,478,1528,408,-168,-465,1077,2562,-409,-288,-301,-346,-971,877656
594,57,-145,-98,18,2,674,260,-234,-10,275,229,-78,154,113,729,-245,-268,-708,644,2125,372,-279,-660,1469,3777,-602,-440,-414,-489,-1282,877657
512,66,-115,-118,3,-11,530,97,-179,-50,123,143,-67,-16,63,620,-249,-239,-684,483,1902,192,-310,-598,1209,3693,-544,-454,-421,-454,-978,877658
67,40,55,-83,-19,-21,-55,-139,106,3,-149,-155,85,-140,-52,103,-146,-78,-296,-76,510,-154,-220,-191,86,1731,-157,-243,-235,-169,-29,877659
-176,25,115,-34,-23,-32,-347,-224,281,33,-181,-249,45,-43,-28,-151,0,68,56,-311,-359,-275,-74,132,-478,375,141,-23,35,104,437,877660
-125,15,83,-30,-17,-24,-252,-270,25,90,-146,-167,327,-97,11,-88,7,65,79,-216,-299,-262,-37,137,-357,439,147,1,134,140,357,877661
-126,14,71,-4,-30,-27,-199,-91,-27,17,-125,-170,243,-153,-26,-107,-13,35,76,-228,-367,-311,-29,131,-384,349,143,6,148,145,297,877662
-108,28,84,23,-14,-14,-154,11,78,94,-17,-57,239,-176,-10,-112,-20,9,61,-232,-398,-335,-23,111,-384,277,124,-5,150,142,252,877663
-83,33,68,23,-2,-19,-129,43,72,252,22,-95,178,-27,-94,-85,-7,14,75,-189,-347,-288,-9,106,-311,324,122,10,177,146,250,877664
120,39,14,10,17,1,104,54,-51,125,134,55,5,-172,-36,176,1,-11,-46,96,258,-99,-3,-21,211,1220,-12,-24,162,76,-154,877665
568,54,-113,-66,32,31,657,383,-176,-2,528,250,-43,62,65,663,-158,-205,-554,587,1660,149,-170,-486,1258,3457,-448,-328,-105,-265,-1144,877666
730,81,-168,-117,20,22,876,525,-144,-2,466,175,-56,142,114,869,-259,-278,-824,761,2378,266,-261,-716,1692,4688,-667,-502,-337,-460,-1426,877667
703,79,-156,-141,-6,1,809,444,-166,54,334,116,-166,2,147,854,-279,-276,-875,729,2494,288,-315,-743,1662,4979,-682,-551,-466,-505,-1247,877668
125,65,31,-88,-58,-36,83,165,10,-43,17,-163,-111,-147,-28,266,-85,-11,-275,75,922,65,-166,-198,347,2525,-130,-210,-329,-139,8,877669
-186,52,106,-38,-60,-63,-298,-139,137,-168,-171,-285,-187,-52,-101,-65,41,132,159,-237,-55,14,-19,122,-341,791,194,32,-156,118,440,877670
-168,33,70,-35,-54,-74,-252,-57,74,38,-120,-248,-5,102,-74,-57,31,100,158,-193,-25,89,-25,81,-276,644,163,18,-163,103,335,877671
-102,33,78,-8,-28,-36,-157,44,89,55,-32,-135,160,141,-10,-22,22,83,168,-143,55,148,-14,47,-187,637,139,23,-172,69,220,877672
-66,40,80,5,-18,-16,-117,-153,50,-72,-170,-174,71,139,-41,2,28,89,146,-107,98,178,-3,42,-144,623,118,23,-170,56,189,877673
-55,42,52,8,-29,-24,-95,-134,15,-158,-66,-55,28,84,-70,3,12,49,99,-94,125,188,-13,-7,-118,639,69,-4,-181,21,174,877674
195,54,-37,-25,-5,-17,201,-63,-230,-166,137,104,-337,123,14,295,-50,-40,-118,215,863,318,-58,-215,493,1817,-150,-113,-193,-111,-485,877675
979,88,-259,-162,39,27,1127,420,-374,-87,613,437,-455,456,183,1221,-279,-343,-936,1143,3324,690,-276,-947,2369,5867,-880,-574,-484,-629,-2105,877676
1328,113,-358,-267,10,13,1552,753,-440,-35,498,569,-117,466,287,1646,-469,-519,-1503,1501,4661,764,-503,-1393,3209,8414,-1318,-927,-818,-996,-2716,877677
1012,119,-238,-270,-41,-47,1121,553,-403,-171,256,311,-164,78,155,1281,-477,-455,-1420,1036,3919,458,-588,-1206,2406,7717,-1115,-946,-902,-922,-1886,877678
37,93,100,-129,-83,-94,-116,-126,98,-144,-164,-225,83,-251,-79,211,-145,-12,-419,-107,952,-96,-308,-214,44,3279,-147,-370,-458,-234,374,877679
-359,59,199,-28,-94,-101,-537,-499,260,-138,-443,-342,172,-209,-119,-203,76,200,215,-458,-462,-247,-46,300,-861,952,314,25,-13,206,989,877680
-276,56,167,-9,-59,-77,-396,-371,190,-59,11,-226,396,-54,-157,-156,42,140,213,-354,-432,-217,-33,246,-707,925,258,31,104,200,615,877681
-271,42,129,-11,-50,-76,-356,-313,72,22,-57,-252,126,-126,-98,-161,26,113,215,-323,-474,-219,-38,245,-668,826,257,52,168,213,520,877682
-233,49,117,-3,-44,-62,-294,-247,44,-8,-138,-108,166,55,-104,-47,108,188,304,-188,-378,-114,53,324,-517,870,325,153,282,292,600,877683
-219,34,73,-17,-56,-79,-241,-192,52,108,-54,-59,-115,109,-33,-33,109,161,271,-161,-317,-101,77,275,-452,914,257,117,253,240,550,877684
-93,32,34,-19,-28,-52,-89,-67,116,60,-179,-82,-122,182,-14,42,61,80,143,-63,-53,-55,38,142,-230,1289,133,36,194,152,143,877685
187,54,-5,-37,4,-3,220,6,2,-73,25,8,-8,176,88,284,-42,-51,-130,193,664,54,-36,-126,330,2401,-116,-126,39,-36,-377,877686
431,63,-72,-85,4,2,531,258,-152,-290,336,178,-149,179,92,562,-149,-165,-421,444,1472,174,-158,-400,919,3708,-387,-297,-148,-246,-830,877687
480,74,-73,-99,0,-7,568,407,-200,-221,244,115,39,57,59,622,-215,-200,-549,456,1760,206,-228,-509,1045,4236,-481,-388,-312,-359,-849,877688
54,59,76,-45,-18,-31,-47,234,-141,-139,-351,-228,140,-155,-53,101,-96,-24,-141,-88,465,-31,-142,-120,-48,2227,-73,-180,-248,-103,77,877689
-135,51,122,-18,-24,-30,-290,121,13,-179,-164,-304,127,-23,-17,-94,31,113,181,-261,-173,-60,-28,140,-489,1040,209,12,-101,126,450,877690
-147,27,80,-22,-41,-56,-250,48,-12,-86,-47,-133,145,72,-27,-61,56,119,243,-210,-161,-18,27,150,-416,906,220,59,-69,148,377,877691
-144,26,75,-21,-45,-69,-210,-131,-20,87,-121,-152,25,73,-49,-32,69,133,292,-183,-149,15,53,168,-379,810,235,106,-38,181,381,877692
-119,24,79,-16,-38,-42,-159,-40,-7,21,-56,-161,-92,59,-55,-34,37,93,232,-184,-110,1,18,101,-341,832,173,58,-74,132,206,877693
-95,23,83,6,-15,-12,-131,-127,-55,-13,-196,-178,-6,-79,-134,-105,-44,-3,109,-251,-165,-93,-62,-2,-414,762,70,-44,-152,37,110,877694
54,29,37,-8,-6,0,8,106,-69,79,14,-53,212,-67,-70,18,-118,-105,-80,-100,226,-51,-131,-180,-99,1413,-109,-158,-203,-100,-254,877695
268,48,-9,-37,18,11,167,144,-92,-37,38,84,335,71,24,288,-140,-135,-269,172,873,98,-154,-312,390,2500,-264,-238,-225,-204,-550,877696
81,42,44,-43,-5,-23,-74,84,-44,-58,136,-12,169,-17,54,140,-48,-3,-54,8,396,34,-69,-83,-4,1871,-41,-97,-103,-61,-59,877697
-69,29,71,-43,-23,-57,-193,44,13,22,51,-15,66,-175,-48,24,12,64,99,-104,22,-10,-8,86,-269,1303,115,9,21,57,166,877698
-114,40,82,-14,-21,-42,-234,-88,14,94,249,-26,201,-118,-61,-36,33,89,158,-141,-170,-32,24,140,-373,1022,159,45,92,109,304,877699
-99,36,90,4,-5,-13,-254,-118,20,125,179,11,139,-271,-26,-39,46,78,172,-111,-211,-9,50,152,-363,972,152,59,137,112,318,877700
-69,20,101,6,13,8,-251,-169,7,28,-66,0,-59,-123,-58,-19,58,88,186,-70,-202,31,68,169,-320,977,165,90,177,127,321,877701
-26,29,79,26,21,18,-87,-126,3,-8,78,-88,-96,-16,-68,11,28,64,149,-32,-92,35,39,136,-224,1125,135,70,169,99,224,877702
-52,25,58,40,-5,-7,-9,-110,-51,-15,238,-219,26,-5,-97,-67,-39,-9,82,-103,-163,-27,-20,60,-278,1054,40,-1,83,18,94,877703
-51,22,74,35,0,5,-20,-59,0,50,256,-167,-130,30,-95,-56,-19,14,90,-92,-177,3,-5,84,-295,1019,67,7,95,33,115,877704
-84,22,95,49,16,18,-72,-91,149,51,13,-78,102,-82,-51,-81,27,61,168,-129,-309,11,38,171,-396,769,165,60,131,98,305,877705
-164,14,113,63,14,26,-157,-211,49,-22,-175,-221,189,-17,-59,-199,19,53,224,-247,-560,-57,45,199,-584,324,179,91,127,110,406,877706
-300,15,148,87,12,28,-292,-337,81,-106,-158,-258,169,-112,-40,-365,58,86,344,-406,-982,-139,87,304,-901,-425,261,168,163,178,597,877707
-322,1,123,84,9,7,-289,-330,102,68,-229,-203,213,16,-60,-385,114,122,423,-417,-1098,-155,158,350,-957,-750,314,222,216,229,677,877708
-151,-2,52,68,17,4,-47,9,65,125,-92,-58,267,-34,-131,-195,50,60,280,-218,-613,-94,114,188,-557,-70,177,130,155,140,352,877709
-36,11,26,53,26,13,56,88,72,99,66,-18,59,-118,-131,-62,7,23,160,-106,-262,-77,52,84,-305,457,100,72,84,76,85,877710
-18,1,21,21,16,13,-1,55,-7,26,222,-42,-78,-139,-17,-43,26,50,156,-106,-214,-88,70,75,-301,494,98,78,57,74,140,877711
-40,-15,22,5,8,14,-78,-33,-67,140,-40,-83,-63,-9,31,-78,13,27,137,-160,-268,-153,45,65,-376,410,94,46,19,60,146,877712
-20,-13,27,6,14,23,-76,-55,46,158,-59,-1,137,61,-23,-94,-42,-15,98,-184,-261,-197,-20,24,-395,428,66,9,-26,34,3,877713
-29,-8,25,-3,7,-3,-51,-29,47,61,-75,-13,179,-13,-14,-96,-52,-17,116,-174,-260,-197,-37,42,-402,435,77,28,-7,47,22,877714
-82,-6,35,10,2,-13,-46,-110,30,70,105,5,192,-154,48,-142,-22,-4,151,-217,-404,-207,3,79,-517,210,104,49,20,74,212,877715
-232,-8,76,61,-11,-15,-157,-228,6,46,-120,-169,116,-220,-35,-302,50,77,310,-353,-844,-221,77,223,-832,-500,231,138,108,168,556,877716
-429,-11,128,116,-13,-30,-368,-401,162,30,-224,-299,32,-254,-152,-506,139,185,554,-533,-1457,-258,183,459,-1257,-1542,436,288,263,311,892,877717
-458,-21,132,124,-6,-20,-423,-335,228,104,-237,-249,50,-233,-100,-553,152,172,614,-539,-1646,-219,218,502,-1305,-1932,468,333,345,349,798,877718
-95,-27,4,70,11,-1,15,51,25,204,82,-34,-17,38,-2,-156,33,13,213,-81,-556,17,91,142,-394,-281,118,110,219,111,46,877719
67,-9,-40,39,13,-1,229,212,-72,81,299,112,-19,139,-28,52,-17,-33,-3,111,36,119,23,-22,19,673,-25,-7,97,-20,-124,877720
34,9,-39,50,10,0,165,230,-13,34,-77,32,-200,301,-88,10,-22,-34,-6,53,-13,84,26,-8,-52,661,-24,-8,41,-46,-130,877721
6,6,-14,32,22,7,28,54,55,18,-31,-82,-138,233,-49,-23,-4,-19,39,12,-87,66,46,30,-112,581,6,24,49,-34,-51,877722
-16,-6,10,8,20,11,-47,-125,32,-76,-42,41,84,133,-17,-3,60,49,135,29,-107,126,104,125,-111,518,94,107,124,53,115,877723
-59,-12,8,5,4,-9,-68,-141,-31,-73,-132,78,45,11,36,-4,85,81,188,24,-151,141,129,177,-134,426,138,153,155,93,160,877724
-165,-4,58,37,3,-25,-173,-275,55,-73,-131,62,-41,7,-23,-150,83,98,266,-122,-503,53,127,244,-410,-117,203,185,157,119,366,877725
-409,-16,111,76,-16,-55,-450,-318,103,97,-424,-88,41,-51,-71,-416,154,186,492,-389,-1236,-84,182,464,-973,-1317,417,312,264,287,815,877726
-532,-50,130,106,-13,-39,-621,-354,200,285,-509,-160,104,-75,-141,-591,194,219,653,-551,-1744,-188,229,593,-1323,-2203,551,404,356,381,1049,877727
-552,-57,146,128,10,-7,-639,-412,188,107,-425,-54,201,5,-104,-648,216,231,759,-596,-1970,-223,281,659,-1443,-2714,599,462,442,448,1098,877728
-198,-50,24,77,21,22,-157,-99,96,-26,-168,90,-16,239,-43,-275,99,77,404,-182,-960,-80,179,301,-614,-1242,248,252,331,212,231,877729
31,-38,-41,42,39,36,126,58,-64,72,142,134,171,231,39,-59,-10,-44,79,10,-270,-73,53,14,-153,-107,1,46,133,2,-182,877730
28,-35,-34,41,41,45,103,45,-6,43,292,30,27,-133,27,-75,-36,-54,35,-58,-280,-142,17,-16,-242,-74,-19,21,69,-29,-88,877731
18,-22,-31,37,31,30,106,46,-36,140,126,33,70,-120,-14,-70,-30,-41,29,-53,-247,-158,31,-13,-267,-27,-6,28,47,-14,-106,877732
42,-7,-45,32,29,15,166,94,-100,225,70,83,-17,-219,30,-14,-12,-34,25,-1,-127,-130,56,-21,-192,164,-12,24,52,-19,-97,877733
47,-20,-56,12,5,-1,193,38,-45,1,-10,53,-132,-249,18,1,-18,-31,0,17,-52,-129,31,-34,-140,290,-24,5,31,-28,-97,877734
-184,-26,36,39,-1,0,-133,101,117,-37,-352,9,-26,-200,-16,-253,59,73,214,-253,-736,-238,69,195,-715,-771,207,134,106,129,499,877735
-826,-51,234,148,-19,-27,-899,-462,372,77,-600,-261,39,-322,-149,-958,283,356,929,-950,-2735,-519,284,843,-2191,-3995,842,558,438,587,1774,877736
-951,-72,266,200,12,-4,-1049,-672,476,9,-464,-318,48,-267,-211,-1151,346,389,1154,-1073,-3362,-517,383,1023,-2482,-5231,981,708,646,734,1941,877737
-705,-99,160,173,34,26,-741,-549,351,166,-276,-211,-28,79,-147,-874,297,272,948,-728,-2699,-312,375,810,-1819,-4413,740,632,632,585,1292,877738
-107,-71,-48,95,64,57,12,79,27,111,75,109,-159,189,36,-196,122,28,374,1,-872,60,262,252,-332,-1651,186,301,399,187,-80,877739
143,-38,-101,41,54,62,312,318,-196,105,194,174,-117,79,72,52,-22,-101,-2,221,-12,156,92,-57,230,-200,-99,68,142,-64,-432,877740
107,-28,-84,42,43,49,239,250,-78,-71,-103,102,-241,-90,77,6,-39,-109,-57,151,-14,128,33,-80,155,-109,-110,18,34,-101,-331,877741
67,-30,-47,41,48,46,98,213,18,15,-120,129,-165,-163,65,-28,17,-50,0,106,-114,136,72,-4,54,-232,-58,41,39,-58,-198,877742
33,-43,-40,15,39,36,-1,-71,36,62,70,91,-304,-122,33,-48,26,-25,26,74,-165,121,70,26,7,-274,-9,56,48,-34,-98,877743
30,-45,-34,19,38,44,-20,-128,-69,-89,-3,113,-72,-120,64,-56,12,-22,9,57,-176,116,41,40,-27,-283,21,41,35,-26,-99,877744
-89,-51,-29,7,2,19,-113,-113,-53,-7,161,21,75,39,98,-167,16,-3,75,-54,-403,51,35,95,-238,-629,65,75,27,12,154,877745
-300,-56,25,44,-5,1,-357,-176,-102,36,34,-27,-94,-87,0,-359,116,118,342,-266,-1018,-55,138,331,-718,-1651,288,248,155,178,618,877746
-469,-75,83,79,-1,3,-582,-236,125,125,-55,-120,-47,-148,-81,-595,182,191,559,-495,-1672,-183,205,511,-1196,-2753,477,363,267,312,994,877747
-544,-65,106,107,19,14,-613,-494,125,42,-191,-139,21,-74,-63,-679,237,236,706,-558,-2004,-239,275,625,-1406,-3424,597,459,391,422,1071,877748
-107,-47,-27,76,59,37,-25,-66,66,-16,-234,186,-54,131,60,-186,107,63,294,-32,-763,-30,170,236,-385,-1577,211,238,301,182,82,877749
134,-50,-105,11,55,46,251,79,-108,142,91,262,25,121,35,46,-44,-95,-90,173,28,-4,15,-95,117,-237,-115,-5,67,-99,-409,877750
115,-30,-57,14,64,74,187,-120,-15,194,16,196,99,-59,32,-10,-78,-108,-121,77,-41,-91,-29,-116,-36,-250,-128,-40,-9,-145,-319,877751
89,-45,-73,-4,37,48,158,-146,11,-129,-80,43,-96,-123,62,-10,-73,-90,-134,61,-45,-112,-30,-111,-83,-208,-118,-49,-28,-134,-275,877752
50,-40,-68,-1,13,12,167,-46,40,-135,-19,33,-10,-55,-20,31,12,-10,-24,96,-36,-51,55,-22,-90,-214,-33,37,55,-49,-158,877753
21,-25,-50,22,19,-2,150,143,-36,151,182,47,0,60,26,46,79,63,95,112,-77,-11,125,97,-120,-326,79,134,129,45,-77,877754
-123,-36,-21,19,7,-9,-36,-27,10,34,-96,-61,33,117,-38,-137,74,70,163,-72,-473,-106,108,162,-434,-925,149,149,112,79,208,877755
-611,-60,125,85,-30,-27,-640,-217,106,-69,-313,-226,157,-92,-114,-742,185,223,614,-685,-2038,-383,202,585,-1624,-3411,575,385,276,372,1280,877756
-676,-80,153,130,-4,-4,-746,-371,175,104,-137,-185,43,-125,-114,-862,224,240,756,-757,-2454,-392,268,698,-1803,-4257,683,465,416,486,1355,877757
-422,-69,86,135,37,38,-438,-373,79,53,-148,-62,51,72,7,-588,212,188,616,-412,-1805,-192,285,535,-1165,-3416,511,420,438,396,766,877758
-18,-56,-45,71,57,63,77,-16,-75,42,-112,201,51,348,106,-116,95,17,217,82,-540,60,196,156,-126,-1480,114,211,269,132,-116,877759
108,-36,-88,30,50,49,231,202,-149,119,44,224,68,134,73,32,14,-53,-22,202,-31,125,90,-16,202,-612,-49,68,93,-30,-266,877760
59,-38,-89,14,22,15,163,-66,-55,89,-1,136,-106,-142,122,-5,14,-44,-36,144,-60,101,53,-21,129,-604,-47,37,31,-41,-190,877761
47,-28,-70,0,7,17,119,-73,12,-2,-79,166,-83,37,109,13,45,-12,-17,157,-26,144,86,5,134,-523,-28,52,28,-23,-144,877762
40,-36,-79,-25,-4,6,73,12,-64,30,30,175,-44,85,43,26,20,-28,-40,153,33,139,76,-11,157,-389,-37,28,2,-41,-203,877763
25,-55,-73,-46,-17,-7,-54,18,-101,19,-66,142,57,127,44,37,49,6,-14,163,25,145,73,28,152,-373,3,60,14,-5,-125,877764
-26,-47,-51,-22,-7,-30,-164,90,-55,47,-5,143,-99,188,95,-15,77,57,56,110,-118,116,94,94,22,-601,65,104,42,43,53,877765
-158,-32,-38,10,-30,-53,-215,-10,58,-5,-91,167,59,93,48,-113,121,103,191,-7,-431,63,125,213,-229,-1104,194,184,112,126,246,877766
-293,-46,10,30,-22,-40,-301,-110,147,131,-225,-1,2,122,69,-270,139,146,330,-179,-881,-52,152,342,-588,-1837,335,249,185,222,484,877767
-299,-50,41,56,9,17,-286,-113,125,0,-207,-33,-104,117,42,-375,122,118,359,-248,-1083,-131,130,329,-731,-2194,308,251,203,211,497,877768
-30,-40,-54,25,21,23,37,-227,42,31,367,218,-191,261,-22,-80,54,6,116,66,-310,10,99,78,-121,-1064,54,115,125,37,-106,877769
96,-36,-104,-12,10,10,155,-47,-33,156,-2,166,-242,189,-18,84,19,-32,-64,194,130,73,63,-54,139,-336,-75,20,37,-69,-260,877770
86,-25,-65,-5,28,15,119,122,-70,211,-151,107,-128,53,36,86,4,-17,-85,176,140,51,7,-45,72,-278,-50,12,23,-53,-270,877771
79,-19,-37,8,32,32,92,198,-13,94,107,147,92,1,21,29,-28,-26,-82,123,73,18,-29,-49,-8,-331,-55,8,11,-64,-187,877772
50,-29,-39,9,23,24,68,21,20,-85,100,44,-71,44,-19,-65,-61,-76,-104,32,-61,-56,-55,-85,-146,-511,-98,-33,-46,-112,-134,877773
76,-25,-58,11,21,24,122,73,48,-71,162,46,-139,207,30,-39,-62,-84,-139,51,8,-45,-57,-120,-86,-384,-123,-71,-70,-135,-268,877774
-2,-10,-18,50,26,26,35,-70,91,83,-19,-48,-208,115,-25,-94,0,6,0,-26,-239,-58,15,35,-268,-766,26,24,1,-23,65,877775
-240,-33,41,64,4,14,-228,-127,81,76,-220,-86,-38,-143,-35,-352,55,67,219,-289,-918,-173,73,226,-764,-1868,214,141,78,116,482,877776
-210,-37,42,55,23,29,-201,-209,91,-30,-132,-17,14,-65,-45,-318,77,64,235,-227,-891,-124,91,229,-664,-1911,217,166,120,149,407,877777
-145,-36,17,58,22,31,-135,-97,69,86,29,-37,0,68,32,-264,63,44,186,-152,-763,-87,84,171,-503,-1732,159,141,115,124,287,877778
12,-39,-33,42,29,34,63,101,-98,-107,213,51,-138,65,4,-89,6,-46,29,38,-265,-13,29,12,-78,-967,-15,54,44,-5,-115,877779
99,-39,-66,13,29,36,172,149,-26,31,114,76,-177,20,67,-17,-67,-121,-128,99,57,-6,-47,-122,147,-412,-138,-57,-59,-125,-331,877780
87,-25,-47,5,27,38,128,59,-2,90,79,63,10,37,54,-50,-74,-119,-166,55,16,-31,-75,-133,93,-428,-145,-91,-100,-132,-267,877781
72,-23,-32,3,20,52,68,104,-24,19,141,61,-38,-13,6,-67,-88,-114,-190,36,-14,-37,-91,-128,67,-425,-148,-116,-132,-140,-189,877782
63,-24,-26,0,26,50,33,62,-63,-53,-254,80,-90,-125,38,-72,-82,-109,-188,42,-19,-36,-91,-115,52,-420,-130,-107,-131,-130,-186,877783
67,-7,-9,23,44,57,72,48,77,43,-283,-38,121,-76,62,-53,-62,-90,-164,49,-24,-28,-84,-86,43,-419,-101,-92,-104,-95,-197,877784
-37,-17,11,27,16,46,-14,1,71,55,-39,-52,123,-131,29,-150,-41,-45,-63,-82,-319,-107,-57,-10,-211,-870,-19,-33,-63,-39,82,877785
-377,-32,101,63,-4,18,-441,-86,183,81,-58,-267,55,-246,-90,-533,107,128,365,-475,-1397,-284,96,374,-1034,-2620,357,220,131,219,807,877786
-384,-37,83,87,12,0,-464,-323,126,38,-166,-189,33,-213,-40,-540,159,160,503,-444,-1533,-251,169,449,-1058,-2983,427,320,262,301,782,877787
-306,-41,55,80,21,7,-370,-45,143,95,-27,-166,-100,9,-71,-412,176,167,480,-295,-1327,-144,192,433,-838,-2765,406,349,327,300,497,877788
10,-32,-55,29,38,23,31,41,-50,67,438,1,-166,54,115,-59,58,18,97,89,-334,41,82,87,-67,-1260,60,127,190,54,-265,877789
140,-19,-71,7,41,31,201,53,-24,-28,264,67,-6,135,140,84,-10,-60,-101,206,166,117,11,-75,212,-451,-97,3,58,-97,-342,877790
97,-15,-69,20,28,15,150,53,-48,-71,32,78,-51,228,0,29,-29,-83,-112,123,115,73,-20,-101,92,-500,-95,-37,-6,-114,-252,877791
84,-15,-59,25,31,24,109,138,-92,-127,-6,107,36,171,-47,7,-22,-59,-121,89,84,70,-4,-100,28,-543,-101,-54,-29,-114,-187,877792
80,-11,-30,9,30,26,92,-18,-23,-221,44,146,131,74,79,51,35,-2,-74,126,120,129,41,-40,52,-493,-52,-1,19,-55,-130,877793
44,-18,-13,8,27,36,46,-44,8,62,69,134,38,146,84,45,67,38,-17,104,60,142,78,8,-5,-603,-11,45,49,-25,-13,877794
-225,-44,44,18,-6,13,-299,-264,153,-215,42,-70,-3,-66,-55,-278,117,126,226,-219,-751,-42,122,232,-617,-1818,232,185,123,128,625,877795
-755,-68,188,107,-29,-28,-927,-472,368,68,-333,-326,227,-110,-141,-872,296,343,839,-808,-2470,-342,304,814,-1850,-4600,784,553,423,539,1691,877796
-848,-79,207,162,-4,-18,-999,-195,302,98,-543,-315,90,-63,-102,-1012,345,374,1044,-874,-2984,-406,380,941,-2054,-5596,903,681,604,677,1668,877797
-616,-85,113,146,19,7,-683,-40,100,-71,-259,-143,-56,152,-75,-772,291,260,855,-585,-2407,-288,349,739,-1471,-4877,693,592,600,561,1116,877798
-35,-40,-45,102,70,76,17,48,-7,-121,95,148,-157,173,68,-132,147,46,323,97,-728,47,232,228,-100,-2343,170,310,408,207,-72,877799
241,-44,-123,29,76,87,290,142,-18,-4,-55,205,-206,340,135,154,8,-108,-105,365,232,127,87,-126,534,-720,-176,40,134,-94,-611,877800
179,-34,-74,20,66,74,189,115,-41,48,84,117,-7,159,86,95,12,-67,-92,269,151,62,58,-84,403,-753,-111,30,67,-80,-341,877801
128,-35,-73,21,43,58,160,280,-104,-37,4,114,6,100,103,55,-8,-70,-99,198,68,8,10,-77,319,-823,-92,8,7,-78,-248,877802
131,-14,-73,39,38,49,188,365,-19,55,-117,113,-66,254,140,22,-48,-89,-142,163,51,-39,-36,-113,264,-795,-129,-42,-44,-115,-267,877803
144,-9,-63,22,44,56,230,287,17,12,237,10,-172,256,84,7,-89,-131,-215,140,99,-81,-84,-179,268,-660,-188,-104,-122,-173,-279,877804
28,-19,-25,18,34,67,90,289,40,-27,51,-25,-74,-48,4,-98,-25,-75,-105,1,-204,-135,-25,-68,-14,-1113,-57,-42,-86,-93,28,877805
-316,-42,82,65,28,47,-352,-252,191,74,-102,-189,52,-113,-96,-468,112,105,326,-382,-1286,-276,122,320,-848,-2880,316,218,122,185,767,877806
-339,-21,95,118,42,49,-380,-258,143,-3,45,-116,97,-64,-6,-480,162,158,443,-362,-1447,-233,186,410,-903,-3281,382,307,252,287,769,877807
-224,-33,33,99,34,34,-253,14,179,63,115,2,86,-23,6,-351,127,98,334,-199,-1102,-137,161,300,-587,-2805,279,246,251,212,428,877808
79,-21,-62,58,46,56,112,22,4,39,334,88,-57,78,94,-31,10,-61,4,133,-165,49,67,-26,114,-1364,-45,47,119,-36,-257,877809
200,-8,-85,42,49,64,263,47,-119,-75,230,157,-152,-31,131,127,-18,-82,-144,257,308,160,29,-133,389,-610,-158,-26,36,-137,-409,877810
127,-21,-83,12,11,15,231,129,-132,-5,77,153,-128,4,75,96,13,-37,-116,213,286,181,48,-80,302,-621,-104,-5,36,-85,-322,877811
86,-3,-68,15,14,2,185,256,-74,61,-42,184,-149,163,103,82,33,-7,-67,167,232,198,54,-36,219,-671,-44,18,56,-49,-153,877812
54,2,-61,4,18,17,92,250,-42,-6,32,166,-12,346,156,58,47,17,-34,144,184,208,49,1,169,-733,0,45,72,-20,-96,877813
36,-2,-51,-7,15,14,34,31,-65,-128,-5,88,41,148,115,45,56,23,-13,120,144,219,63,20,121,-789,0,61,86,-3,-64,877814
34,-21,-49,-16,4,7,33,74,-105,98,80,9,114,86,46,27,28,-2,-33,92,132,184,44,4,121,-770,-35,30,54,-31,-105,877815
-17,-20,-37,-11,4,-7,-4,-19,-8,92,30,2,-91,117,-42,-4,59,30,29,59,-8,136,69,61,43,-980,29,69,80,12,38,877816
-50,-16,-29,8,-4,-2,-22,88,25,71,-21,87,-200,96,-22,-26,97,58,103,47,-147,91,102,107,-19,-1186,84,118,105,67,111,877817
-30,4,-31,26,12,7,11,321,118,98,16,130,-231,-18,-67,-30,79,48,91,63,-162,46,91,86,0,-1203,73,89,82,63,75,877818
44,-9,-58,15,13,12,90,135,95,40,99,93,-137,-14,6,23,15,-15,-53,116,16,0,10,-39,146,-889,-40,-12,-17,-30,-129,877819
88,-13,-63,8,19,20,118,-69,-59,-242,201,67,-35,-45,13,82,4,-27,-109,178,162,-9,2,-78,251,-641,-72,-36,-50,-61,-184,877820
74,-4,-48,7,17,23,109,226,-94,-130,189,123,15,107,47,88,21,-2,-67,186,151,-19,31,-30,236,-655,-45,-5,-39,-39,-154,877821
65,-25,-70,-11,3,1,93,115,-185,19,4,16,81,257,10,62,-8,-42,-114,157,155,-65,-4,-93,229,-620,-86,-45,-83,-84,-191,877822
65,-8,-72,-15,-1,3,101,178,22,121,230,24,-61,178,0,75,-5,-41,-130,166,193,-82,-18,-105,244,-556,-91,-57,-103,-92,-197,877823
57,5,-72,-7,-1,-7,117,156,27,43,144,78,-157,-10,-96,93,5,-16,-96,172,223,-72,7,-89,244,-519,-71,-23,-82,-72,-161,877824
30,3,-45,-8,-4,-1,56,-47,-44,49,-125,47,-81,8,-44,33,-15,-34,-99,103,97,-110,-20,-76,130,-673,-66,-36,-95,-88,-111,877825
54,-11,-15,-16,15,35,48,123,16,-5,-134,117,-51,105,46,4,-33,-46,-123,75,50,-101,-47,-97,89,-715,-84,-71,-110,-88,-107,877826
103,1,-7,-6,26,44,107,289,-57,-46,-120,73,108,49,32,75,-6,-17,-121,150,177,-3,-30,-71,182,-529,-54,-50,-52,-51,-179,877827
122,3,-29,2,5,14,148,158,-55,84,1,110,-139,-98,32,123,-5,-25,-152,174,316,69,-29,-96,259,-320,-83,-57,-61,-71,-155,877828
46,1,-30,2,-12,2,76,27,49,50,111,8,-32,-220,50,54,10,-11,-117,94,186,69,-16,-70,122,-495,-70,-46,-52,-63,-21,877829
17,1,-6,1,-13,16,5,98,22,-5,30,-51,25,-294,37,42,28,8,-59,78,155,126,10,-20,93,-561,-27,-8,17,-5,-25,877830
9,-7,-6,-14,-23,12,-38,81,48,-20,-167,-6,33,-10,25,42,47,17,-11,70,162,186,41,21,90,-564,3,33,71,16,-24,877831
2,-16,-22,-24,-22,-5,-37,-27,46,92,100,30,-133,2,38,24,17,-20,-22,50,185,184,11,-7,89,-518,-26,12,65,-8,-104,877832
11,-13,-40,-27,-15,4,11,132,-56,112,51,127,-123,105,72,8,-12,-39,-64,34,207,153,-23,-42,100,-443,-47,-29,29,-29,-138,877833
34,-2,-29,-20,-1,21,76,20,-57,4,19,119,25,108,82,-3,-45,-59,-120,12,215,122,-66,-90,102,-386,-86,-72,-12,-63,-97,877834
102,15,-24,-15,5,28,182,181,-93,54,196,62,17,14,87,113,-12,-35,-147,130,427,188,-47,-91,291,-63,-100,-63,5,-60,-185,877835
205,29,-40,-16,19,42,288,183,-93,-9,415,131,53,-92,28,270,1,-28,-187,303,750,251,-30,-135,561,446,-143,-71,-16,-83,-375,877836
195,19,-53,-26,11,32,265,-17,24,-53,81,109,115,-34,62,245,-41,-59,-235,268,753,176,-63,-189,539,516,-206,-119,-110,-133,-454,877837
162,3,-40,-36,12,31,189,31,-132,3,-62,33,51,-51,28,178,-87,-89,-272,201,624,78,-107,-215,411,380,-224,-166,-187,-173,-392,877838
51,11,11,-22,4,34,36,-55,-8,95,-150,-60,125,-120,-30,43,-38,-28,-170,67,247,-35,-76,-122,99,-197,-99,-110,-170,-109,-131,877839
-10,9,18,-16,-11,15,-26,-241,57,-37,-17,-4,19,1,17,9,0,21,-70,39,60,-66,-29,-48,-15,-514,-26,-37,-112,-41,-23,877840
28,4,11,-14,2,29,22,-96,59,130,122,29,-120,76,-53,50,4,22,-57,94,111,-61,-16,-41,53,-438,-32,-26,-95,-34,-48,877841
52,0,10,-2,14,37,25,67,112,52,54,87,39,-46,-56,27,-32,-23,-97,62,95,-113,-54,-86,48,-465,-70,-52,-134,-70,-84,877842
52,-4,6,1,19,35,58,3,77,-10,-72,-61,178,-118,-31,31,-15,-18,-80,73,92,-104,-47,-73,44,-481,-57,-41,-123,-64,-51,877843
51,18,8,28,16,30,128,37,-2,-18,151,-7,100,-51,70,45,6,6,-33,92,99,-77,-3,-59,61,-503,-36,-4,-87,-46,-17,877844
96,25,-24,24,0,18,226,226,-31,77,22,-27,-35,114,-26,123,-7,-10,-84,152,285,-26,-18,-96,206,-217,-81,-38,-91,-68,-166,877845
234,29,-74,-12,5,13,347,242,-68,100,-50,46,-329,48,-33,260,-92,-103,-293,295,739,47,-100,-273,526,542,-261,-174,-184,-202,-550,877846
275,37,-84,-34,-11,-6,355,198,-182,-110,126,90,-312,48,-4,300,-134,-149,-409,319,946,76,-155,-371,638,967,-358,-254,-251,-288,-616,877847
261,28,-85,-66,-24,-28,294,21,-183,-193,96,6,-128,-130,-26,314,-131,-141,-418,301,989,109,-160,-354,621,1105,-339,-264,-252,-266,-503,877848
94,26,16,-25,1,9,50,-30,-44,54,-208,-32,158,-94,-49,124,-34,-21,-179,71,433,52,-95,-101,177,288,-96,-102,-129,-82,-55,877849
-23,17,40,-5,-2,-1,-32,37,-48,-20,11,19,54,-63,-50,-9,-12,2,-61,-52,82,8,-79,-4,-53,-231,-3,-36,-27,7,42,877850
-17,18,11,-14,-14,-1,33,-34,-18,-262,149,-91,4,41,21,12,2,5,-44,-26,117,65,-40,11,5,-192,-3,-15,21,13,61,877851
-20,18,-4,-28,-28,-20,66,-251,20,-237,-33,-41,-142,31,35,57,42,23,-23,-2,172,101,-2,30,49,-134,9,3,68,45,52,877852
-18,3,-17,-43,-40,-39,44,-37,-41,155,14,-35,-122,29,23,102,56,49,-27,42,244,120,12,40,128,-13,23,5,102,65,39,877853
-15,-10,-22,-47,-36,-38,-13,233,-104,87,-126,18,-246,-157,27,118,64,59,13,73,276,146,22,74,163,42,55,56,135,93,71,877854
33,0,-25,-43,-18,-25,13,60,-143,4,-149,50,-69,-52,61,112,12,-13,-66,75,355,112,-31,-32,224,165,-57,-16,52,8,-186,877855
284,32,-89,-54,6,8,313,-16,-156,-82,180,120,-68,95,61,358,-86,-113,-346,349,1034,189,-117,-289,739,1274,-302,-191,-111,-174,-695,877856
335,27,-104,-79,-11,12,391,58,-205,-13,156,109,57,135,166,459,-106,-126,-455,435,1313,216,-152,-376,903,1799,-360,-257,-218,-243,-700,877857
246,44,-66,-73,-23,-1,284,57,-78,-145,35,57,15,-24,106,392,-87,-76,-393,352,1149,160,-138,-314,719,1579,-285,-235,-260,-220,-544,877858
-3,31,-17,-52,-42,-34,-63,-58,-81,18,-184,18,-94,-102,45,102,-42,-8,-184,56,416,-18,-94,-120,113,453,-80,-135,-220,-93,-115,877859
-72,25,20,-36,-35,-31,-228,-59,-39,80,32,-29,40,-154,-43,20,23,54,-34,-19,80,-48,-39,3,-104,-145,43,-26,-122,6,162,877860
-37,11,23,-54,-29,-27,-222,-38,3,-61,168,33,84,-163,13,77,42,75,22,53,124,-3,4,16,-44,-142,61,23,-72,30,192,877861
-28,10,41,-33,-15,-29,-147,-232,108,171,200,142,59,42,62,94,77,121,98,86,99,42,44,83,-45,-244,112,94,0,81,229,877862
-4,24,29,13,-4,-20,18,-71,0,-8,333,8,71,37,55,75,46,72,57,59,79,2,17,37,-42,-280,51,58,-30,32,169,877863
-11,22,12,19,-8,-18,65,76,-14,-122,4,5,42,-30,-5,6,-14,2,-18,-7,20,-65,-33,-47,-101,-346,-32,-17,-92,-46,66,877864
69,23,-34,-20,-12,-21,148,-36,-59,-18,7,11,-19,-19,-26,108,-43,-39,-127,108,313,5,-66,-123,150,108,-124,-78,-110,-95,-223,877865
292,34,-107,-48,-6,-13,403,-46,-162,9,155,89,32,132,17,404,-91,-102,-338,410,1078,175,-120,-311,743,1324,-308,-177,-176,-219,-650,877866
340,31,-128,-81,-27,-22,457,86,-177,-47,92,62,-81,446,-18,469,-136,-147,-448,458,1351,212,-164,-401,906,1873,-389,-255,-262,-306,-754,877867
331,46,-98,-84,-16,-15,417,27,-178,-101,-57,120,94,361,7,463,-127,-131,-463,412,1354,200,-178,-388,861,1998,-364,-268,-276,-293,-604,877868
52,28,9,-60,-26,-21,47,-112,-151,-90,-587,-66,156,93,0,146,-34,-11,-186,45,510,35,-96,-116,182,759,-103,-113,-171,-106,86,877869
-62,11,49,-25,-23,-15,-98,-164,29,-73,-413,-95,28,46,2,-40,-10,19,-50,-121,38,-43,-60,-18,-143,29,-11,-52,-81,-15,148,877870
-32,8,41,-20,-20,2,-48,32,68,-54,-72,-62,-48,-167,-35,-37,-29,-7,-49,-109,31,-28,-66,-20,-97,34,-34,-43,-39,-8,71,877871
-8,12,41,-16,-13,6,-23,31,-87,97,144,-142,145,-212,30,-16,-22,-11,-30,-86,65,3,-67,2,-35,92,-34,-19,-3,12,26,877872
-5,16,44,7,1,14,-38,-87,-107,98,2,-98,-34,-262,-1,-27,-40,-25,-34,-102,38,-23,-78,-10,-44,67,-47,-35,-3,5,81,877873
-40,9,33,7,-15,-10,-77,-95,52,15,-139,-122,-32,-138,-60,-70,-43,-34,-26,-136,-58,-76,-81,-12,-108,-61,-39,-55,-22,6,62,877874
153,37,-13,0,15,9,173,129,9,149,-126,73,-133,65,21,164,-64,-81,-174,117,521,64,-83,-155,358,753,-167,-128,-61,-83,-427,877875
543,45,-129,-89,27,41,616,336,-258,-65,109,174,-231,61,127,613,-204,-233,-623,560,1764,262,-212,-577,1273,2745,-562,-378,-292,-375,-1203,877876
629,56,-148,-127,13,22,677,305,-288,-142,344,135,-108,22,49,706,-256,-274,-770,625,2136,257,-290,-698,1431,3456,-661,-476,-455,-497,-1163,877877
468,66,-80,-107,-4,1,487,159,-107,3,340,62,153,-187,122,548,-221,-193,-623,426,1734,149,-266,-549,1032,2944,-510,-409,-460,-414,-777,877878
55,44,48,-57,-33,-37,9,-39,-23,146,43,-73,301,-219,21,110,-84,-17,-208,-30,516,-63,-151,-150,62,1085,-104,-170,-299,-133,95,877879
-151,31,96,-15,-41,-49,-169,-93,9,69,-93,-138,110,-131,-117,-100,2,80,93,-218,-166,-126,-42,77,-387,-70,111,4,-124,56,428,877880
-138,21,47,-13,-51,-57,-103,-74,94,-83,46,-197,-22,-154,-60,-93,-26,28,62,-188,-161,-114,-62,23,-326,-146,49,-16,-107,13,235,877881
-95,30,28,-3,-31,-51,-45,-128,109,-81,82,-145,24,-221,31,-39,-17,31,38,-112,-59,-74,-55,-1,-233,-54,23,-18,-77,1,151,877882
-63,24,46,-11,-21,-29,-84,-111,-22,-112,-91,-39,30,-131,35,9,16,47,80,-58,5,-13,0,18,-161,1,39,18,-39,14,159,877883
-68,-1,48,-20,-26,-15,-139,-180,47,67,-230,-71,88,-112,-56,11,24,44,77,-56,5,3,10,23,-143,-32,42,22,-19,14,145,877884
19,12,36,-33,-3,-3,-37,-80,85,-7,-4,-4,22,89,31,97,7,40,10,53,237,54,1,-26,54,293,-4,3,-12,-6,-53,877885
297,18,-69,-76,-7,4,290,215,-134,-163,321,131,-51,4,163,382,-116,-116,-344,358,1094,157,-126,-336,714,1709,-317,-212,-167,-235,-649,877886
381,22,-78,-88,-3,11,361,148,-34,-113,224,229,152,-91,92,466,-152,-155,-463,392,1375,170,-173,-438,878,2276,-412,-288,-265,-323,-758,877887
312,27,-45,-95,4,2,285,10,-77,121,-35,83,138,-111,48,412,-125,-116,-405,312,1240,153,-154,-376,734,2166,-350,-249,-261,-265,-592,877888
-28,17,45,-58,-34,-45,-114,50,26,76,-159,-122,100,-229,-53,54,-29,20,-59,-77,239,-28,-73,-28,-52,665,-10,-45,-128,-27,125,877889
-190,10,67,-14,-49,-60,-268,-102,82,32,-179,-230,217,-91,-41,-136,26,71,142,-241,-328,-123,-13,145,-410,-232,140,63,-1,98,369,877890
-135,21,61,14,-21,-42,-181,-221,25,59,21,-111,187,-144,-30,-101,33,57,145,-176,-284,-102,5,127,-310,-185,120,66,61,97,364,877891
-129,12,38,11,-25,-45,-158,-176,8,-105,-138,-142,141,-64,-93,-98,40,51,107,-171,-299,-104,0,109,-280,-213,94,59,60,83,318,877892
-124,3,44,14,-27,-56,-176,-272,69,-56,-109,-140,-9,-149,-112,-104,41,50,119,-182,-361,-104,22,125,-303,-319,93,71,70,92,219,877893
-80,14,42,30,-12,-30,-142,-76,78,92,1,-118,189,-6,-112,-80,12,17,64,-147,-296,-97,1,82,-243,-231,56,42,41,58,197,877894
-38,5,17,17,-8,-24,-71,41,92,-128,41,-83,87,5,-42,-42,-37,-24,-20,-81,-132,-82,-57,-10,-124,2,-3,-27,-6,6,93,877895
173,12,-35,-20,15,11,154,201,5,-120,75,-31,-41,185,107,165,-110,-110,-238,130,487,32,-139,-218,327,957,-197,-157,-114,-149,-414,877896
220,15,-40,-42,10,17,188,271,-78,-53,230,-31,-45,34,29,221,-118,-119,-302,159,678,52,-154,-272,401,1258,-247,-183,-181,-209,-448,877897
105,5,-10,-55,-18,-18,65,116,-71,-58,25,-53,31,-86,3,133,-68,-45,-172,36,413,21,-102,-143,166,849,-127,-93,-135,-130,-140,877898
-75,9,54,-15,-17,-24,-146,68,94,-131,-70,-93,40,-22,-40,-57,35,81,86,-171,-176,-46,-5,93,-283,-105,97,61,-6,43,387,877899
-164,12,74,27,-13,-25,-209,-53,106,-4,-114,-60,79,91,-112,-155,79,111,217,-267,-476,-81,58,173,-478,-656,178,133,75,111,446,877900
-159,8,46,25,-21,-36,-219,-123,26,-45,-149,-97,-14,131,-82,-135,87,89,204,-227,-433,-52,84,143,-414,-652,159,140,104,96,355,877901
-171,18,37,14,-22,-46,-253,-102,41,-147,-302,-112,-210,192,-71,-92,119,132,234,-180,-406,-30,119,192,-365,-675,200,176,153,131,326,877902
-179,-10,43,-4,-27,-42,-316,-71,15,-79,-235,-6,-78,-22,-57,-104,107,131,241,-190,-451,-32,97,203,-379,-758,203,189,165,144,245,877903
-170,-41,65,-27,-17,-18,-305,-102,-31,-133,-32,-69,53,-90,56,-123,100,122,251,-197,-489,-24,105,208,-388,-837,199,184,178,141,295,877904
-119,-27,69,8,5,5,-164,69,-11,-107,108,-88,109,-243,-18,-119,89,96,220,-170,-451,-21,102,163,-344,-804,163,154,170,112,263,877905
-112,-10,66,50,26,12,-133,-245,119,-22,25,-116,159,-294,-52,-173,37,34,146,-224,-504,-85,61,101,-392,-881,101,100,115,46,234,877906
-117,-7,48,43,18,14,-156,-216,47,206,-140,-137,93,-332,-68,-166,29,23,120,-210,-495,-90,55,86,-361,-887,65,88,86,32,209,877907
-137,-7,29,32,2,5,-182,8,44,36,-104,-75,-60,-108,-10,-161,46,54,177,-186,-523,-79,93,141,-344,-948,99,129,124,64,212,877908
-129,-15,27,13,6,8,-211,-23,8,-112,-24,31,-239,181,51,-116,88,97,257,-128,-503,-35,126,206,-303,-965,182,194,195,132,170,877909
-138,-43,19,-20,-4,-11,-220,-42,130,-3,86,116,-48,306,48,-92,120,125,302,-95,-505,-21,158,253,-277,-991,235,231,227,169,356,877910
-98,-17,20,11,11,1,-108,68,97,80,144,-4,-24,235,22,-106,61,64,168,-76,-451,-71,97,146,-227,-873,124,122,151,93,192,877911
-83,-6,25,58,22,11,-77,68,117,152,-52,-34,34,8,-59,-179,-23,-21,51,-136,-510,-155,14,41,-288,-918,21,11,57,-9,95,877912
-78,-3,44,69,25,21,-92,-85,224,125,-23,-123,147,-129,-36,-203,-32,-37,40,-158,-539,-160,7,32,-324,-998,10,2,38,-28,149,877913
-33,4,43,51,30,43,-56,-81,109,30,86,-66,48,-85,-40,-135,-16,-29,29,-81,-408,-98,16,22,-215,-811,-9,11,47,-27,22,877914
-5,-14,16,16,20,16,-33,-156,79,82,-42,6,41,-21,-30,-75,-32,-44,-3,-32,-265,-78,12,-26,-118,-598,-39,-7,24,-50,-28,877915
-29,-35,2,3,-9,-13,-43,-123,74,130,-270,-32,81,-15,39,-81,-40,-55,-28,-62,-234,-79,7,-40,-132,-565,-56,-36,0,-66,41,877916
-18,-10,9,8,-9,-11,-14,-87,17,40,-43,-46,95,67,18,-60,-10,-21,2,-43,-190,-49,28,-1,-106,-528,-22,0,37,-34,31,877917
14,-4,-10,-7,-4,-16,38,-7,-30,-26,70,-22,-15,123,-25,-14,2,-24,-16,-9,-53,-20,25,-28,-8,-354,-46,1,32,-42,-74,877918
13,-9,6,-3,4,-1,39,39,-1,71,196,-30,-155,-25,24,-33,-17,-29,-9,-45,-75,-14,0,-23,-27,-382,-46,3,26,-37,61,877919
-4,-13,12,18,21,13,11,247,85,-166,-7,-178,-24,-11,87,-95,-58,-61,-32,-115,-152,-56,-40,-32,-101,-477,-58,-25,-7,-53,-65,877920
-45,-18,20,32,26,14,-48,33,-38,-188,-207,-159,38,-102,7,-208,-100,-99,-55,-240,-331,-133,-79,-53,-262,-757,-65,-71,-58,-78,-58,877921
-72,-25,20,35,4,7,-37,97,-56,31,-158,-212,-82,-301,-56,-211,-55,-57,9,-236,-386,-102,-33,3,-291,-852,-13,-19,-4,-26,-4,877922
-93,-22,19,28,-15,-9,-41,102,115,195,17,-117,-112,-75,-24,-153,6,9,82,-183,-355,-46,42,62,-240,-857,53,44,62,27,88,877923
-73,-23,2,22,-8,-11,-91,-122,64,230,29,-38,-209,6,-65,-122,14,6,58,-148,-305,-36,42,58,-194,-786,46,30,57,28,115,877924
-60,-28,-1,18,4,-14,-130,-148,-4,113,1,15,8,9,-60,-115,-3,-2,58,-138,-293,-33,20,33,-184,-751,30,24,48,20,107,877925
-42,-23,11,8,6,6,-91,34,-27,73,149,41,120,74,-18,-82,11,8,75,-86,-217,1,30,42,-102,-668,47,53,73,37,116,877926
0,-24,12,10,19,27,-28,-17,22,-23,242,73,-86,-74,18,-48,-3,-3,11,-36,-120,0,16,10,-8,-535,17,12,48,19,2,877927
17,-26,13,18,23,34,4,158,20,142,309,28,-84,93,20,-49,-17,-32,-50,-22,-84,-16,-12,-22,15,-464,-13,-40,3,-13,-30,877928
-6,-7,3,30,9,9,14,188,7,111,296,69,-98,-88,-37,-51,-5,-11,-27,-7,-115,-16,13,-5,-11,-499,4,-30,6,-1,80,877929
-11,16,-8,50,12,5,18,215,35,6,218,40,-72,-103,-78,-72,-27,-23,-31,-17,-164,-38,8,-23,-38,-560,-34,-51,-9,-23,60,877930
-41,-4,-15,16,0,-15,-47,-37,153,124,-69,57,58,23,7,-70,-15,-15,-8,-12,-205,-52,4,8,-65,-610,-6,-29,-8,-14,61,877931
-22,-11,-6,20,11,-3,-41,146,177,-85,-28,96,-79,162,-35,-17,13,16,38,60,-140,-5,44,45,9,-523,34,19,38,20,-6,877932
-13,0,-6,9,14,8,-18,120,32,-191,-72,45,97,-2,-79,-13,16,8,63,77,-93,-1,45,48,34,-466,32,39,43,22,24,877933
-3,8,-6,7,3,8,6,-181,-14,-27,56,33,142,-49,-54,-1,20,17,71,78,-75,2,62,44,48,-446,24,36,41,20,-42,877934
31,-3,-15,13,5,10,50,-91,-86,-184,62,69,-64,61,-65,61,38,27,61,149,53,41,69,38,144,-260,17,38,53,23,-51,877935
194,-11,-67,-21,0,3,234,79,-123,-190,287,189,-112,57,31,226,-20,-68,-121,304,585,128,16,-138,533,570,-155,-76,-41,-100,-380,877936
247,7,-73,-34,3,-5,286,159,-97,81,238,195,-300,43,55,285,-59,-83,-205,326,808,160,-23,-201,656,969,-217,-128,-100,-146,-477,877937
223,3,-66,-40,-10,-14,247,64,-20,43,223,137,-115,182,20,265,-76,-80,-231,266,771,143,-62,-207,582,1001,-222,-145,-128,-156,-323,877938
44,-9,-19,-39,-34,-40,39,-91,130,-53,-99,-45,-21,194,-10,64,-39,-18,-72,30,253,38,-35,-61,146,244,-68,-57,-85,-59,-14,877939
-31,3,-1,-11,-23,-37,-4,-127,17,41,-212,-18,-68,136,-4,4,35,54,46,-31,22,21,27,51,-13,-164,49,22,3,53,93,877940
4,18,-1,12,-10,-16,68,-2,-8,268,-254,71,17,255,-16,41,50,63,41,17,101,40,48,55,74,-53,53,27,31,64,87,877941
30,12,-17,-3,-8,-14,66,26,-59,58,-162,10,189,48,-63,44,11,4,-15,20,182,18,14,-16,131,87,-10,-21,-15,14,-48,877942
43,1,-24,-37,2,1,-15,164,-83,-31,-222,-37,29,-8,-54,30,-20,-39,-57,11,202,-4,-21,-52,145,125,-42,-62,-46,-5,-89,877943
56,4,-16,-45,5,10,-11,254,-56,-127,-53,73,-57,34,22,77,-15,-12,-55,53,238,45,-9,-22,188,208,-15,-37,-13,31,-142,877944
139,26,-17,-22,16,7,134,158,-59,-88,25,146,-185,68,-5,214,11,5,-52,188,506,149,19,-44,414,624,-36,-23,3,18,-318,877945
384,49,-84,-49,22,4,465,331,-80,-48,114,259,-252,77,38,494,-79,-104,-328,463,1299,268,-70,-306,1014,1930,-283,-196,-145,-161,-821,877946
439,43,-94,-72,13,2,480,524,-151,-87,162,184,-207,-2,115,529,-148,-163,-472,482,1501,242,-164,-424,1088,2376,-392,-308,-273,-269,-846,877947
353,32,-55,-78,-11,11,318,392,-106,-72,233,104,-99,-60,93,389,-152,-161,-445,336,1261,146,-179,-390,840,2112,-380,-324,-334,-285,-664,877948
70,19,18,-50,-26,-12,-2,35,-4,-59,-36,-148,21,-24,-65,86,-84,-57,-194,28,459,-19,-110,-151,178,905,-134,-197,-251,-126,-42,877949
-45,36,56,3,-11,-16,-130,-157,-68,45,-88,-173,52,-65,-85,-31,-5,21,7,-53,31,-57,-34,18,-101,172,37,-68,-117,28,168,877950
-31,22,29,-24,-24,-22,-115,-86,-26,84,-96,-107,15,110,-61,59,37,49,37,63,147,19,5,39,37,300,48,-23,-48,57,113,877951
-22,18,36,-43,-16,-11,-139,27,29,28,-93,-44,-6,21,0,132,80,100,91,159,231,99,56,100,138,386,111,43,35,121,136,877952
-30,8,21,-52,-22,-5,-159,105,42,96,-113,-8,-17,89,-33,135,56,80,55,176,241,112,23,77,163,410,92,23,24,102,109,877953
-19,-8,5,-60,-34,-21,-166,-59,-34,-20,19,44,-188,98,4,98,12,31,-14,140,222,62,-17,17,157,399,46,-28,-7,46,82,877954
81,-6,1,-68,-17,1,-25,-96,-9,-19,346,65,7,128,89,180,9,14,-47,211,436,108,4,-31,331,742,-14,-28,-20,11,-135,877955
133,22,1,-44,-1,19,102,57,-14,87,211,167,168,39,13,219,-1,2,-85,222,558,125,-4,-66,407,961,-65,-52,-56,-15,-212,877956
174,36,-18,-25,-1,15,200,161,9,185,3,57,85,-61,6,213,-64,-64,-197,199,654,110,-76,-169,454,1183,-176,-148,-140,-102,-328,877957
177,50,-21,6,2,15,191,48,51,60,-111,30,35,39,-39,184,-80,-76,-214,165,635,87,-93,-191,404,1191,-171,-170,-169,-105,-282,877958
92,35,-7,-9,-8,-5,86,-64,-38,-23,-40,-70,-45,-10,-62,128,-47,-22,-126,93,469,64,-73,-104,262,923,-90,-110,-124,-39,-73,877959
65,32,1,-22,-20,-8,54,-83,-78,-17,-17,-128,13,-100,58,132,-5,16,-59,98,414,86,-31,-46,236,823,-31,-63,-60,20,-38,877960
69,22,17,-24,-24,0,100,-30,-86,-27,85,-42,63,16,67,156,-1,29,-27,115,432,121,-38,-12,261,862,15,-35,-34,48,-54,877961
90,31,25,-19,-14,1,152,-88,-9,-7,270,23,37,189,25,139,-51,-27,-100,97,464,100,-78,-84,271,945,-67,-94,-83,-8,-128,877962
64,28,-1,-10,-17,-17,152,-168,-21,32,240,-12,11,152,-86,103,-76,-54,-143,51,411,66,-102,-113,214,900,-108,-136,-112,-34,-90,877963
43,42,-6,5,-20,-23,117,-51,5,62,63,-35,89,70,-36,83,-46,-25,-105,36,340,55,-72,-88,167,801,-76,-101,-93,-15,-38,877964
65,32,-25,-4,-21,-35,86,-83,-28,-145,-93,0,14,121,57,124,-32,-35,-96,81,425,74,-63,-95,242,913,-100,-91,-93,-30,-160,877965
88,28,-17,-25,-20,-37,101,131,-44,-132,-21,-37,220,298,-14,184,-18,-22,-97,128,534,94,-30,-100,319,1092,-99,-83,-85,-27,-212,877966
88,19,-33,-46,-26,-41,120,-35,-39,-144,48,-37,59,260,-18,190,-16,-19,-99,150,557,92,-25,-91,324,1144,-75,-89,-87,-23,-139,877967
117,26,-31,-33,-16,-23,134,-64,-16,-164,111,10,-77,-63,-34,177,-32,-36,-126,154,576,63,-51,-116,318,1193,-101,-115,-112,-40,-169,877968
138,37,-7,-15,4,-1,169,-2,6,-100,243,-24,83,-41,-20,153,-87,-86,-186,146,580,33,-115,-180,327,1280,-169,-180,-159,-87,-188,877969
131,37,-9,-13,-7,-7,169,97,11,-141,92,-94,-129,-119,-27,144,-102,-95,-219,133,576,26,-139,-195,318,1304,-173,-202,-173,-90,-230,877970
157,42,15,-9,13,32,149,86,-49,-154,117,14,-198,-104,-78,171,-85,-74,-191,167,582,45,-128,-162,344,1329,-151,-177,-150,-63,-259,877971
177,34,24,-28,22,51,145,37,-38,-3,156,43,-22,-12,33,190,-86,-65,-180,184,616,49,-125,-153,363,1411,-143,-169,-144,-58,-225,877972
170,28,13,-30,8,34,173,144,-122,-39,110,46,63,39,72,204,-89,-67,-183,181,639,37,-124,-164,366,1478,-136,-176,-141,-56,-193,877973
143,21,0,-36,-4,2,171,30,2,0,119,60,35,-21,44,212,-61,-44,-155,192,655,43,-93,-143,373,1515,-122,-156,-128,-30,-166,877974
137,48,-6,-23,2,-7,161,-6,-47,76,-47,61,-65,-24,56,235,0,6,-82,224,670,85,-43,-68,397,1534,-70,-84,-74,32,-125,877975
199,59,-33,-30,-8,-26,229,52,-56,48,-17,105,-76,7,-38,330,-26,-10,-136,321,918,152,-58,-123,589,1917,-120,-103,-87,14,-292,877976
211,41,-56,-65,-32,-58,240,-12,-118,-75,87,130,-18,58,-12,376,-66,-50,-216,372,1104,175,-105,-199,710,2247,-196,-168,-142,-46,-479,877977
240,53,-38,-62,-14,-21,256,145,-88,-8,39,98,-53,132,42,419,-74,-53,-223,418,1243,216,-108,-205,801,2489,-196,-183,-158,-43,-490,877978
239,37,-44,-75,-25,-17,241,194,-174,-139,111,57,53,112,0,405,-100,-83,-250,410,1295,223,-133,-234,804,2609,-208,-214,-202,-75,-480,877979
282,42,-37,-80,-14,-5,286,206,-147,83,47,37,1,-97,27,434,-126,-99,-318,439,1395,251,-164,-281,873,2820,-254,-261,-245,-109,-573,877980
310,57,-19,-67,0,18,342,244,-97,-39,196,30,-31,-249,73,462,-114,-88,-344,440,1452,264,-158,-292,900,2974,-284,-277,-263,-107,-563,877981
294,50,-7,-63,2,33,316,20,-123,-357,180,54,170,-269,113,409,-130,-94,-339,378,1362,223,-182,-303,783,2904,-278,-289,-291,-119,-437,877982
307,70,-7,-64,6,37,323,-159,-166,-221,155,85,72,-141,97,398,-145,-108,-351,362,1377,206,-189,-320,769,2971,-277,-306,-304,-134,-481,877983
310,80,-16,-41,5,11,296,77,-52,-242,207,120,197,-43,6,407,-137,-100,-356,364,1395,207,-189,-314,778,3030,-261,-299,-307,-124,-504,877984
258,59,-26,-88,-20,-19,165,103,-38,-169,4,26,215,97,54,353,-145,-113,-371,318,1298,165,-205,-314,697,2961,-267,-322,-333,-128,-414,877985
94,40,8,-111,-52,-46,-52,62,9,-153,30,-8,93,83,69,238,-54,-15,-192,188,901,118,-138,-137,398,2365,-94,-204,-234,4,-94,877986
13,38,25,-110,-65,-59,-97,24,97,-27,-144,88,28,144,18,200,-3,38,-45,144,700,111,-81,-24,276,2053,12,-100,-124,91,67,877987
42,54,37,-84,-45,-50,-23,-75,120,-128,-339,23,132,105,59,227,-15,28,-48,169,727,110,-79,-48,335,2106,-2,-85,-97,84,-99,877988
192,58,-5,-82,-25,-35,177,78,9,-89,91,76,154,43,23,377,-70,-43,-206,311,1106,163,-128,-187,645,2747,-141,-166,-152,-8,-440,877989
235,61,-19,-73,-17,-31,245,-99,-152,-114,-74,-69,21,-58,-38,384,-100,-83,-270,302,1193,132,-165,-249,678,2986,-230,-216,-215,-78,-437,877990
227,67,-2,-33,2,0,188,60,-144,-217,-110,-87,96,-229,-18,329,-102,-84,-242,218,1072,74,-153,-229,564,2867,-211,-212,-222,-64,-359,877991
263,69,2,-56,-1,9,250,15,-137,-10,-187,-83,16,-49,58,380,-96,-72,-249,248,1152,89,-143,-233,632,3033,-208,-206,-220,-60,-337,877992
257,59,2,-68,-14,-14,288,-44,-101,-62,29,-38,-128,-32,37,394,-74,-48,-243,258,1158,123,-131,-212,649,3093,-186,-198,-211,-40,-360,877993
182,53,-1,-66,-26,-38,212,197,-88,-221,29,-136,29,-131,-29,308,-92,-57,-241,163,979,71,-155,-204,490,2864,-160,-218,-234,-36,-256,877994
34,54,41,-48,-34,-42,-6,178,16,-126,-32,-182,109,-234,-50,99,-101,-45,-170,-51,504,-31,-180,-121,88,2159,-87,-199,-214,5,12,877995
-144,43,94,-16,-29,-55,-244,76,166,76,-200,-198,-67,-149,-42,-92,-25,58,72,-227,-92,-106,-96,87,-333,1202,126,-39,-67,152,374,877996
-195,30,111,9,-19,-51,-292,75,61,-33,-248,-202,133,-78,-46,-107,63,136,221,-232,-309,-80,-5,212,-433,767,254,84,59,246,532,877997
-189,22,108,24,-23,-28,-274,75,43,105,-39,-159,89,-72,-78,-110,84,136,242,-219,-373,-73,26,233,-434,599,258,116,103,255,557,877998
14,36,45,6,1,-4,-32,53,60,31,-25,41,200,-23,-44,109,52,52,54,22,208,38,16,43,49,1453,63,29,43,117,-86,877999
102,35,19,-34,-18,-16,77,196,105,104,287,119,195,86,-69,210,-4,6,-65,114,510,71,-24,-73,256,1929,-51,-48,-34,11,-171,878000
90,29,-8,-44,-30,-45,89,111,68,-53,229,39,108,120,-62,229,-7,11,-76,143,560,82,-27,-94,264,2036,-72,-58,-54,-14,-126,878001
94,45,9,-34,-28,-39,104,29,1,90,344,-54,-16,218,48,245,6,32,-64,156,568,83,-8,-72,275,2074,-41,-42,-52,1,-126,878002
80,57,16,-10,-18,-36,83,-35,81,40,151,8,190,61,37,200,1,26,-61,110,472,42,-32,-61,198,1966,-28,-40,-59,1,-77,878003
78,50,9,-13,-18,-31,73,-3,17,-9,-4,-23,168,19,-33,185,-6,26,-51,90,447,24,-34,-64,181,1928,-34,-37,-56,-3,-98,878004
-39,36,65,-10,-24,-15,-95,-27,35,28,-147,-153,168,-185,-20,10,3,51,37,-91,22,-77,-21,36,-165,1290,70,14,-31,58,212,878005
-306,-6,129,22,-39,-29,-407,-237,164,-25,-443,-351,-31,-244,-113,-305,70,125,285,-423,-847,-242,43,266,-818,-91,276,141,71,199,737,878006
-407,-10,146,50,-35,-36,-488,-269,160,-55,-327,-317,116,-85,-135,-426,99,153,425,-524,-1228,-275,99,381,-1048,-794,358,235,189,282,815,878007
-341,8,116,61,-16,-24,-364,-277,25,-10,-87,-207,47,-156,-74,-356,95,128,415,-450,-1107,-219,110,331,-879,-694,321,239,224,265,629,878008
-38,8,7,18,-5,-13,-1,25,-45,-10,-50,-4,-30,53,27,-30,4,-9,74,-108,-183,-36,17,18,-131,667,25,61,114,61,-75,878009
91,7,0,-30,2,-3,104,172,-11,112,-23,118,-73,17,24,151,-13,-20,-79,39,293,80,-11,-64,198,1424,-55,-7,39,-11,-165,878010
56,-1,4,-21,-18,-26,87,135,-131,42,89,32,-46,17,-11,121,-10,-1,-66,5,293,95,-10,-40,149,1426,-26,-7,30,5,-87,878011
23,10,4,-9,-26,-44,46,20,-48,107,234,62,-46,-27,-44,52,-5,-8,-53,-82,186,60,-27,-38,31,1291,-24,-20,2,0,-24,878012
-2,6,11,-2,-9,-32,4,-87,113,-84,73,-44,-119,115,-47,13,-9,-14,-35,-132,95,34,-31,-27,-43,1160,-17,-15,-9,3,-1,878013
19,30,33,7,10,-5,39,22,-23,-70,-156,0,78,60,-20,20,-9,7,-5,-121,103,52,-19,-6,-39,1167,-3,0,0,17,26,878014
-79,28,42,10,-12,-27,-55,-142,2,-75,-96,-20,127,-66,-58,-57,12,25,47,-215,-133,8,-6,43,-224,810,47,29,13,48,189,878015
-387,5,120,40,-23,-59,-422,-210,137,-46,-25,-204,229,-22,-91,-339,150,197,394,-488,-1053,-130,116,376,-896,-671,379,251,205,281,826,878016
-459,-24,124,39,-25,-50,-520,-282,165,-36,-180,-135,156,82,-78,-405,198,221,532,-510,-1353,-156,178,490,-1028,-1251,487,348,328,366,855,878017
-336,-33,107,40,5,-5,-396,-273,66,-21,-81,-60,98,-77,12,-341,150,153,422,-386,-1168,-152,149,373,-817,-1031,360,288,308,290,512,878018
-68,-11,34,39,41,42,-85,11,-36,51,177,15,144,-139,59,-128,23,4,127,-133,-516,-103,51,81,-286,-11,77,94,163,73,112,878019
24,10,29,37,43,45,-1,-32,-56,-151,46,150,-72,-212,-13,-34,-37,-33,-16,-39,-237,-89,-4,-20,-90,486,-11,11,73,-19,-23,878020
-12,-1,32,16,30,25,-62,-55,22,-142,-46,114,-156,-234,-59,-48,-17,-15,-30,-70,-288,-129,-6,3,-149,412,14,30,58,-19,-1,878021
-42,-23,23,7,12,4,-83,69,113,39,112,61,-128,-22,-23,-55,-14,-10,1,-83,-334,-150,14,10,-186,345,17,41,61,-24,104,878022
-50,-12,29,24,8,-10,-74,93,148,-24,99,-45,26,-121,-67,-71,1,4,50,-90,-378,-152,42,40,-215,278,31,75,77,-18,94,878023
-37,-4,36,26,21,-15,-61,-241,42,11,-42,-55,-30,-102,-20,-53,33,35,88,-72,-351,-139,50,74,-188,287,70,101,103,15,97,878024
-98,-12,38,24,-1,-25,-151,-395,54,39,19,-65,6,-26,-12,-128,32,40,96,-157,-519,-191,34,102,-335,12,100,98,100,39,275,878025
-260,-19,80,48,-7,-11,-365,-384,25,127,-109,-25,-31,-68,-9,-301,96,133,270,-321,-1024,-228,99,280,-716,-823,262,209,200,162,623,878026
-305,-16,90,63,7,-12,-409,-174,148,11,48,13,52,-99,20,-320,163,195,405,-329,-1177,-166,170,377,-777,-1168,361,304,318,267,647,878027
-291,-13,61,69,-8,-27,-357,-80,110,-53,176,2,-10,86,-7,-265,158,189,407,-279,-1085,-101,179,377,-678,-1125,357,323,357,271,613,878028
-144,-17,16,45,-13,-14,-149,-132,33,8,31,95,-6,130,38,-128,112,105,242,-142,-634,-3,139,209,-329,-501,187,244,288,147,246,878029
-53,-8,7,18,6,10,19,-7,153,93,126,142,-128,76,70,-43,76,52,119,-74,-296,69,110,85,-107,1,64,157,194,38,12,878030
-75,-9,1,18,2,-20,24,13,29,-30,4,137,23,-77,45,-102,26,3,59,-177,-318,51,65,39,-168,-25,25,101,107,-16,50,878031
-75,-7,-7,43,2,-23,-31,-73,-91,-177,-20,62,262,-93,-39,-149,5,-17,40,-229,-351,45,43,15,-222,-93,8,77,78,-33,86,878032
-35,0,7,32,21,3,-36,82,9,-59,106,60,88,-91,62,-124,15,0,50,-207,-296,77,68,20,-191,-29,3,89,81,-26,22,878033
-34,-5,23,10,21,17,-13,118,69,77,-35,15,-24,137,82,-58,79,65,118,-144,-230,157,113,101,-144,14,81,164,150,45,104,878034
-93,-21,0,17,-8,2,-30,-123,76,-93,-152,-53,64,162,-34,-93,50,52,113,-172,-335,94,70,90,-211,-128,77,140,132,33,138,878035
-121,-14,-8,25,-9,-5,-110,-359,-43,-224,-165,-151,61,95,-108,-176,-5,-20,80,-239,-476,-39,15,52,-312,-303,39,82,78,-15,108,878036
-128,-6,18,35,17,18,-236,-134,-33,-155,-202,1,-16,16,-85,-209,18,4,125,-243,-607,-106,48,103,-387,-495,107,110,117,30,238,878037
-149,-26,3,-6,1,-3,-295,-178,-116,-182,-188,28,-143,-129,-55,-195,37,23,124,-210,-634,-120,73,109,-385,-538,104,119,131,38,201,878038
-128,-34,25,-10,8,1,-266,-200,-14,-93,-258,-21,-102,-70,-22,-181,48,33,99,-178,-660,-150,71,119,-377,-562,104,114,153,41,191,878039
-114,-44,37,5,22,14,-213,-93,148,15,-23,8,-19,93,36,-163,71,53,134,-158,-675,-176,97,147,-365,-603,125,139,181,63,333,878040
-104,-27,24,30,18,-4,-123,-139,171,140,28,3,235,-110,-42,-162,68,56,149,-141,-688,-198,111,155,-358,-628,113,152,186,66,327,878041
-122,-2,14,59,26,3,-87,-29,100,200,-354,-4,74,-257,-150,-174,78,64,171,-150,-754,-211,116,176,-381,-744,154,160,210,89,281,878042
-121,-13,32,45,37,22,-104,90,-7,208,-309,-17,4,-85,12,-160,99,85,199,-127,-747,-197,123,199,-366,-783,194,193,236,115,278,878043
-137,-31,31,22,16,17,-119,-6,29,169,12,9,-99,50,71,-172,64,55,173,-134,-768,-216,77,177,-379,-817,175,168,221,92,277,878044
-128,-17,48,62,34,32,-67,-115,103,212,43,0,-271,-97,-111,-216,23,21,133,-185,-811,-251,57,132,-423,-882,121,129,183,49,244,878045
-80,4,41,104,63,50,48,-147,30,242,119,-61,-185,-235,-34,-259,-33,-52,49,-226,-775,-256,12,50,-402,-846,15,61,114,-34,144,878046
-48,2,30,108,59,49,81,-58,-62,124,151,-125,-132,-261,-55,-237,-41,-66,15,-229,-690,-234,-9,13,-354,-751,-22,46,82,-65,71,878047
-52,-5,34,98,61,52,61,110,-8,105,167,-22,45,20,-74,-223,-30,-50,31,-221,-662,-181,1,34,-343,-738,7,60,90,-57,53,878048
-99,-14,41,84,46,42,-54,3,131,125,52,-154,50,-61,-40,-253,6,-5,107,-261,-759,-136,40,99,-440,-964,73,100,130,-8,139,878049
-124,-29,25,51,32,25,-120,-74,-29,68,24,-54,268,106,-16,-243,24,16,147,-260,-721,-46,78,112,-420,-998,91,128,149,8,158,878050
-127,-35,5,24,13,-5,-116,-167,-24,90,33,-19,118,107,70,-199,61,43,158,-234,-626,74,105,131,-370,-952,116,156,156,14,171,878051
-139,-27,4,35,10,-8,-108,-167,-18,-51,101,-52,30,27,63,-208,59,50,151,-238,-608,131,106,119,-365,-998,110,149,138,8,149,878052
-137,-14,0,41,18,-4,-106,-7,-12,59,-242,34,155,18,0,-233,30,14,125,-247,-587,146,73,87,-354,-1004,71,120,104,-22,119,878053
-118,-17,5,54,21,17,-83,-16,60,-20,-121,1,-79,12,3,-214,23,0,115,-222,-532,149,64,65,-312,-949,42,119,111,-40,80,878054
-82,-25,20,45,31,31,-91,95,-43,25,86,-105,52,-73,-84,-202,18,-7,106,-212,-533,101,68,60,-300,-952,47,113,96,-45,96,878055
-36,-29,20,43,38,58,-37,322,-87,-13,26,-17,32,-91,-42,-175,6,-37,67,-175,-482,35,53,26,-240,-823,19,77,69,-63,75,878056
-28,-18,29,54,55,79,0,185,63,185,21,0,-25,-5,10,-168,28,1,84,-143,-513,-22,84,62,-251,-833,56,98,101,-14,166,878057
-75,-29,24,42,31,44,-24,-141,43,175,-258,-93,57,-89,12,-203,29,6,77,-168,-637,-114,86,76,-328,-967,57,91,99,-18,159,878058
-137,-15,23,56,14,21,-67,-247,-32,106,-174,9,-32,27,-8,-235,55,35,142,-205,-819,-200,95,138,-435,-1204,110,136,151,27,237,878059
-159,-7,14,77,16,16,-97,-365,-48,68,-124,18,-55,195,-9,-267,55,31,180,-226,-910,-274,99,163,-483,-1342,135,152,175,50,271,878060
-183,-24,14,57,18,3,-164,-224,11,215,-128,-17,-72,147,33,-300,30,13,167,-247,-983,-334,70,150,-519,-1453,125,124,173,45,279,878061
-164,-28,1,41,3,-20,-170,34,45,176,-98,-10,9,121,-41,-255,41,16,154,-191,-916,-332,83,149,-438,-1383,121,130,194,60,248,878062
-152,-15,-3,49,16,-8,-134,18,85,92,-59,-54,56,195,-31,-208,71,36,155,-154,-881,-302,106,165,-390,-1342,124,150,215,79,286,878063
-139,-18,21,55,20,27,-124,-53,46,86,-108,-65,-92,15,36,-247,36,-10,113,-181,-899,-328,76,111,-418,-1370,75,104,167,34,220,878064
-88,-26,20,51,31,53,-73,134,-41,-22,146,57,-203,42,23,-181,43,-3,108,-119,-739,-258,95,96,-295,-1185,79,118,185,28,102,878065
4,-15,-2,42,39,54,52,149,-108,19,177,125,2,174,-63,-50,47,4,63,4,-424,-133,95,61,-62,-756,55,110,189,15,14,878066
29,-18,-21,38,39,42,113,100,-55,97,166,-23,77,107,-31,-49,0,-34,-22,7,-305,-117,34,-9,-15,-577,-22,41,102,-55,-36,878067
3,-27,-20,29,25,33,86,82,-53,42,36,-26,61,-45,-75,-106,0,-34,-15,-50,-366,-106,34,-10,-111,-704,-37,32,60,-73,18,878068
-88,-26,10,39,25,30,-63,-80,-38,34,-43,-58,-13,-153,-31,-237,15,1,81,-184,-633,-100,59,71,-360,-1166,45,66,62,-29,281,878069
-138,-47,1,32,15,31,-184,-37,60,-47,-131,-7,56,-109,-1,-270,30,16,151,-225,-732,-21,67,114,-439,-1427,110,107,106,9,243,878070
-109,-53,-14,6,11,26,-169,-56,44,22,-226,37,-119,54,-8,-220,30,22,162,-169,-602,119,57,91,-348,-1330,110,118,110,-9,143,878071
-170,-55,-10,8,-2,-3,-207,-136,-16,65,-129,-47,-174,145,-27,-256,54,47,212,-192,-677,177,80,136,-415,-1538,139,147,117,15,220,878072
-156,-24,6,40,6,-5,-158,-141,-68,-1,48,-19,-37,41,-24,-222,67,56,216,-158,-626,216,94,148,-377,-1538,159,159,136,30,243,878073
-138,-25,3,66,8,8,-129,-32,-37,176,182,33,-58,-88,-8,-183,92,78,240,-117,-571,250,116,171,-318,-1510,166,195,169,45,261,878074
-22,-24,-11,51,30,31,-4,35,39,163,212,154,-102,-53,33,-86,66,36,134,-4,-287,254,111,63,-78,-1064,58,124,115,-30,47,878075
60,-23,-25,18,33,43,115,-22,12,89,96,108,-167,24,57,-22,-10,-46,-47,65,-41,184,31,-82,102,-589,-82,3,8,-125,-146,878076
55,-38,-35,-32,12,32,152,-136,29,68,125,79,34,12,22,-38,-67,-93,-140,49,-10,62,-39,-150,116,-416,-149,-65,-59,-161,-207,878077
42,-28,-40,-24,7,15,152,63,37,22,129,64,97,110,5,-35,-73,-89,-121,44,-23,-25,-34,-120,111,-348,-117,-69,-38,-147,-153,878078
-34,-26,-17,7,9,-4,-1,122,16,13,-295,-22,-103,17,-16,-110,-44,-48,-36,-44,-285,-127,-20,-15,-84,-685,-5,-12,15,-50,91,878079
-91,-29,-15,29,5,-8,-99,-12,20,-11,-137,-47,-85,-152,-37,-167,-17,-23,45,-96,-479,-182,12,55,-212,-953,53,40,64,13,115,878080
-70,-21,10,34,12,10,-87,107,2,-9,115,-33,-73,-12,-61,-177,-15,-30,60,-95,-516,-211,19,63,-213,-1006,45,52,90,22,57,878081
-46,-36,1,15,12,15,-76,-15,-87,-16,28,63,25,36,38,-138,0,-31,26,-43,-423,-198,14,42,-134,-872,20,33,93,24,29,878082
-58,-31,-10,1,-4,12,-64,-4,-118,4,114,42,32,-3,34,-94,30,2,30,-20,-369,-176,54,34,-98,-800,22,35,96,32,122,878083
-59,-16,-12,18,-3,7,-42,188,-31,138,98,-26,10,15,-24,-110,37,7,21,-40,-397,-170,58,48,-125,-849,24,34,86,35,126,878084
-48,-16,-41,16,-5,-4,11,270,-47,182,28,8,95,1,67,-89,19,-14,-7,-15,-320,-138,26,20,-62,-728,-5,2,70,11,44,878085
98,-2,-68,3,16,1,178,273,-12,86,12,137,65,102,77,63,-29,-67,-113,160,133,-27,-19,-98,277,-44,-86,-52,22,-55,-313,878086
166,-3,-60,-6,21,11,209,253,-27,275,-141,118,23,160,40,130,-46,-73,-146,209,348,13,-30,-142,399,302,-114,-87,-36,-95,-386,878087
137,-16,-55,-28,20,18,134,6,57,179,-293,71,27,76,21,105,-37,-56,-138,168,313,35,-26,-123,322,235,-118,-75,-57,-95,-291,878088
-7,-10,1,-3,19,21,-59,14,91,63,-112,34,34,-129,10,-41,16,21,34,13,-123,19,19,42,-31,-453,39,26,0,12,76,878089
-75,-13,19,26,10,8,-154,-179,50,-80,-5,53,117,-120,44,-114,56,61,173,-56,-352,35,53,139,-201,-901,128,106,64,82,209,878090
-26,-18,-10,15,18,13,-81,-94,162,-64,66,-13,44,134,35,-40,55,39,133,31,-162,106,66,70,-51,-701,70,88,37,34,88,878091
-36,-36,-23,-1,4,3,-67,67,152,54,-214,-56,69,54,29,-38,42,36,126,33,-142,127,67,62,-53,-722,53,80,14,-2,68,878092
-17,-28,-32,-4,-5,4,-41,116,3,7,-162,29,157,-111,31,-35,44,26,140,52,-110,137,66,53,-28,-678,44,75,10,-11,52,878093
10,-36,-32,-6,3,4,-24,84,-16,42,-127,16,16,-44,-37,-46,-13,-41,29,43,-65,90,13,-35,-4,-577,-40,-4,-57,-83,-114,878094
47,-22,-29,1,11,12,14,193,15,118,-156,87,-201,-23,25,-16,-23,-44,-44,81,20,71,-2,-66,54,-392,-54,-35,-69,-100,-141,878095
159,-15,-54,-13,20,27,167,38,40,111,-49,154,-218,16,76,130,-49,-71,-160,218,405,118,-26,-164,350,246,-151,-89,-101,-146,-350,878096
179,-4,-52,-11,11,27,230,155,-55,-18,113,10,-27,-37,48,137,-83,-101,-214,193,468,78,-80,-205,384,441,-205,-130,-149,-169,-386,878097
137,8,-37,8,1,10,195,142,-37,-50,194,77,88,-5,6,99,-52,-59,-143,124,336,33,-63,-142,262,292,-124,-94,-114,-114,-201,878098
25,19,1,25,-7,-10,97,-62,12,-75,212,83,37,23,-52,29,30,31,14,44,63,19,29,17,57,-121,22,14,-1,9,-9,878099
-23,11,-8,10,-3,-19,37,0,-2,-7,59,-28,156,95,30,-23,39,32,41,6,-51,-13,49,42,-8,-292,37,27,29,34,36,878100
-23,2,-6,2,3,11,-30,-94,4,18,-147,-105,116,349,107,-38,20,8,22,-17,-70,-34,26,21,-20,-311,31,-2,23,35,67,878101
-16,-12,-6,-13,-7,17,-55,50,-35,-75,-216,-48,-26,342,36,-43,-2,-12,6,-35,-82,-32,-15,10,-20,-283,14,-21,15,42,9,878102
-40,-24,-1,-11,-15,0,-53,-194,-56,-154,-13,-47,-83,22,-5,-68,-21,-15,0,-46,-126,-38,-38,24,-40,-349,23,-22,20,53,6,878103
-50,-21,-11,-3,-18,-10,-28,27,-71,-59,126,2,122,-42,-42,-84,-24,-25,-5,-56,-125,-37,-31,1,-50,-370,-2,-35,4,29,36,878104
-17,-12,-24,-11,-6,-7,20,49,56,-171,-12,-17,122,80,11,-30,-13,-27,8,-6,-9,-13,-15,-7,35,-216,-6,-17,5,29,-34,878105
14,-20,-15,-23,-10,12,11,87,23,-231,-64,-40,-41,114,65,20,13,4,50,38,61,21,19,12,94,-132,25,22,25,52,-49,878106
58,-21,-18,-23,-1,31,44,-4,-81,-65,-143,109,34,6,28,72,25,11,-1,105,184,69,38,-12,195,46,-6,-2,3,35,-80,878107
33,-34,-32,-44,-18,-3,44,70,-82,21,-132,88,-22,-104,25,72,17,-6,-27,111,211,74,35,-37,201,93,-31,-24,-36,9,-75,878108
-11,-10,-34,-31,-16,-21,32,32,-62,62,47,94,-80,17,22,83,50,42,53,111,152,96,52,30,160,-13,40,29,-6,62,20,878109
-24,0,-37,-8,-20,-32,9,-19,-77,12,-4,79,-54,22,17,56,44,46,48,95,84,76,25,31,100,-141,54,19,-30,54,88,878110
-20,14,-4,12,-3,1,-24,-63,86,111,31,44,-187,67,20,33,45,58,61,109,14,44,33,41,43,-270,55,17,-47,48,125,878111
1,-4,-8,-16,0,5,8,-23,74,57,164,103,-281,-47,-65,48,26,13,35,135,79,31,21,-8,93,-184,0,-10,-88,-1,-31,878112
9,-18,-12,-19,-8,1,11,-93,6,-8,195,97,-164,83,-63,36,13,2,12,116,59,-12,9,-20,74,-197,-12,-23,-115,-21,-23,878113
48,-7,-9,-7,20,24,0,-107,21,-170,-27,51,6,8,-20,12,-24,-24,-24,91,42,-63,-18,-54,49,-196,-43,-60,-155,-54,-127,878114
14,-7,1,-8,11,12,-51,106,-49,-156,-198,3,26,-92,109,-23,-3,-3,25,46,-50,-55,-5,6,-26,-309,12,-29,-110,2,-30,878115
35,-7,-14,-5,11,1,16,175,-71,154,83,-9,147,-75,70,23,18,20,28,92,47,8,22,15,68,-137,20,-8,-52,19,-44,878116
40,-13,-16,8,5,-10,54,99,-32,-104,17,-12,1,-124,38,23,-2,-3,0,61,89,9,-5,-23,87,-63,-16,-33,-61,-16,-59,878117
22,-1,-6,21,10,-4,59,222,78,-64,271,82,69,161,48,22,13,12,41,36,67,16,1,10,69,-91,16,-2,-25,11,-39,878118
13,1,-14,5,-3,-5,75,240,199,-49,348,11,21,99,24,41,20,23,69,45,112,62,14,22,104,-27,19,21,12,36,-44,878119
3,-16,-22,-21,-15,-16,55,48,44,-67,-82,-62,-53,-34,-74,38,23,7,12,45,155,89,11,-19,111,42,-24,1,4,16,-78,878120
8,-6,-3,-18,5,22,-26,27,13,-89,-80,19,-150,41,-19,31,46,26,16,22,132,114,33,-6,88,17,3,9,16,33,-58,878121
-10,-25,2,-21,6,19,-59,-89,-43,-8,61,5,-63,40,-39,-16,8,17,25,-24,60,104,7,6,27,-90,11,9,10,31,-6,878122
14,-16,-3,-7,11,15,-15,-13,31,-95,-64,109,-120,8,-35,-23,-41,-30,-18,-34,90,80,-40,-40,50,-18,-36,-43,-31,-3,-151,878123
28,-5,-16,-2,10,1,10,-62,33,-139,-255,62,31,107,-20,-5,-17,-12,0,-17,133,111,-8,-26,80,39,-37,-23,-16,7,-90,878124
11,-6,-46,-22,-12,-28,27,-152,-12,-74,-168,-6,188,79,13,38,12,15,20,34,188,163,21,-2,138,112,-12,2,3,29,-61,878125
12,0,-45,-36,-24,-41,22,-106,59,-202,-200,31,24,26,18,83,41,46,33,94,238,173,37,10,190,203,10,12,9,52,-37,878126
-7,-1,-26,-24,-18,-28,-11,26,24,-190,-84,165,-115,51,76,87,61,63,67,100,202,160,73,39,158,144,44,35,14,77,26,878127
8,-6,-31,-27,-19,-15,-18,12,-172,-228,66,-22,-154,78,123,96,60,60,65,109,214,133,66,32,173,152,38,27,3,76,73,878128
8,-7,-26,-31,-20,-18,-14,-49,-36,-27,-44,93,-101,114,29,90,56,52,44,113,197,62,40,21,164,132,33,9,-36,52,65,878129
15,-1,-1,-13,-5,-1,5,-188,61,154,-214,148,48,118,-78,67,38,28,19,107,156,-34,32,-6,130,87,8,-17,-87,27,11,878130
9,5,0,0,3,1,18,23,-19,57,-117,16,175,77,-79,25,-12,-24,-8,75,74,-161,-14,-35,90,13,-31,-51,-129,0,-19,878131
12,9,7,5,0,9,25,10,-4,-10,27,-8,74,-109,-25,30,-15,-16,-18,84,45,-230,-27,-23,67,-6,-14,-47,-130,8,10,878132
7,8,0,4,4,24,19,-13,83,103,226,-40,-114,9,-10,44,9,14,2,94,23,-238,-2,3,63,-28,8,-32,-105,33,-20,878133
-17,-4,-7,-13,-10,-2,-15,-107,17,110,78,-44,72,-66,38,11,-8,8,0,55,-51,-253,-9,-1,8,-125,10,-46,-109,21,17,878134
35,7,-34,-17,-4,-16,72,-85,10,100,95,38,8,168,62,84,-11,-4,-24,138,142,-175,-8,-31,154,137,-24,-54,-85,0,-91,878135
62,14,-33,-20,-5,-9,83,-89,34,-43,-44,55,-8,89,57,103,-15,-6,-42,133,223,-92,-9,-48,195,265,-46,-53,-81,-27,-149,878136
72,2,-24,-5,5,1,44,-106,24,-160,27,104,-78,-56,19,79,-34,-36,-84,96,261,-14,-21,-82,180,311,-88,-93,-100,-67,-154,878137
73,14,5,-5,24,26,-1,-50,23,-61,145,-1,79,-49,6,84,-20,-14,-81,92,280,89,-15,-65,175,308,-66,-74,-69,-33,-85,878138
15,7,2,-24,9,14,-74,19,3,13,-63,-53,143,27,54,43,20,23,-22,41,190,153,-1,-13,85,129,-15,-31,-28,13,9,878139
-28,-9,-5,-34,-17,-14,-118,152,-12,8,51,-142,160,150,34,32,71,57,79,10,110,211,41,59,30,-32,55,23,28,72,131,878140
-10,-10,-15,-40,-18,-21,-64,129,-20,-134,-60,0,78,39,44,79,83,70,108,59,211,302,62,66,107,100,71,60,61,79,81,878141
18,12,2,-18,3,9,-10,37,91,-123,27,33,-112,-50,46,100,85,90,72,89,287,357,70,52,161,182,64,46,62,69,40,878142
18,-4,-2,-20,-8,-8,-40,-20,84,27,-69,26,-109,42,17,61,42,56,36,49,277,342,31,30,131,163,32,11,35,37,-2,878143
8,-21,-25,-37,-20,-17,-65,-117,-6,-43,-235,-16,-6,57,0,47,14,24,31,38,264,318,16,21,118,179,12,2,16,23,35,878144
51,-15,-43,-28,-18,-17,7,-240,-72,55,-25,-37,-7,6,42,88,-3,3,-15,83,359,308,0,-29,202,360,-49,-31,-22,-13,-115,878145
131,-7,-80,-42,-21,-18,139,-300,-68,31,61,32,-44,23,45,186,-54,-55,-159,185,655,282,-46,-161,436,876,-177,-124,-114,-106,-296,878146
179,13,-74,-57,-9,-3,155,-200,-33,-69,138,89,-84,-9,50,237,-64,-76,-202,223,767,233,-70,-196,513,1134,-191,-149,-159,-140,-346,878147
161,13,-39,-50,-11,1,80,65,-31,-34,115,129,-18,205,83,219,-61,-53,-163,204,702,152,-80,-158,458,1111,-135,-132,-167,-96,-259,878148
13,-11,-6,-47,-32,-26,-100,142,5,36,-168,50,139,59,11,61,-26,-3,-41,41,272,-23,-40,-46,127,490,-29,-72,-131,-24,-73,878149
-1,0,18,-16,-18,0,-76,160,-84,-14,82,-114,36,-47,20,18,-14,6,-13,17,103,-132,-20,-7,43,241,-3,-54,-112,14,-24,878150
27,9,51,9,15,27,-29,113,-92,-88,144,-7,180,-163,-30,24,-4,16,7,35,22,-232,-12,29,21,148,13,-31,-99,41,7,878151
67,21,51,18,31,45,93,113,1,-83,45,25,82,-83,23,91,18,22,2,111,113,-261,26,18,133,323,19,-15,-66,53,31,878152
54,30,3,27,8,8,189,-34,-25,-176,60,-97,32,-92,28,86,-17,-13,-73,101,136,-323,-27,-55,141,373,-37,-75,-118,-2,0,878153
17,30,-37,23,-15,-29,199,-138,-9,-17,182,-50,24,30,-19,65,-23,-20,-93,78,118,-348,-34,-74,116,358,-62,-103,-140,-29,-1,878154
21,18,-27,2,-15,-18,180,-96,35,235,164,-51,26,144,-11,78,-24,-22,-72,88,149,-294,-23,-63,130,418,-66,-83,-118,-29,-29,878155
