88,-2,-49,5,28,9,-25,133,-60,3,120,110,-298,166,34,31,-53,-79,-66,35,22,-8,-11,-83,93,111,-82,-28,-3,-59,-164,710308
54,-15,-28,-10,23,6,-93,61,-142,6,219,5,-170,144,27,-1,-51,-63,-67,-4,-29,-30,-28,-79,22,70,-66,-30,-21,-42,-105,710309
34,-15,-5,13,31,19,9,82,-101,88,88,-4,-3,53,15,-14,-23,-51,-20,-22,-62,-32,14,-43,-22,16,-45,-5,3,-17,-96,710310
57,14,-1,45,46,45,237,78,-30,145,-132,-40,-33,-28,52,1,-42,-64,-42,5,34,-22,3,-71,36,149,-76,-29,-27,-39,-145,710311
-47,30,37,74,45,33,134,5,11,104,52,-158,59,-55,-1,-119,-24,-27,32,-134,-278,-107,-20,19,-220,-276,20,15,4,9,141,710312
-466,-31,127,76,-13,-19,-424,-511,224,-2,-155,-232,130,-152,-87,-581,112,148,451,-586,-1526,-353,101,418,-1190,-2216,409,275,268,277,1046,710313
-589,-63,147,93,-18,-27,-617,-459,205,79,-94,-279,150,-79,-106,-767,165,191,629,-705,-2049,-430,163,566,-1536,-3191,547,376,417,403,1223,710314
-515,-58,120,99,0,-14,-527,-346,226,214,-335,-180,6,5,-128,-691,169,167,603,-588,-1930,-356,182,520,-1369,-3155,506,373,451,391,924,710315
-196,-18,32,93,52,22,-122,49,65,240,-69,24,-86,145,48,-329,117,76,356,-196,-1051,-111,166,262,-597,-1906,256,240,340,226,304,710316
158,6,-57,56,66,43,250,313,-28,139,257,96,-156,71,83,51,-3,-58,-30,165,-7,89,50,-78,215,-270,-71,19,91,-39,-324,710317
147,7,-44,52,59,55,200,310,-110,27,140,1,-178,30,2,41,-57,-96,-105,126,74,55,-18,-126,220,-61,-123,-42,-8,-109,-302,710318
84,-9,-46,30,43,36,131,126,-110,110,-18,31,-32,-42,-84,-34,-76,-116,-103,39,-20,0,-44,-119,89,-158,-133,-62,-44,-124,-274,710319
87,21,-28,58,48,36,205,-74,-107,207,-7,11,-61,-72,-64,-23,-39,-67,-76,53,-23,25,-14,-85,78,-148,-87,-37,-24,-87,-237,710320
64,23,-26,51,38,21,194,-192,-126,29,197,33,-9,-137,39,-18,-25,-52,-83,53,-37,20,-10,-79,64,-135,-64,-33,-32,-75,-193,710321
4,3,-13,25,7,-1,83,-82,-20,-52,-28,56,52,-59,57,-49,-7,-24,-26,5,-146,-6,4,-21,-33,-287,-5,2,0,-46,2,710322
-292,-7,83,54,-8,-25,-287,-309,98,108,-31,-122,-30,-21,-60,-361,106,114,303,-316,-1002,-168,97,288,-723,-1635,290,205,199,175,649,710323
-480,-36,126,87,-13,-21,-559,-167,130,164,-223,-180,-28,39,-60,-604,166,193,530,-521,-1675,-288,175,488,-1197,-2777,488,351,381,344,965,710324
-411,-33,98,100,19,20,-526,-92,166,91,-398,-116,43,-94,26,-553,177,189,549,-440,-1622,-242,201,484,-1094,-2818,465,373,423,356,767,710325
-124,-54,-11,54,37,29,-191,-33,42,216,29,41,-36,-9,2,-266,77,45,276,-145,-861,-81,126,196,-443,-1723,186,206,249,161,83,710326
184,-17,-58,27,74,75,246,372,-25,173,217,152,103,68,81,69,-8,-57,-40,164,51,108,48,-88,248,-314,-79,16,53,-37,-319,710327
168,-13,-58,21,52,73,336,220,-97,62,24,108,17,52,63,65,-50,-96,-124,113,135,68,-20,-145,247,-124,-131,-42,-41,-99,-318,710328
123,-4,-42,43,39,49,321,114,-23,170,88,55,-80,-3,11,7,-68,-85,-126,38,52,18,-47,-138,137,-202,-130,-68,-74,-99,-256,710329
76,19,-30,57,33,26,237,2,-76,221,-29,58,-169,9,-15,-19,-48,-56,-97,2,-10,10,-31,-94,68,-300,-95,-38,-53,-69,-181,710330
37,32,-21,58,20,11,119,-71,-68,184,90,-5,-30,74,14,-1,20,-7,-28,17,-29,42,25,-33,45,-354,-25,16,4,-19,-25,710331
27,11,-23,33,19,5,77,-84,2,85,120,32,14,56,16,2,39,16,6,37,-37,51,50,-4,43,-365,12,37,33,7,40,710332
-235,-25,32,25,-28,-13,-256,-62,114,-38,69,-90,-46,11,-53,-282,96,114,246,-234,-762,-114,90,235,-531,-1490,251,191,173,167,543,710333
-353,-40,50,52,-31,-20,-440,-218,18,186,-10,-123,-187,85,-95,-440,127,152,395,-354,-1207,-198,133,368,-831,-2224,370,277,284,264,738,710334
-300,-45,27,45,-17,-21,-399,-214,63,152,-329,-105,-208,-10,-80,-394,108,109,348,-275,-1126,-181,135,305,-719,-2153,306,258,273,237,644,710335
-112,-28,-16,36,12,23,-175,-15,21,42,-319,10,-198,85,86,-192,62,46,181,-58,-633,-74,98,142,-294,-1433,142,157,193,121,235,710336
108,-12,-59,25,49,41,137,373,-91,152,-105,76,-163,76,-25,48,18,-28,-25,173,0,62,42,-41,217,-431,-30,43,68,-6,-163,710337
107,13,-53,39,43,37,215,84,-115,61,54,40,-33,-19,-23,40,-4,-43,-82,153,30,40,21,-74,210,-307,-60,-7,10,-51,-186,710338
92,9,-56,29,29,14,196,158,-24,-27,127,10,-43,41,16,5,-30,-56,-114,116,-5,8,-12,-96,158,-309,-84,-54,-37,-74,-164,710339
86,18,-53,28,16,8,167,180,-53,-128,-63,-3,-83,-14,-30,11,-45,-61,-126,103,-2,-2,-14,-108,145,-272,-100,-64,-54,-97,-141,710340
59,-2,-59,5,-3,-5,122,114,-4,-8,-159,74,-25,151,-87,22,-14,-29,-81,114,-5,19,6,-65,139,-253,-54,-24,-29,-60,-157,710341
17,-14,-35,-8,-5,8,52,-37,6,115,-18,71,21,87,6,41,67,53,38,121,-49,59,84,52,105,-359,70,79,54,44,-3,710342
-37,7,-21,14,0,5,25,-45,-45,155,189,21,65,111,5,-17,78,88,99,79,-184,53,103,99,-5,-585,112,118,104,82,117,710343
-125,-8,-13,10,-19,-25,-73,31,-13,-97,76,-55,-29,243,-34,-119,89,106,158,-28,-439,-14,110,154,-216,-991,174,153,136,120,213,710344
-119,-4,2,27,5,-6,-52,63,63,43,-44,-5,-9,144,18,-97,111,110,181,-18,-452,7,130,177,-208,-1063,183,164,159,143,190,710345
-30,-4,-21,24,14,6,83,51,11,179,-75,72,-148,62,52,-52,27,13,33,36,-224,30,54,31,-37,-727,27,66,55,36,-32,710346
96,2,-65,12,25,23,247,40,-18,-5,103,41,-70,-26,76,18,-58,-82,-137,106,120,52,-39,-153,195,-206,-136,-64,-72,-98,-228,710347
112,9,-49,8,29,23,235,-132,-20,-292,86,-9,-76,107,32,26,-54,-73,-157,87,179,48,-51,-164,203,-108,-129,-77,-101,-112,-211,710348
92,22,-36,34,30,33,172,-93,-2,-89,-413,-45,4,6,78,1,-18,-34,-83,59,92,51,-19,-89,119,-254,-69,-29,-69,-58,-161,710349
64,28,-40,40,27,36,131,46,-70,143,-264,-71,-51,-65,103,-13,-24,-19,-83,40,73,45,-25,-81,103,-295,-74,-31,-71,-61,-103,710350
36,12,-39,30,19,16,23,105,-84,192,45,-71,-51,-34,48,-26,-27,-20,-54,12,16,38,-40,-63,50,-378,-48,-14,-54,-41,-141,710351
50,-7,-41,-2,1,2,11,230,-39,146,137,-52,-38,-105,27,-5,-32,-38,-76,31,71,43,-30,-88,93,-281,-67,-33,-69,-65,-174,710352
24,-9,-13,-14,1,8,9,212,-7,234,87,-61,-107,-34,25,-23,-16,-15,-52,15,-9,26,-5,-59,27,-395,-40,-16,-47,-42,-31,710353
21,-17,-3,-23,9,19,-4,141,-9,41,11,-55,-60,-13,38,-73,-27,-37,-48,-21,-112,-28,-13,-69,-35,-518,-34,-29,-59,-46,-38,710354
48,-14,-11,-18,17,31,32,25,18,-60,-112,-53,-90,-146,28,-71,-51,-64,-95,-6,-95,-51,-38,-95,-6,-442,-73,-59,-81,-77,-6,710355
58,2,-7,3,24,28,50,-71,29,77,91,15,31,-67,31,-49,-41,-47,-84,28,-76,-35,-40,-78,13,-381,-54,-44,-60,-64,-8,710356
25,-8,-27,10,-1,-11,20,-3,-71,44,347,45,98,-16,38,-40,-46,-48,-74,18,-83,-49,-41,-69,17,-368,-52,-40,-54,-53,-46,710357
2,3,-30,15,-5,-17,-1,48,34,51,210,39,111,71,10,-21,-10,-17,-33,28,-97,-26,1,-25,13,-381,-5,-11,-13,-10,1,710358
9,7,-26,14,1,-7,54,-87,15,1,89,28,-54,256,29,21,0,-8,-41,76,-34,-6,-3,-32,76,-280,-10,-10,-2,-2,-10,710359
7,10,-32,-7,-5,-11,94,-14,70,-152,-123,94,-218,182,123,29,-2,-11,-44,85,3,2,-1,-49,101,-220,-23,-19,-7,-19,-92,710360
1,14,-25,3,4,0,56,174,72,-237,-159,51,-111,27,44,10,7,6,-26,67,-28,5,21,-26,72,-268,-6,-3,14,-2,-82,710361
27,15,-17,2,5,11,43,253,47,-27,104,71,167,-14,13,36,9,6,-27,74,12,18,12,-24,101,-203,-13,-6,11,-12,-94,710362
99,10,-32,9,21,20,109,184,-97,-44,411,14,142,-237,-6,86,-61,-62,-136,115,207,26,-57,-131,236,109,-108,-85,-80,-91,-223,710363
120,8,-37,12,21,19,169,94,-136,-34,342,-11,109,-119,35,94,-87,-91,-193,119,285,17,-89,-175,280,257,-147,-124,-134,-126,-263,710364
100,24,-32,-6,7,-3,164,46,-66,42,33,68,149,16,38,86,-99,-95,-209,99,304,13,-102,-190,257,296,-152,-135,-156,-133,-188,710365
22,10,-20,-18,-13,-30,57,-37,-86,-6,-47,19,-4,-85,52,26,-51,-48,-133,28,144,-8,-62,-115,114,35,-87,-84,-110,-84,-78,710366
-1,-9,4,-18,-6,-12,-27,-27,14,50,-146,-6,-75,-254,43,-30,-14,-3,-35,-15,6,-2,-19,-45,11,-221,-21,-29,-54,-28,-40,710367
63,-9,4,-20,12,21,30,30,31,205,-60,33,157,-250,31,18,-15,-15,-59,28,125,45,-11,-75,107,-86,-50,-45,-57,-39,-140,710368
50,2,17,-14,21,24,43,-15,24,96,-19,59,228,-242,44,3,-14,-9,-52,17,116,49,-13,-75,94,-122,-51,-39,-60,-40,-68,710369
58,-8,-14,-13,2,12,49,138,-14,28,131,85,-1,-82,-25,27,-42,-37,-105,32,201,59,-37,-120,150,4,-92,-67,-96,-81,-150,710370
49,-6,-34,-20,-17,-3,11,118,-12,-69,205,88,35,-5,23,76,-29,-10,-97,69,257,80,-33,-97,199,91,-77,-48,-74,-60,-112,710371
60,15,-28,-24,-13,-2,38,-33,0,-25,163,115,-30,41,-42,133,6,16,-66,126,352,129,7,-72,281,240,-45,-28,-47,-34,-101,710372
106,23,-26,-23,-1,8,108,-135,-78,-35,0,145,-242,51,5,190,9,1,-98,181,469,152,8,-96,378,477,-72,-47,-62,-41,-237,710373
169,37,-31,-38,11,23,191,-59,15,-48,-111,197,-94,331,86,264,-15,-20,-193,250,667,166,-22,-168,523,850,-146,-103,-115,-97,-402,710374
164,23,-45,-53,-3,8,132,-17,-86,-75,101,108,-18,271,-8,231,-47,-44,-223,209,621,117,-65,-189,472,874,-166,-134,-154,-128,-330,710375
86,7,-36,-47,-16,-6,-26,-98,-139,19,212,13,54,65,-73,96,-41,-30,-152,80,302,24,-75,-107,196,449,-80,-91,-118,-78,-97,710376
8,1,-13,-30,-21,-22,-147,-200,-92,-108,-147,-30,229,103,-58,11,-9,19,-21,6,17,-24,-33,9,-16,14,35,-15,-22,13,92,710377
-5,3,-1,-25,-23,-23,-107,-103,-69,-108,-33,71,36,262,15,41,20,49,23,41,33,3,7,40,25,9,65,26,33,47,58,710378
-13,0,-26,-19,-30,-32,11,-43,-74,-161,31,56,-138,187,43,35,-10,-2,-34,49,57,-18,-17,-26,58,70,-12,-15,-20,1,-11,710379
-28,4,-11,-21,-13,-10,44,-216,27,-88,151,-19,202,19,45,8,-21,-16,-32,13,0,-48,-37,-33,15,-7,-16,-29,-41,-14,11,710380
-15,10,6,-31,-9,10,35,-31,-44,-84,145,-1,167,9,40,6,-39,-39,-49,21,13,-45,-49,-59,20,24,-40,-47,-43,-34,-37,710381
0,3,-6,-40,-7,3,18,-90,-41,-49,220,18,49,80,6,27,-23,-29,-49,46,68,-16,-21,-59,69,104,-58,-47,-44,-29,-73,710382
91,-1,-36,-40,4,16,43,-148,-41,-69,424,35,98,29,-8,95,-85,-101,-189,96,282,7,-75,-179,223,434,-159,-134,-131,-116,-249,710383
178,16,-51,-37,5,18,112,60,-59,-9,304,37,194,-60,49,159,-96,-121,-247,149,478,43,-104,-233,345,739,-203,-177,-176,-156,-335,710384
171,24,-27,-28,3,16,161,127,-91,-85,179,1,-7,30,31,198,-47,-46,-174,178,534,106,-36,-157,383,816,-142,-104,-127,-92,-192,710385
70,29,2,-23,-5,13,70,-49,-65,-6,107,15,-214,60,-7,131,10,27,-39,108,334,90,6,-27,208,488,-23,-15,-41,-8,93,710386
-29,5,25,-10,-14,-5,-72,-209,-54,-63,125,28,-49,54,-77,-2,17,30,22,-25,39,11,10,20,-31,18,21,3,-19,16,158,710387
-18,5,28,-4,-6,-1,-39,-246,38,-31,75,-13,-5,-87,-50,-11,13,24,-2,-25,62,23,5,-12,2,25,-8,-15,-19,1,17,710388
-25,8,27,0,-6,-8,-13,-212,69,-74,36,41,-40,60,10,4,26,46,13,-27,68,44,26,19,2,-20,18,5,-2,13,57,710389
-6,10,-4,-16,-16,-15,-7,-73,-24,-105,102,50,-30,161,-50,34,13,17,-38,15,165,55,1,-35,87,117,-18,-25,-32,-18,-38,710390
6,5,1,-31,-10,-1,-49,83,21,-78,47,58,130,70,-25,50,10,16,-53,22,187,53,-9,-37,116,171,-23,-19,-39,-20,-47,710391
30,4,-5,-39,-13,3,-25,25,19,-154,-81,110,51,51,40,105,30,42,-23,75,280,104,25,-22,195,287,-16,5,-8,3,-109,710392
173,31,-34,-17,18,5,139,269,28,-71,-81,142,-57,131,48,246,21,11,-100,225,615,187,25,-102,470,836,-98,-49,-50,-42,-293,710393
243,54,-47,-15,16,10,238,264,13,-201,-43,124,-152,-36,16,328,7,-13,-169,295,806,220,0,-157,621,1213,-147,-90,-84,-84,-397,710394
200,38,-20,-8,18,14,206,139,-69,-26,342,79,-150,25,63,284,-12,-8,-159,241,708,172,-22,-133,522,1146,-123,-85,-93,-81,-260,710395
13,3,6,-20,-23,-28,7,-192,-83,-272,251,-49,36,-120,28,88,-22,2,-85,35,257,26,-42,-58,136,536,-44,-50,-72,-33,-39,710396
-52,13,36,-2,-11,-8,-64,-279,52,-141,218,-15,52,-27,25,-5,-7,-3,-26,-41,16,-37,-29,-7,-51,161,-17,-30,-50,-12,70,710397
-33,4,4,-28,-15,-14,-90,-87,92,-26,111,42,8,-17,49,0,-20,-10,-31,-24,31,-31,-31,-29,-20,174,-34,-41,-55,-24,24,710398
-1,14,17,-32,0,2,-78,-47,83,10,160,31,96,55,36,69,27,37,22,46,84,26,22,14,51,227,26,13,11,22,-12,710399
-49,-18,22,-65,-26,-22,-132,-234,119,26,187,51,-1,136,14,44,39,41,36,27,29,7,32,35,-9,118,54,19,31,45,87,710400
-64,-11,26,-52,-24,-20,-134,-176,89,76,6,16,62,55,53,26,26,38,26,13,14,-9,15,32,-25,65,49,9,32,46,109,710401
-56,17,20,-11,-7,-13,-149,-116,24,52,103,-50,-86,12,58,1,10,23,-4,-6,-33,-27,-9,13,-49,0,30,-7,13,35,74,710402
58,6,-22,-26,-15,-13,-35,116,-43,-48,83,92,-156,-47,90,121,-20,-29,-94,108,281,35,-28,-94,208,476,-71,-55,-50,-34,-145,710403
154,17,-26,-33,12,17,89,5,-53,-42,-50,169,-64,-245,54,221,-33,-43,-137,188,555,98,-30,-150,400,910,-128,-90,-100,-88,-256,710404
116,4,-16,-43,-5,-10,100,-36,-61,-104,-15,40,-6,-195,-12,125,-73,-87,-170,82,418,17,-75,-183,268,761,-159,-130,-152,-130,-237,710405
68,26,27,-11,0,8,70,-176,46,-22,115,-88,-51,-119,48,52,-60,-55,-96,4,240,-16,-60,-109,124,502,-82,-93,-110,-76,-21,710406
-58,22,49,14,-11,-18,-85,-327,41,-6,-50,-77,-185,-36,5,-44,0,15,20,-88,-63,-53,-18,25,-121,9,43,-10,-25,26,136,710407
-42,19,25,0,-11,-24,-85,94,54,121,6,-16,10,23,8,8,21,32,26,-25,32,17,25,23,-12,106,23,9,0,31,50,710408
-46,4,8,-23,-23,-32,-89,306,46,77,127,-11,15,79,-39,11,30,16,17,-30,62,36,33,3,9,126,12,9,-9,11,38,710409
-34,-5,3,-37,-27,-35,-75,179,21,-73,79,-21,125,79,20,7,21,16,9,-23,72,30,13,2,15,143,17,-6,-7,13,13,710410
-23,1,19,-25,-13,-12,-49,-28,57,-162,-155,96,-57,-71,9,-3,18,34,21,-30,21,16,6,29,-14,76,34,4,16,27,33,710411
30,9,1,-30,1,6,33,-85,7,-21,-197,7,-128,34,67,64,2,10,-11,33,175,48,-13,-9,117,302,-26,-6,-11,4,-54,710412
151,9,-17,-37,11,26,146,-37,-108,67,-69,8,-65,-7,40,177,-62,-64,-169,133,519,95,-57,-158,376,841,-164,-112,-115,-114,-315,710413
203,14,-18,-38,22,40,184,46,-30,-4,-36,35,47,-136,54,207,-75,-82,-228,162,629,107,-71,-208,435,1063,-203,-145,-157,-153,-399,710414
199,21,-35,-34,3,11,246,151,-68,-41,85,28,128,-83,47,234,-80,-99,-245,169,687,108,-100,-224,470,1205,-215,-175,-179,-163,-472,710415
75,17,-13,-19,-18,-23,117,231,-41,118,4,-76,282,-202,35,92,-84,-74,-153,30,363,7,-101,-139,189,766,-142,-137,-155,-117,-152,710416
-38,15,23,-7,-28,-14,-52,95,-7,-71,-42,-117,120,-66,46,-48,-59,-34,-47,-95,4,-66,-72,-42,-94,220,-43,-77,-84,-49,69,710417
-47,12,39,-17,-13,6,-103,43,29,-78,45,10,-193,107,-16,-44,-31,-14,-15,-79,-35,-56,-48,-9,-112,135,-11,-47,-43,-12,34,710418
-67,4,39,-18,-14,3,-189,66,-11,104,-77,-19,-2,-2,-20,-54,-4,10,19,-92,-93,-55,-29,36,-142,20,37,-1,-5,29,76,710419
-65,-17,21,-16,-23,-12,-274,103,-31,143,16,-55,78,65,-55,-65,-12,7,38,-96,-130,-61,-33,39,-155,-57,45,17,7,35,131,710420
-36,0,15,-11,-14,-9,-267,69,5,80,-74,-107,-14,-36,44,-48,-26,-14,12,-85,-81,-62,-27,9,-122,2,13,-9,-11,4,81,710421
-20,7,10,0,-10,-11,-204,146,18,39,-114,-161,63,-48,30,-56,-43,-24,-11,-84,-90,-70,-31,-20,-124,-20,-11,-31,-28,0,-1,710422
98,21,-4,-6,9,3,122,153,48,-45,-76,6,-11,181,24,89,-34,-43,-79,62,251,29,-28,-88,166,493,-84,-62,-50,-40,-209,710423
116,18,-26,-8,0,-3,280,113,28,25,184,113,-142,115,57,137,-57,-72,-149,99,418,59,-62,-145,291,769,-156,-109,-108,-94,-249,710424
103,27,-31,-9,-7,4,186,140,-47,-128,156,15,-269,-82,26,111,-84,-92,-170,69,405,37,-95,-166,263,803,-165,-138,-143,-124,-218,710425
20,6,-2,-21,-17,-9,-3,242,7,-252,-102,-43,-43,-199,-78,25,-61,-50,-99,-15,192,-11,-73,-85,72,488,-71,-96,-94,-69,-54,710426
-55,14,36,0,-24,-12,-105,59,90,19,-15,-38,94,-62,-18,-22,23,43,50,-69,-42,-14,19,58,-97,92,63,13,23,47,90,710427
-25,-1,7,-11,-19,-19,-36,-109,-18,80,-25,84,61,-9,-7,29,12,16,9,-3,76,10,7,20,26,277,17,5,2,22,11,710428
-27,-6,6,-30,-6,3,-62,1,-43,100,134,-25,55,-48,-84,44,26,28,15,5,80,13,8,29,31,271,18,24,20,24,73,710429
-2,9,27,-29,4,17,-79,-114,29,-58,86,23,68,16,-45,49,14,29,21,13,75,10,1,33,46,275,23,26,29,32,45,710430
44,11,3,-27,-4,-14,-24,-95,-20,-116,-61,-21,20,64,-20,88,6,-1,-3,53,198,40,8,-16,149,460,-17,-9,-2,-4,-83,710431
55,16,-3,-32,-3,-11,10,-76,50,-124,-232,-1,4,23,5,89,-23,-35,-67,62,249,33,-31,-73,166,579,-76,-48,-58,-48,-101,710432
-3,5,-1,-38,-20,-12,23,107,-22,-204,-180,14,136,7,-87,23,-30,-23,-39,3,125,-7,-49,-42,58,382,-36,-36,-46,-35,-90,710433
15,18,-9,-2,-2,0,121,117,-1,73,6,-39,108,-92,-93,45,-23,-21,-53,12,171,7,-52,-56,85,445,-45,-49,-55,-39,-108,710434
16,36,12,23,10,8,110,-20,43,81,13,-93,179,-47,-56,27,-10,-12,-21,-8,131,9,-31,-31,40,364,-21,-31,-38,-18,-110,710435
-12,24,28,20,2,4,19,44,69,82,-159,-59,-4,-17,-65,5,8,14,32,-40,26,-15,10,18,-33,188,14,1,-12,9,-50,710436
-6,22,17,7,2,3,24,59,11,11,1,29,-176,-122,-12,24,13,17,35,-25,55,4,14,11,1,215,15,10,6,17,-25,710437
-22,11,19,2,-3,-11,15,-174,-51,93,-37,-116,-135,-89,21,12,13,13,27,-40,37,-9,-7,8,-17,178,15,-1,10,14,55,710438
-25,11,26,5,-10,-10,-8,-48,-17,-10,-130,-106,-52,-190,-5,-5,21,22,45,-54,-10,-6,6,32,-58,104,44,23,20,35,85,710439
24,14,22,17,12,8,60,85,2,-81,-89,-91,-36,-220,-87,16,9,8,9,-15,54,11,-5,10,-2,205,12,7,3,21,30,710440
21,20,11,38,18,6,121,45,23,-21,-61,-75,1,-169,-30,28,15,8,18,-17,64,15,-4,9,3,214,5,11,-2,24,42,710441
-15,5,2,32,-6,1,116,-48,-41,-113,-171,-52,-17,-117,-17,-16,4,-5,13,-52,-7,-17,-20,-1,-54,108,5,11,-10,15,79,710442
-117,4,21,20,-27,-21,-37,-118,-29,-176,-298,-85,-53,204,-20,-102,52,64,127,-122,-274,-48,37,113,-253,-298,106,80,68,89,243,710443
-150,-8,26,-6,-35,-42,-127,-29,99,-186,-192,-56,-133,182,-13,-92,86,93,184,-95,-298,-12,75,156,-233,-376,145,127,128,128,203,710444
-115,-5,21,-7,-11,-22,-127,20,66,-179,-56,8,-54,103,10,-26,90,94,166,-30,-173,17,64,144,-115,-222,134,120,137,122,123,710445
-32,0,1,-7,-1,0,-76,-12,9,-50,-4,51,154,97,13,25,61,62,93,29,-35,47,52,80,-6,-8,75,81,95,74,41,710446
0,-10,-15,-29,2,-7,-45,47,-63,56,-86,-6,40,-149,0,30,16,15,24,33,31,22,6,13,26,125,20,23,36,7,-49,710447
58,9,-23,-17,0,-16,39,262,29,-107,-41,71,-64,-34,-5,81,-9,-21,-26,87,186,40,-31,-37,158,384,-40,-25,-8,-35,-126,710448
68,15,-22,2,-2,-2,66,205,-9,-11,59,28,-83,-7,60,95,-10,-14,-52,99,222,35,-33,-42,177,478,-37,-37,-22,-30,-131,710449
80,24,-6,11,20,16,110,87,20,65,44,-25,23,-112,110,124,6,4,-45,122,254,53,-7,-27,197,535,-25,-24,-11,-9,-74,710450
68,20,-9,15,7,7,128,136,-61,-107,149,-58,104,-47,48,106,0,-6,-41,104,247,47,-7,-49,185,542,-43,-32,-27,-28,-60,710451
62,17,-16,20,1,3,116,273,-114,-104,233,-22,11,137,-2,70,-27,-30,-87,69,216,10,-23,-90,149,521,-76,-71,-59,-77,-86,710452
366,41,-102,-9,25,18,463,313,-105,-12,161,112,86,233,152,408,-139,-185,-432,396,1125,196,-143,-412,871,1960,-395,-281,-264,-292,-858,710453
688,61,-195,-88,32,9,808,652,-281,59,388,233,84,292,130,795,-292,-336,-829,717,2229,377,-295,-764,1670,3776,-738,-530,-567,-561,-1435,710454
721,86,-193,-140,13,1,831,584,-183,-42,468,290,31,166,149,886,-288,-313,-888,751,2517,411,-320,-797,1794,4367,-766,-574,-640,-600,-1405,710455
403,76,-74,-126,-26,-19,440,109,8,20,106,142,-28,78,50,566,-172,-141,-582,385,1722,244,-220,-470,1061,3244,-448,-390,-490,-382,-628,710456
-120,39,90,-53,-59,-53,-217,-70,119,97,-395,-164,-33,-315,-98,-32,20,83,13,-193,119,-69,-54,72,-210,741,88,-28,-108,29,388,710457
-153,8,78,-39,-46,-40,-248,-63,73,-37,-297,-231,230,-491,-76,-97,27,69,79,-207,-103,-91,-32,96,-308,328,111,7,-26,79,400,710458
-123,12,83,-13,-22,-16,-204,-261,84,15,-236,-189,188,-340,-72,-73,35,73,103,-177,-109,-70,-2,94,-278,269,118,21,19,90,332,710459
-94,8,68,-1,-11,-10,-130,-109,65,-126,-381,-101,99,-124,-69,-64,37,52,90,-154,-95,-55,2,74,-231,276,90,28,27,75,248,710460
-65,11,63,22,4,2,-57,-318,172,-61,-231,-56,43,-53,-121,-51,41,55,100,-142,-114,-40,19,81,-216,238,86,38,35,81,225,710461
11,24,56,36,17,18,59,-172,88,64,-93,-47,274,-130,-54,15,25,31,42,-61,53,-4,4,26,-62,454,38,4,22,36,40,710462
502,75,-90,-28,50,41,633,498,-177,73,129,206,213,56,142,586,-120,-157,-435,518,1534,329,-121,-434,1150,2763,-422,-281,-258,-277,-1065,710463
861,106,-194,-124,53,40,991,592,-304,89,371,358,-86,333,171,1051,-269,-309,-898,923,2826,553,-279,-840,2091,4918,-809,-572,-588,-584,-1798,710464
1008,109,-245,-193,28,19,1066,642,-356,-25,536,441,-183,308,167,1274,-353,-376,-1153,1083,3518,635,-393,-1044,2510,6204,-991,-741,-802,-741,-2046,710465
527,70,-116,-208,-47,-46,402,396,-197,-160,-36,45,49,8,39,801,-233,-188,-798,546,2368,328,-333,-653,1434,4642,-592,-522,-660,-507,-906,710466
-262,54,120,-91,-104,-87,-538,-107,31,-224,-327,-340,205,-71,-48,-14,112,213,139,-219,36,-74,-14,233,-382,1019,250,67,-58,136,810,710467
-221,47,111,-57,-75,-55,-459,-92,60,-43,-207,-257,38,52,-12,0,156,224,251,-129,-111,-28,69,280,-356,677,301,143,100,227,640,710468
-170,8,92,-90,-79,-55,-362,-146,-32,20,-318,-138,238,-41,-42,11,97,153,190,-89,-93,-47,23,199,-283,690,230,107,92,177,500,710469
-199,8,99,-26,-52,-59,-272,-225,190,117,-201,-178,122,-190,-107,-89,54,112,204,-184,-327,-123,-3,188,-431,324,198,100,86,147,511,710470
-168,16,70,6,-33,-42,-162,-125,180,-89,-84,-168,77,-272,-147,-131,-21,17,117,-214,-339,-167,-60,79,-429,294,89,12,13,64,302,710471
-28,26,44,14,-9,-15,0,-37,1,40,63,-117,169,-272,-50,-16,-67,-55,-25,-84,-21,-113,-101,-55,-148,761,-27,-78,-58,-25,-40,710472
603,82,-145,-67,39,12,725,396,-242,39,514,271,-64,66,145,689,-252,-290,-635,615,1861,284,-260,-644,1362,3691,-616,-446,-423,-429,-1356,710473
1017,120,-253,-159,45,12,1134,589,-411,-27,490,481,-156,292,203,1199,-399,-440,-1144,1039,3321,536,-428,-1081,2384,6108,-1026,-759,-794,-773,-2057,710474
919,122,-230,-200,-2,-25,940,515,-346,-331,240,341,38,283,148,1180,-368,-369,-1145,934,3350,508,-431,-1019,2246,6349,-953,-759,-855,-751,-1702,710475
341,97,-33,-173,-53,-45,218,20,-114,-177,-142,15,69,5,-88,605,-167,-101,-594,315,1864,208,-267,-451,954,4179,-407,-422,-554,-383,-317,710476
-312,37,156,-101,-101,-92,-522,-220,132,-138,-541,-234,309,-134,-214,-110,65,178,153,-358,-125,-151,-47,227,-560,1066,257,41,-47,126,821,710477
-280,34,149,-40,-68,-81,-393,-95,122,-213,-250,-183,275,-44,-141,-121,93,177,253,-312,-285,-130,9,264,-568,681,289,120,79,209,673,710478
-220,40,116,-4,-54,-61,-248,-213,165,-252,-36,-105,35,36,-161,-116,53,125,202,-275,-260,-118,-4,185,-498,656,205,72,63,160,504,710479
-137,53,96,16,-21,-40,-104,-170,79,-230,53,-155,-13,-134,-116,-55,47,103,156,-192,-136,-70,3,141,-342,813,153,52,65,128,378,710480
-131,35,77,-1,-32,-46,-69,-11,-27,-163,181,-133,1,-104,-77,-53,48,96,167,-179,-140,-56,23,139,-319,763,155,64,78,128,398,710481
-89,38,80,-4,-7,-20,-8,-33,52,-142,-134,-15,18,11,-124,-28,22,58,119,-159,-88,-53,-14,94,-247,839,97,51,57,86,228,710482
165,45,12,-29,27,21,212,104,-79,-175,38,-41,114,47,-98,211,-98,-84,-179,92,592,51,-127,-192,313,1910,-186,-161,-114,-125,-373,710483
347,48,-48,-61,29,21,306,22,-155,-28,245,-67,83,10,-54,374,-197,-193,-452,243,1131,104,-228,-423,683,2835,-408,-346,-314,-307,-703,710484
446,56,-78,-85,28,17,401,97,-113,8,287,43,68,155,-23,516,-225,-212,-567,356,1519,182,-259,-515,941,3506,-500,-412,-408,-386,-875,710485
199,45,14,-67,-12,-18,164,58,62,31,171,72,169,-63,11,303,-120,-73,-310,114,921,67,-169,-246,426,2665,-232,-232,-277,-209,-242,710486
-221,21,125,-8,-47,-59,-265,-270,138,-100,-58,-100,354,-128,-75,-145,23,102,163,-314,-311,-167,-35,183,-528,733,192,64,32,106,599,710487
-157,26,90,8,-22,-47,-179,-174,90,-119,-32,-218,212,38,-102,-107,8,56,166,-234,-267,-142,-33,140,-429,737,157,56,74,107,383,710488
-128,31,84,15,-12,-39,-155,-74,60,-73,-109,-234,-94,-32,-54,-94,-8,40,132,-211,-241,-144,-44,97,-378,747,106,22,43,81,277,710489
-104,26,93,2,-6,-22,-176,-66,81,6,-271,-101,-44,-124,-69,-72,11,38,112,-177,-209,-114,-13,83,-334,761,87,30,43,71,229,710490
-79,3,70,-17,-12,-11,-169,66,91,60,-254,-151,113,-53,-5,-52,10,33,97,-141,-165,-89,-3,74,-281,797,86,39,40,65,210,710491
-26,16,72,-5,7,3,-120,61,97,115,-214,-148,280,-206,-64,-22,-17,18,60,-119,-104,-82,-22,39,-224,894,64,9,29,52,92,710492
58,37,42,15,16,6,-6,-41,2,102,160,-37,251,-110,-56,71,-27,-17,-3,-24,129,-17,-42,-35,-19,1250,-10,-36,-14,4,-183,710493
151,35,2,-19,-10,-13,130,-58,-158,-118,471,37,150,35,7,219,-78,-68,-149,105,550,60,-90,-165,289,1912,-152,-137,-118,-106,-314,710494
-21,25,46,-23,-27,-16,-62,-167,-87,-90,74,-81,48,-26,-1,52,-28,15,-17,-51,131,-25,-44,-14,-66,1296,-12,-41,-40,-22,55,710495
-45,23,66,-20,-6,3,-71,25,-30,-53,72,-76,-183,-35,-29,24,9,35,11,-70,52,-15,-15,19,-114,1140,36,-18,-1,18,143,710496
-74,16,78,3,-1,4,-128,-66,32,52,83,-56,116,63,-77,-12,49,62,68,-95,-74,-20,31,73,-206,910,81,25,41,60,224,710497
-77,19,62,6,-6,-10,-134,36,116,75,-128,-64,152,-7,-8,-26,32,52,92,-105,-103,-41,20,84,-200,846,80,45,45,52,206,710498
-88,5,55,-9,-14,-12,-152,72,31,-202,-103,-119,99,0,-95,-58,17,41,123,-132,-185,-64,2,96,-247,722,90,64,69,57,194,710499
-93,5,70,2,-10,-4,-121,94,48,-121,57,-68,-3,6,0,-59,22,55,127,-138,-214,-62,18,109,-265,657,104,66,88,70,182,710500
-89,6,75,7,-5,1,-107,7,8,-63,-107,-23,-27,-60,-33,-72,29,43,107,-135,-239,-61,11,97,-275,600,96,59,91,70,219,710501
-92,5,62,5,4,-17,-128,-236,54,-45,94,-55,22,-52,-53,-71,36,50,141,-132,-236,-50,34,119,-265,563,101,73,102,72,233,710502
-77,-5,47,13,-2,-21,-163,-322,213,-7,182,-37,27,-75,-22,-63,25,46,144,-120,-229,-52,42,113,-253,572,103,73,103,72,265,710503
-92,8,57,15,-8,-7,-195,-64,64,-86,-31,-15,232,-98,-27,-71,50,70,180,-125,-300,-64,66,161,-302,429,155,113,142,116,345,710504
-196,7,99,30,-9,-18,-261,-282,50,29,-197,-44,302,-34,-70,-183,107,136,298,-225,-618,-102,117,285,-532,-91,277,202,226,205,556,710505
-141,17,77,34,11,1,-126,-56,39,10,191,-50,106,221,-14,-126,94,102,261,-154,-496,-69,108,216,-391,49,209,165,216,178,285,710506
-62,-10,37,16,8,9,-37,-17,39,-26,-18,-29,-8,123,-26,-67,5,6,89,-97,-240,-71,24,58,-196,462,52,57,85,61,135,710507
-46,7,51,32,20,26,-90,-68,25,-226,132,-62,18,-140,-44,-63,5,14,102,-102,-251,-55,29,73,-219,448,63,70,89,66,157,710508
-59,11,39,37,8,2,-117,-138,37,-348,-13,-50,72,-185,-24,-93,-28,-18,81,-130,-279,-80,11,42,-240,432,36,42,57,32,61,710509
-55,11,27,35,1,-12,-90,-138,92,-213,-86,-53,146,-32,38,-72,19,11,95,-118,-246,-53,36,67,-211,450,73,61,83,57,78,710510
-19,-5,20,2,6,7,-45,-141,11,23,20,32,155,97,47,-4,49,45,90,-43,-129,1,70,83,-119,605,80,79,99,77,89,710511
-31,-12,19,-4,-5,-9,-66,-190,20,-13,135,-17,73,-23,-27,-29,53,60,112,-80,-177,-12,85,104,-166,503,95,85,94,86,86,710512
-269,-23,76,31,-27,-36,-343,-202,27,-111,44,-141,-15,-104,-84,-305,105,133,330,-340,-883,-175,124,318,-724,-602,292,209,221,221,602,710513
-313,-20,89,60,-16,-18,-367,-177,135,-54,67,-169,-31,-144,-31,-359,120,145,421,-357,-1084,-188,152,377,-806,-973,338,271,300,277,679,710514
-350,-34,99,77,-17,-14,-395,-97,160,-114,-46,-138,-155,30,-43,-411,130,147,441,-402,-1237,-214,158,390,-894,-1282,362,296,325,291,689,710515
-232,-26,59,76,7,2,-219,-20,112,-164,28,-46,-67,81,-21,-303,82,86,328,-255,-936,-142,115,268,-620,-895,244,222,277,215,356,710516
-21,-24,-17,43,17,23,32,12,-42,-42,38,-9,99,212,-28,-72,-3,-19,67,-20,-288,-33,38,22,-109,110,12,59,95,31,-110,710517
16,-5,-18,25,20,33,58,-26,-78,-66,-67,75,63,280,-73,-27,-4,-24,23,6,-136,6,48,-3,-22,350,-20,34,45,-15,-129,710518
-25,-18,-19,0,4,12,24,-106,-29,-47,34,26,-69,187,-14,-36,-5,-17,17,-11,-148,-4,35,12,-49,351,-2,29,46,-12,-88,710519
-58,-7,-6,0,-1,4,-80,-1,-4,97,53,65,-41,121,34,-47,-4,-1,49,-23,-172,-1,36,44,-60,316,38,46,64,25,-25,710520
-58,-5,-5,-2,-2,-4,-220,96,-128,132,9,69,74,226,65,-32,12,11,64,8,-139,7,43,60,-31,361,44,68,88,31,27,710521
-74,-20,1,-11,-9,-5,-370,-1,-23,97,-80,36,-97,119,14,-48,40,40,107,-14,-215,7,86,108,-84,252,97,97,117,67,151,710522
-154,-36,44,-7,-9,8,-411,-161,54,111,-243,-46,-223,-18,10,-147,110,96,240,-112,-513,-34,139,240,-332,-249,229,192,199,178,365,710523
-303,-26,109,64,8,22,-354,-243,103,96,-409,-54,57,-109,20,-344,173,181,440,-296,-1070,-134,198,422,-758,-1166,415,328,325,303,792,710524
-480,-39,131,120,-4,11,-411,-192,214,236,-374,-235,125,-245,-88,-606,178,187,574,-524,-1687,-294,214,535,-1214,-2174,509,382,395,363,1030,710525
-322,-15,91,135,31,38,-189,-199,97,122,-235,-202,20,-129,-146,-482,97,82,407,-393,-1366,-242,154,329,-891,-1764,300,258,316,244,467,710526
85,1,-16,85,69,79,260,147,36,120,212,-31,-49,79,9,-74,-58,-99,-39,-4,-248,-41,8,-84,-6,-23,-97,-11,50,-51,-326,710527
78,-21,-32,62,49,56,239,148,-74,150,6,-29,62,-88,-17,-84,-102,-126,-123,-43,-157,-73,-59,-136,-7,170,-159,-77,-49,-115,-241,710528
47,-11,-28,55,41,48,161,83,-87,124,13,-1,-29,-26,-89,-122,-88,-103,-84,-84,-225,-86,-49,-84,-91,79,-114,-55,-48,-90,-158,710529
19,-15,-27,29,20,29,66,189,-177,-68,-69,-16,-107,51,-43,-112,-50,-68,-20,-63,-217,-65,-18,-36,-81,108,-51,-11,-12,-40,-109,710530
-17,-3,13,41,28,26,8,-48,-74,59,-78,4,-405,-7,20,-121,13,-15,57,-87,-315,-60,29,49,-157,-61,37,50,55,35,24,710531
-54,-14,-3,23,13,5,-20,-108,-34,24,-195,3,-223,63,-24,-127,23,3,79,-98,-349,-59,27,82,-191,-147,60,75,83,57,97,710532
-467,-59,107,44,-31,-22,-546,-322,117,-46,-301,-232,-103,-102,-144,-565,170,205,506,-520,-1524,-286,174,503,-1143,-2027,479,351,343,340,1119,710533
-830,-90,189,102,-39,-36,-958,-626,275,-66,-529,-375,-71,-418,-182,-941,326,357,923,-837,-2649,-455,337,874,-1929,-3916,827,619,649,619,1666,710534
-817,-88,201,146,-1,-5,-943,-602,262,233,-375,-290,-76,-386,-126,-971,329,332,982,-817,-2797,-441,365,882,-1929,-4329,832,665,739,645,1561,710535
-468,-92,78,112,17,-1,-522,-181,136,171,-136,-15,-35,-23,14,-596,213,177,686,-405,-1897,-230,293,558,-1104,-3076,516,486,595,439,705,710536
104,-55,-97,47,55,34,230,201,-120,269,307,224,-327,158,124,48,15,-56,59,219,-157,116,107,-22,279,-378,-50,103,193,18,-370,710537
127,-19,-73,53,45,50,220,100,-111,374,280,175,-197,99,117,28,-36,-100,-71,163,-21,69,35,-102,269,-76,-125,3,43,-92,-337,710538
110,-24,-60,42,40,50,118,202,-35,233,115,72,53,75,136,-51,-45,-106,-78,76,-122,10,16,-82,145,-181,-122,-11,8,-105,-244,710539
84,-30,-48,42,33,35,121,186,-24,293,78,90,57,-26,88,-74,-35,-79,-39,31,-188,-13,34,-43,70,-271,-78,14,9,-78,-187,710540
79,-16,-42,64,40,52,208,149,94,247,-118,39,-180,-78,61,-74,-50,-87,-61,14,-168,-35,10,-73,56,-232,-90,-19,-28,-100,-167,710541
-3,-18,-25,70,23,31,169,269,20,47,110,-32,-145,-29,79,-140,-14,-44,8,-48,-335,-53,42,-2,-94,-474,-13,18,11,-38,23,710542
-359,-39,71,95,-11,-7,-257,-119,133,139,-27,-182,17,-111,-35,-514,98,107,364,-420,-1325,-258,137,347,-901,-2035,329,243,228,194,825,710543
-599,-69,125,106,-28,-19,-604,-411,208,149,-116,-263,65,-210,-112,-784,193,213,650,-644,-2107,-379,237,601,-1451,-3353,562,430,440,393,1236,710544
-698,-84,170,143,-10,14,-746,-518,194,202,-405,-282,-11,-268,-97,-901,262,267,821,-734,-2527,-425,320,739,-1721,-4166,696,550,595,510,1360,710545
-417,-70,74,151,31,40,-390,-414,85,153,-152,-28,-48,-124,42,-646,198,161,620,-422,-1894,-265,282,523,-1106,-3321,467,426,528,388,691,710546
160,-42,-119,69,61,48,336,209,-27,149,70,207,-172,126,96,-19,-28,-127,-37,174,-171,59,72,-101,263,-639,-141,11,102,-60,-573,710547
163,-30,-113,52,44,25,360,131,-95,-36,54,197,-143,106,106,8,-63,-139,-149,151,20,51,17,-166,315,-255,-192,-55,-28,-136,-488,710548
102,-10,-84,74,41,25,276,21,47,-235,277,173,-108,24,100,-28,-28,-82,-96,100,-66,32,52,-90,192,-344,-113,-18,-4,-85,-309,710549
105,-9,-95,42,23,25,232,128,-126,10,391,232,-201,159,109,19,6,-39,-71,139,23,67,73,-49,244,-187,-72,0,22,-54,-215,710550
49,-14,-94,29,-2,-9,156,-3,-161,147,214,166,-164,271,68,26,40,9,-25,125,-9,76,91,-5,202,-224,-21,41,58,-13,-143,710551
-5,-24,-85,9,-15,-37,98,-83,-116,-83,172,153,-234,249,45,-6,53,24,2,97,-74,64,91,26,135,-318,10,61,67,5,4,710552
-494,-55,107,70,-34,-31,-508,-357,168,-45,-366,-128,-125,44,-54,-554,215,237,519,-453,-1547,-229,251,535,-1057,-2638,504,387,377,363,1113,710553
-730,-93,177,122,-26,-9,-767,-527,324,29,-333,-240,38,-48,-145,-896,282,295,820,-737,-2478,-406,327,788,-1700,-4223,733,562,594,564,1436,710554
-579,-85,139,157,24,41,-549,-365,259,273,-373,-125,-20,-218,-99,-815,216,202,721,-610,-2272,-356,291,642,-1433,-4049,594,494,562,471,1052,710555
-225,-57,13,146,54,62,-96,-135,133,-23,-145,43,32,-54,8,-450,99,40,385,-226,-1327,-167,183,283,-628,-2671,246,285,366,225,157,710556
187,-17,-99,97,79,75,364,129,-130,-70,357,157,-127,-7,114,2,-33,-112,-53,206,-76,78,48,-112,334,-724,-129,19,76,-67,-620,710557
161,-27,-99,47,54,48,273,168,-180,-75,122,51,-102,-8,64,25,-31,-82,-83,181,20,82,46,-103,329,-510,-113,-12,13,-89,-407,710558
110,-27,-83,29,45,31,195,161,-105,214,45,139,-172,-89,125,44,27,-29,-44,179,29,95,99,-48,298,-493,-68,26,23,-52,-279,710559
103,-22,-81,16,32,31,172,102,-140,248,52,126,-17,22,115,33,17,-38,-65,164,48,82,71,-65,294,-444,-81,10,-12,-71,-226,710560
112,-27,-76,7,28,36,197,-44,-25,23,44,87,74,80,7,37,-15,-40,-80,154,72,77,23,-72,301,-358,-89,-15,-30,-71,-281,710561
72,-22,-51,32,15,36,172,73,18,33,-141,143,-26,20,31,-7,-7,-30,-43,104,-27,43,9,-34,203,-487,-42,0,-21,-49,-183,710562
-144,-39,6,57,-5,7,-61,0,98,92,-60,61,-3,-210,26,-251,44,37,109,-135,-595,-97,60,123,-276,-1358,120,106,66,64,279,710563
-276,-45,39,56,-10,-14,-241,-95,153,59,-106,9,-110,-6,-34,-366,117,113,304,-239,-967,-127,133,279,-530,-1990,262,225,209,186,459,710564
-281,-56,28,49,-11,-13,-297,-20,66,-136,-101,35,-155,9,3,-360,138,118,347,-219,-1025,-120,160,308,-537,-2132,294,255,259,231,419,710565
-132,-39,-14,53,11,2,-138,80,-27,-43,-145,101,-220,49,33,-219,89,53,198,-64,-674,-44,129,180,-238,-1624,163,166,193,133,82,710566
83,-6,-65,30,34,23,117,158,-80,-28,-277,172,-124,84,26,23,21,-37,-46,164,-18,82,73,-42,267,-595,-51,20,37,-21,-305,710567
83,-16,-72,9,17,19,132,234,12,246,35,120,-160,-11,36,48,23,-25,-78,159,60,93,58,-43,301,-426,-58,17,9,-34,-276,710568
96,-8,-53,5,18,34,152,222,116,303,58,178,-6,52,1,88,52,11,-54,191,127,116,80,-13,344,-307,-24,29,39,-7,-191,710569
82,-8,-60,4,16,35,151,112,25,48,201,66,-16,41,77,70,13,-20,-73,184,122,96,39,-39,313,-269,-46,4,13,-25,-193,710570
83,1,-37,14,33,48,131,214,55,3,37,94,6,-19,1,42,-15,-43,-103,146,95,57,6,-65,275,-262,-85,-26,-18,-50,-173,710571
50,-4,-31,11,27,51,78,233,32,-207,200,115,-64,53,86,-4,-19,-39,-94,95,34,25,-2,-52,210,-341,-68,-33,-26,-52,-3,710572
-235,-44,39,18,-9,18,-281,-67,160,38,-243,-62,-48,-108,40,-322,70,74,184,-231,-793,-147,65,219,-466,-1636,200,141,134,128,535,710573
-398,-53,81,57,-5,9,-463,-61,155,154,-646,-124,-72,94,6,-510,179,185,430,-389,-1383,-224,176,426,-889,-2661,420,308,323,308,779,710574
-266,-37,34,60,10,18,-284,-66,63,54,-168,-28,-44,52,3,-362,181,162,389,-218,-1109,-109,207,371,-606,-2344,357,295,336,288,540,710575
-110,-26,-25,59,18,17,-69,-124,-1,3,55,24,65,67,57,-197,114,80,215,-44,-649,-25,166,194,-217,-1686,170,188,222,157,122,710576
136,-9,-94,15,39,28,226,30,-104,-136,-5,170,-62,166,117,79,-10,-67,-87,211,142,107,32,-101,392,-459,-115,-1,20,-52,-358,710577
169,-10,-71,8,41,40,212,77,-5,-135,-65,169,-112,55,113,128,-5,-42,-105,236,274,137,9,-102,445,-215,-95,-3,-13,-51,-321,710578
129,-3,-60,19,32,25,174,127,14,-64,101,110,-125,76,109,109,13,-19,-92,195,246,119,26,-68,386,-257,-63,-15,-18,-36,-224,710579
71,-9,-62,5,23,16,92,209,5,5,75,5,62,90,4,59,5,-15,-81,137,144,72,6,-57,279,-377,-58,-14,-35,-42,-153,710580
44,-16,-61,-22,7,-1,44,194,13,16,240,34,198,52,15,29,9,-13,-39,100,91,50,14,-31,230,-454,-33,3,-19,-32,-94,710581
18,-23,-46,-29,0,3,44,138,-14,44,-91,95,-59,139,35,0,8,-8,-17,68,18,25,14,-18,166,-545,-16,12,-13,-22,-74,710582
-28,-5,-15,15,14,12,17,103,-111,102,-202,126,-77,5,-33,-45,44,27,29,3,-140,2,40,46,43,-800,44,53,24,25,25,710583
-81,-3,-10,33,10,5,-55,14,-144,23,-411,17,-190,81,-15,-106,37,33,46,-51,-291,-36,27,61,-80,-1021,63,57,37,42,38,710584
-18,-13,-53,8,0,-5,2,-145,-34,46,162,-12,-81,304,44,-43,18,9,-4,33,-108,7,23,7,69,-749,4,25,19,15,-45,710585
4,-36,-65,-16,-11,-11,-9,-99,-44,102,-34,94,-135,54,62,24,50,32,-2,107,10,68,47,32,184,-569,20,43,42,27,-20,710586
54,-12,-49,-12,10,5,41,-28,-147,28,254,189,-107,118,55,111,65,51,4,191,158,139,69,40,316,-332,40,47,72,49,-55,710587
57,6,-49,-13,8,-4,108,-100,-60,162,98,194,-77,369,23,111,30,12,-52,182,209,105,42,-18,342,-188,-21,-7,18,-5,-145,710588
17,15,-23,8,18,5,101,-61,-25,142,-85,77,-122,269,3,35,22,-4,-43,90,78,45,26,-5,224,-352,-8,-6,10,-7,-32,710589
-18,-8,-15,3,4,11,24,-50,-116,53,-50,-5,-131,20,-21,-52,-30,-32,-64,6,-74,-25,-23,-16,95,-554,-36,-25,-16,-38,-59,710590
34,-9,-23,5,15,25,53,39,-40,-27,172,-6,-73,-180,19,-36,-98,-93,-148,17,26,-30,-90,-98,172,-360,-128,-102,-89,-112,-199,710591
53,-8,-21,-12,15,43,82,170,-21,144,-14,52,-60,-10,13,-8,-89,-94,-170,45,91,-22,-101,-120,215,-236,-136,-119,-109,-121,-235,710592
105,5,-26,-18,19,38,146,45,66,192,147,145,68,-96,51,77,-58,-76,-169,129,270,49,-69,-133,341,-2,-141,-102,-104,-116,-262,710593
110,17,-18,-1,27,29,133,96,76,26,158,151,51,-43,116,106,-2,-22,-113,143,276,75,-10,-79,321,-20,-80,-52,-62,-58,-159,710594
185,5,-55,-16,26,7,186,209,41,-16,128,126,-40,43,6,149,-44,-64,-186,204,473,97,-51,-161,454,278,-153,-115,-123,-116,-327,710595
151,-1,-60,-17,18,11,136,86,-131,-78,-66,4,16,-26,-5,105,-53,-73,-194,131,395,48,-74,-154,357,197,-145,-125,-160,-123,-261,710596
25,19,2,6,21,19,6,-89,186,25,-165,1,2,65,42,-9,32,24,-14,4,11,4,13,25,50,-409,19,1,-36,10,122,710597
-4,12,-1,11,16,-3,10,-57,132,193,208,27,-148,52,19,2,64,58,43,26,-37,24,46,68,39,-495,66,46,18,59,118,710598
8,0,-13,4,4,-1,20,73,-36,147,139,92,-94,-33,10,22,50,42,9,43,16,36,29,29,98,-424,32,28,5,26,65,710599
19,-1,-6,3,3,4,24,-18,49,-59,-165,90,-160,-112,46,25,19,23,-25,42,29,26,-16,-9,97,-408,-7,-8,-16,-10,-21,710600
42,3,1,3,7,3,98,2,67,-93,54,58,-117,-137,3,41,8,4,-47,64,104,47,-19,-30,143,-311,-29,-18,-37,-16,-66,710601
22,5,-25,-13,1,-14,126,-109,-47,28,148,-75,75,-69,-29,17,-19,-28,-81,42,94,12,-43,-60,123,-302,-64,-53,-62,-44,-47,710602
36,4,-29,-3,0,-6,107,-15,-80,9,27,-19,153,88,-28,16,-33,-52,-105,42,120,7,-45,-102,155,-233,-104,-80,-91,-78,-160,710603
52,-14,-32,-15,-2,-6,40,252,42,-94,228,37,2,23,8,37,-57,-75,-125,52,184,-2,-46,-125,185,-114,-126,-102,-113,-95,-230,710604
134,-6,-36,-35,7,9,77,225,58,-164,187,83,1,87,1,125,-70,-82,-174,122,380,41,-79,-164,351,213,-164,-121,-133,-112,-245,710605
126,-4,-35,-34,4,18,89,198,-27,-30,287,24,134,65,-7,144,-53,-63,-169,147,427,69,-68,-140,375,322,-133,-104,-124,-104,-155,710606
-64,-19,5,-31,-26,-9,-135,-97,61,-92,153,-24,-58,-109,-58,-38,19,22,-3,-37,-56,-22,-7,39,-13,-424,37,5,-14,7,175,710607
-16,-4,-5,-44,-25,2,-99,-125,101,-121,167,128,-145,103,14,59,54,47,13,77,95,52,52,46,147,-217,40,37,36,33,6,710608
-23,-8,-15,-56,-29,-14,-140,-106,10,9,-70,141,0,168,127,64,55,47,19,82,103,61,53,45,159,-200,49,46,46,38,31,710609
24,4,2,-16,4,14,-116,-150,80,-54,-85,132,91,111,27,79,25,21,-29,89,145,57,25,12,193,-128,15,9,18,15,-59,710610
64,5,5,-19,11,20,-24,-67,49,34,133,99,211,82,25,89,-8,-3,-67,119,235,73,-12,-25,256,15,-15,-30,-10,-10,-85,710611
84,12,-2,-5,18,27,65,36,44,175,193,51,276,-24,47,81,-35,-32,-107,96,243,48,-34,-62,250,69,-72,-60,-58,-58,-109,710612
139,43,-16,23,36,36,184,152,-105,-10,191,11,151,-8,30,126,-58,-64,-166,121,351,45,-61,-138,344,286,-144,-114,-111,-111,-274,710613
191,42,-44,3,10,13,261,87,-57,-36,-7,3,108,-16,-1,185,-90,-93,-232,174,554,78,-91,-213,463,622,-215,-163,-170,-174,-418,710614
157,32,-35,-12,-14,-12,245,52,-76,-79,79,22,99,78,34,179,-56,-52,-190,166,519,79,-65,-160,415,585,-154,-131,-159,-125,-331,710615
102,36,-17,-5,-7,-12,176,50,-91,-88,184,-90,3,-17,16,115,-37,-33,-145,90,371,41,-55,-101,267,353,-97,-102,-133,-92,-108,710616
11,38,7,1,2,-8,27,-33,87,-85,126,-126,1,-186,61,7,-6,-3,-33,-27,76,-24,-17,-19,31,-118,-13,-39,-68,-26,97,710617
-20,25,1,-10,-8,-9,-8,-8,-7,-110,-146,-12,6,-35,-2,-18,-22,2,-16,-37,10,-27,-16,-1,2,-225,0,-22,-52,-2,95,710618
-26,40,16,9,-2,-2,18,-43,-2,48,-165,7,49,-51,-44,-19,-15,10,3,-18,7,-12,-34,9,13,-258,14,-7,-38,16,68,710619
-44,37,19,9,-3,-7,-5,-109,-11,-79,-189,-46,-101,82,-117,-22,-1,13,10,-30,-23,-21,-18,6,-18,-313,16,-3,-20,30,77,710620
-42,39,16,13,-6,-15,-43,-93,-9,-26,123,-42,-7,138,-11,20,58,62,55,19,-15,25,42,67,3,-316,67,48,45,69,90,710621
-53,35,4,-1,-7,-30,-70,-190,54,-115,122,-12,40,72,-29,22,58,70,47,7,-29,18,51,62,-7,-356,67,46,36,63,87,710622
-48,32,5,-9,-1,-18,-70,32,-10,-194,-203,50,23,105,-13,16,52,64,50,6,-53,15,45,62,-12,-386,61,51,40,62,97,710623
-44,19,4,-4,-11,-11,-40,-41,59,-127,19,-42,93,51,34,-10,36,38,47,-11,-88,-15,39,54,-28,-431,51,44,40,45,109,710624
-67,27,14,0,-11,-16,-33,-22,153,-40,-60,-13,41,102,35,-49,41,30,63,-36,-159,-26,41,76,-69,-535,71,49,50,62,195,710625
-69,32,27,18,-5,-12,-42,-62,125,-89,-148,-29,10,204,-53,-66,37,29,81,-52,-190,-18,32,78,-93,-608,83,56,66,67,180,710626
14,29,3,20,14,15,37,-195,-13,95,51,-26,-93,66,-77,-4,-17,-27,-23,22,16,6,-19,-25,75,-279,-23,-14,-1,-20,-6,710627
51,41,9,27,28,48,70,-14,-71,33,112,12,-5,-25,87,42,-19,-19,-48,62,126,28,-11,-47,167,-105,-36,-42,-17,-34,-62,710628
26,27,2,0,21,30,53,49,-84,21,-16,3,113,41,66,52,-7,-10,-50,55,124,31,-23,-31,157,-85,-31,-33,-21,-37,-60,710629
15,15,-11,-11,0,-1,82,80,5,-71,-191,-17,76,32,-32,57,-7,-10,-49,55,137,45,-18,-33,163,-54,-33,-24,-19,-41,-82,710630
30,34,-4,-23,1,12,102,36,-46,-59,-108,71,-13,35,-35,68,-9,-22,-57,67,171,47,-20,-46,181,-3,-36,-32,-36,-47,-71,710631
14,23,10,-27,-2,22,-15,46,-15,-15,-243,19,98,36,-51,8,-36,-36,-66,2,66,-8,-44,-49,79,-129,-46,-50,-62,-65,-99,710632
-282,-14,114,4,-8,16,-443,-226,84,-108,-381,-227,239,-125,-66,-367,47,86,231,-373,-876,-226,32,243,-693,-1588,254,128,106,122,729,710633
-578,-21,192,79,-28,-13,-773,-355,270,112,-363,-376,233,-272,-143,-698,220,269,669,-648,-1892,-357,215,630,-1415,-3291,628,421,433,442,1402,710634
-600,-46,145,77,-46,-35,-712,-356,208,42,-297,-226,301,26,-116,-665,282,291,757,-578,-1964,-308,293,667,-1371,-3567,657,495,541,508,1266,710635
-372,-29,99,82,-1,-2,-414,-176,165,390,-138,20,111,207,-46,-427,237,220,587,-316,-1417,-144,272,499,-858,-2837,482,412,473,404,769,710636
88,-17,-56,33,36,23,141,141,-1,194,178,141,-104,74,23,18,-6,-46,13,109,-128,54,46,-41,170,-816,-42,22,100,2,-273,710637
162,-8,-75,14,36,31,231,63,-37,193,232,132,-3,245,55,83,-84,-121,-174,126,187,49,-44,-191,327,-253,-200,-102,-75,-140,-349,710638
132,17,-35,25,37,34,177,83,-47,168,161,54,196,311,57,46,-58,-82,-119,84,133,34,-30,-124,224,-293,-130,-65,-68,-110,-206,710639
82,11,-33,5,17,-4,86,-66,-79,45,244,3,-161,200,104,27,-29,-44,-65,60,80,30,-2,-62,172,-341,-56,-26,-34,-59,-133,710640
49,8,-32,-8,11,-2,-45,-97,-231,128,141,79,-191,38,95,20,-8,-26,-65,54,62,24,-1,-51,145,-364,-44,-28,-28,-41,-123,710641
50,20,-8,-5,23,16,-143,54,-68,86,177,158,-91,0,72,42,16,5,-36,58,71,63,12,-5,150,-343,2,-1,0,11,-15,710642
-301,-13,87,2,-17,4,-582,-210,148,-127,-175,-125,-158,14,-1,-314,129,160,321,-291,-886,-134,110,353,-628,-1842,351,222,213,246,775,710643
-615,-38,191,92,-11,8,-807,-294,288,62,-172,-246,153,-74,-70,-736,256,289,725,-662,-2046,-353,244,699,-1483,-3746,681,473,487,498,1434,710644
-659,-54,186,169,13,18,-718,-484,203,205,-495,-318,251,-336,-85,-881,263,278,838,-760,-2458,-418,285,751,-1720,-4519,730,538,579,541,1500,710645
-457,-43,95,160,33,28,-399,-211,68,152,-153,-245,219,-77,-42,-685,185,164,666,-531,-1975,-317,246,540,-1240,-3901,513,438,498,421,911,710646
161,13,-95,100,79,62,372,178,-82,45,399,113,25,107,110,8,-11,-93,19,160,-142,56,66,-70,239,-1095,-88,42,119,-17,-438,710647
195,10,-95,55,71,54,347,148,-144,-168,163,113,-3,-8,93,48,-59,-121,-142,154,98,53,-23,-161,325,-644,-167,-72,-30,-141,-367,710648
184,-10,-91,9,45,43,296,125,-218,-33,76,26,-68,-57,84,51,-74,-128,-187,140,164,48,-46,-174,322,-503,-181,-107,-88,-162,-350,710649
195,7,-65,7,45,41,311,143,-93,151,-2,126,-10,46,63,102,-21,-65,-140,186,255,86,3,-130,373,-346,-135,-71,-76,-125,-234,710650
99,14,-55,30,26,9,201,182,-151,186,-107,75,-44,157,55,46,24,1,-40,121,88,64,42,-34,214,-583,-27,-4,-19,-49,-82,710651
74,22,-47,51,26,2,151,80,-93,135,132,90,-102,100,58,40,41,11,0,122,45,80,62,-20,182,-640,0,19,8,-24,-37,710652
-342,-29,46,43,-32,-43,-360,-384,36,22,-78,-46,49,-78,-81,-407,113,131,289,-341,-1054,-186,124,290,-744,-2288,304,184,168,157,843,710653
-823,-68,207,120,-34,-33,-953,-631,166,138,-338,-281,21,-181,-112,-998,259,312,845,-885,-2676,-507,268,798,-1959,-4919,783,524,541,532,1737,710654
-734,-90,187,140,7,13,-872,-488,191,323,-491,-275,118,-132,-97,-982,236,250,855,-810,-2697,-479,277,762,-1844,-5139,718,537,600,533,1356,710655
-394,-69,82,114,39,54,-500,-206,234,259,-256,-86,-15,40,-28,-627,157,127,586,-425,-1833,-261,218,474,-1071,-3931,430,388,483,350,620,710656
94,-54,-80,36,65,74,77,200,-9,153,161,221,-202,122,43,-68,13,-62,69,139,-311,57,111,-12,139,-1613,-38,74,172,7,-401,710657
185,-40,-106,-11,46,53,245,274,-90,92,208,302,-135,143,15,86,-33,-106,-138,233,173,121,45,-149,433,-793,-173,-46,-1,-113,-483,710658
131,-16,-74,15,44,43,262,-166,-19,62,96,170,32,3,22,43,-28,-75,-93,153,78,81,25,-83,307,-857,-111,-11,-14,-74,-350,710659
146,4,-63,46,46,51,308,-99,-48,32,269,208,211,-11,100,36,-35,-77,-96,138,110,72,11,-91,301,-771,-107,-35,-44,-79,-310,710660
126,1,-57,28,37,53,301,-60,-80,128,73,78,54,17,60,13,-55,-94,-138,95,108,44,-17,-130,256,-738,-144,-72,-94,-117,-282,710661
83,-8,-45,20,26,39,250,48,-136,-44,177,3,-118,-31,22,-27,-37,-78,-109,45,13,30,-10,-96,159,-854,-113,-51,-76,-101,-181,710662
-9,-13,-23,30,7,18,109,-123,-13,-24,-7,-112,-53,-156,-3,-147,-25,-37,-26,-65,-270,-49,-7,-11,-81,-1270,-18,-13,-25,-38,18,710663
-206,-25,29,40,-4,2,-205,-121,100,100,-124,-155,93,-53,-52,-356,58,49,194,-275,-857,-159,72,192,-536,-2202,186,118,116,109,455,710664
-234,-24,58,55,8,18,-292,-59,87,125,-226,46,-64,-155,39,-358,120,83,280,-260,-977,-131,136,261,-582,-2461,243,180,199,164,421,710665
-124,-37,10,38,18,12,-128,-65,121,18,-213,107,-193,-83,71,-253,56,21,167,-125,-688,-72,91,136,-325,-2067,120,102,138,92,143,710666
142,-27,-91,4,30,17,232,227,-4,92,88,155,-55,35,102,45,-49,-103,-101,162,122,77,-5,-139,304,-814,-152,-72,-49,-106,-400,710667
173,-21,-96,-8,23,3,249,119,-19,118,116,94,-17,-84,70,91,-63,-98,-148,188,266,89,-26,-164,374,-550,-160,-83,-93,-131,-335,710668
172,-3,-75,9,25,20,241,93,11,15,329,107,-229,-55,71,102,-57,-85,-157,184,279,92,-28,-156,364,-484,-156,-91,-108,-129,-254,710669
130,9,-67,12,20,21,220,-28,60,91,391,115,-140,101,7,72,-43,-83,-143,138,205,67,-38,-136,282,-554,-139,-94,-108,-111,-204,710670
74,10,-65,13,4,-3,146,-110,119,28,146,10,-91,43,-17,56,6,-42,-88,115,125,61,-1,-84,205,-666,-76,-49,-62,-70,-107,710671
93,17,-71,2,10,-5,161,-41,52,-46,152,20,-157,109,32,136,60,24,-23,192,230,133,57,-30,304,-539,-14,19,1,-12,-89,710672
2,2,-52,-8,-7,-19,71,-52,85,-45,-97,-76,-105,339,14,56,58,49,22,107,71,90,63,24,146,-767,33,37,27,19,25,710673
-135,-17,-12,-1,-11,-13,-101,-130,53,-99,-166,-75,92,291,-62,-124,61,59,129,-60,-341,-21,66,124,-178,-1401,129,96,82,93,283,710674
-152,-7,-5,24,-2,-2,-104,-187,-39,-36,-136,35,-124,18,17,-148,84,71,170,-89,-461,-39,89,162,-246,-1616,156,123,125,128,334,710675
-98,-15,-24,10,-15,-13,-40,-176,-37,-99,101,122,-153,-45,113,-86,79,60,137,-25,-318,16,85,122,-115,-1415,111,103,118,106,235,710676
27,-18,-52,-10,-13,-1,76,57,-182,-190,91,76,-19,90,58,46,23,-8,10,110,61,98,46,-15,173,-828,-22,27,32,4,-136,710677
52,-15,-45,-8,-3,5,14,-3,-41,-259,49,-21,-81,-156,87,23,-34,-59,-91,67,116,49,-31,-103,185,-697,-91,-54,-50,-89,-228,710678
34,-30,-37,-29,-2,3,-69,-98,39,-105,26,47,-122,-2,55,3,-30,-49,-64,27,58,31,-27,-69,119,-772,-58,-48,-42,-55,-159,710679
53,-16,-21,-18,9,16,42,147,71,121,211,89,-19,-29,28,50,12,-14,-22,79,134,69,23,-33,173,-677,-32,-1,-7,-26,-111,710680
49,-17,-53,-11,0,-2,123,260,34,-9,-40,35,-82,-16,24,16,-27,-58,-85,41,129,34,-12,-91,150,-641,-86,-52,-68,-90,-164,710681
77,-7,-45,-8,-3,7,184,231,-64,118,-12,78,-125,-31,82,42,-26,-67,-110,77,197,40,-29,-109,195,-528,-115,-73,-86,-99,-208,710682
83,-7,-49,-12,-8,-4,189,172,-54,104,217,46,-80,55,59,49,-34,-63,-105,75,223,51,-30,-108,207,-467,-107,-70,-81,-91,-158,710683
29,12,-22,11,5,0,72,-128,-128,81,-44,-10,-113,38,29,11,19,8,-4,40,72,46,20,-16,99,-697,-10,-2,-21,-14,-32,710684
37,6,-26,2,5,9,35,9,-125,87,-45,22,95,65,-13,25,4,-5,-29,57,110,50,1,-31,120,-636,-23,-18,-28,-24,-114,710685
1,-10,-14,-18,0,2,-18,-67,10,109,-28,108,-10,-14,-6,-16,10,1,-11,16,-4,19,-7,-4,26,-794,-2,-6,-11,-1,-72,710686
50,-7,-20,-15,7,13,57,202,9,13,-51,70,40,122,64,55,3,-13,-29,75,107,40,-5,-38,132,-616,-38,-10,-23,-16,-128,710687
99,-2,-35,-10,10,13,113,152,-21,80,-180,-34,22,14,-2,64,-32,-49,-80,74,175,31,-40,-89,174,-478,-86,-55,-70,-52,-160,710688
85,-3,-27,-8,1,1,104,146,78,69,-46,13,-99,-2,-35,40,-41,-53,-91,52,154,2,-60,-93,139,-495,-89,-69,-91,-65,-143,710689
84,0,-47,-16,-2,-11,129,269,-82,134,130,5,-30,98,86,57,-44,-51,-110,80,220,3,-52,-116,191,-391,-94,-82,-97,-75,-181,710690
92,5,-54,-13,-9,-12,97,198,-121,-92,-40,21,-144,137,74,108,-17,-27,-82,109,275,34,-9,-87,244,-296,-87,-49,-67,-47,-197,710691
103,-5,-77,-52,-33,-39,88,71,-97,-66,-131,35,-333,134,100,192,-15,-22,-121,173,435,88,-18,-105,362,-31,-98,-66,-90,-44,-204,710692
15,-17,-56,-83,-59,-48,-40,100,78,141,-128,13,-261,17,105,125,15,25,-60,119,276,84,1,-23,227,-265,-19,-18,-39,16,-89,710693
58,-13,-35,-84,-17,-13,9,204,-63,22,195,163,-184,89,97,175,19,16,-77,167,394,124,1,-49,321,-87,-47,-33,-44,-4,-134,710694
88,2,-25,-37,10,21,47,243,19,-118,182,90,-111,76,48,113,-41,-42,-135,102,355,78,-54,-100,253,-104,-104,-94,-94,-67,-168,710695
46,-6,-8,-12,19,26,16,187,-43,-69,-164,45,-73,-246,-46,-10,-85,-75,-147,-13,137,-15,-95,-121,58,-381,-123,-127,-136,-106,-119,710696
27,18,19,24,21,41,89,16,-48,49,-78,85,-60,72,-33,0,-14,-5,-57,10,65,15,-33,-32,15,-525,-28,-52,-47,-25,-72,710697
71,29,1,38,9,27,221,36,85,-78,149,62,-44,121,59,98,6,3,-62,120,266,76,-15,-47,196,-245,-43,-41,-28,-24,-138,710698
44,19,-26,14,-11,-5,200,161,30,-241,95,61,-182,55,46,121,-4,-4,-84,129,331,85,-6,-63,237,-144,-71,-52,-49,-45,-96,710699
-3,4,-19,-14,-13,-13,128,177,-79,-189,98,-14,65,163,6,117,41,39,-26,132,275,103,40,6,197,-234,-10,-2,-8,-3,49,710700
-2,-17,-24,-46,-20,-8,100,296,55,-111,97,53,113,112,-2,98,14,13,-34,110,242,83,11,-11,168,-272,-20,-12,-26,-21,-41,710701
46,-4,-1,-23,2,32,94,41,51,-8,-121,-54,63,-7,-5,65,-29,-25,-49,79,218,41,-28,-44,142,-294,-53,-31,-50,-58,-122,710702
151,-5,-17,-6,19,42,159,-182,-61,147,14,-91,-2,31,-8,113,-73,-81,-161,120,385,51,-83,-148,270,10,-162,-115,-126,-138,-232,710703
144,-5,-34,-14,-4,12,130,97,-5,29,111,29,-99,-11,-49,143,-61,-53,-165,135,438,83,-87,-132,292,112,-139,-109,-122,-110,-208,710704
150,14,-51,-27,-4,0,148,237,-121,-175,203,31,-41,44,-17,222,-42,-23,-161,189,573,130,-63,-137,403,325,-133,-86,-112,-104,-292,710705
100,13,-40,-38,-25,-4,117,-115,-40,-24,186,-7,-164,35,55,204,-28,-2,-134,167,531,112,-40,-105,348,287,-98,-68,-101,-90,-188,710706
-12,2,-7,-33,-34,-11,-18,-123,-102,-109,-111,-18,-128,95,53,85,26,46,-12,41,207,54,6,16,89,-195,19,-2,-33,1,66,710707
44,-8,-19,-41,-18,-8,29,40,-131,44,-130,-46,-90,163,-73,130,28,42,-17,89,293,90,5,-6,182,-58,3,-2,-17,11,-74,710708
41,-17,2,-51,-15,2,-54,33,-2,56,151,-87,-45,29,-95,97,27,56,8,51,210,62,17,18,114,-186,29,15,-3,43,15,710709
16,-17,25,-41,2,13,-138,16,31,37,39,-49,-18,-145,-23,41,48,68,55,-21,51,22,24,60,-8,-447,67,44,27,81,115,710710
26,-45,7,-32,-5,6,-90,66,1,19,-75,-55,120,-172,-45,-24,-41,-37,-48,-76,27,-38,-53,-42,-29,-444,-48,-50,-55,-12,-77,710711
53,-31,8,-1,9,24,40,64,-25,1,-219,-51,139,-160,-79,-16,-88,-91,-110,-64,114,-50,-99,-109,31,-316,-123,-103,-103,-70,-237,710712
380,14,-92,-8,31,50,503,436,-146,65,105,143,-121,103,8,359,-174,-216,-411,314,1084,166,-182,-399,824,1205,-404,-290,-277,-265,-886,710713
632,44,-178,-40,30,34,804,468,-194,-23,198,255,-135,128,50,665,-265,-311,-756,589,1965,318,-276,-686,1451,2687,-673,-495,-519,-480,-1333,710714
580,58,-149,-65,20,5,696,202,-238,-72,259,140,-198,-90,44,661,-255,-252,-728,559,1954,314,-287,-626,1366,2804,-605,-476,-523,-450,-1071,710715
322,45,-73,-77,-21,-28,362,35,-112,-84,143,-72,-171,33,56,441,-164,-126,-464,332,1373,195,-219,-381,848,1982,-356,-327,-379,-280,-484,710716
-70,28,48,-35,-50,-43,-154,-40,48,-114,-228,-180,111,-41,-33,35,-1,60,-10,-54,220,-8,-69,44,-63,196,56,-38,-97,15,358,710717
-95,13,62,-29,-39,-23,-268,-52,75,-76,-229,-142,81,-249,-132,-20,51,94,87,-70,-24,-21,-15,119,-178,-221,137,30,11,85,285,710718
-59,-18,54,-54,-27,1,-274,-59,39,-156,-60,-141,91,-84,-114,-12,47,81,88,-49,-33,-10,-7,96,-146,-278,111,29,39,73,224,710719
-12,-33,39,-42,-20,18,-175,-41,-13,-122,-368,-181,30,7,-41,-26,0,23,31,-55,-28,-32,-40,37,-131,-285,45,-13,-3,14,163,710720
44,3,43,16,7,31,-11,-124,59,-162,-200,-171,-17,74,-53,4,-7,3,-4,-22,29,-24,-27,9,-77,-214,2,-36,-18,-14,65,710721
34,9,16,12,-4,11,67,-111,59,-124,-65,-142,91,19,-29,35,-15,1,-34,16,93,-15,-11,-33,-16,-125,-41,-64,-35,-50,4,710722
262,8,-73,-17,5,-6,390,253,-30,-59,402,190,18,-32,59,327,-90,-97,-272,311,846,159,-81,-271,591,1028,-278,-194,-170,-200,-560,710723
523,28,-144,-68,17,12,644,310,-138,-188,445,190,-91,-71,65,643,-184,-203,-578,601,1747,329,-194,-531,1262,2495,-531,-366,-379,-397,-1066,710724
516,37,-122,-108,-2,8,567,362,-111,-248,418,71,-187,6,41,668,-206,-201,-634,561,1859,302,-232,-554,1280,2805,-549,-413,-449,-424,-1014,710725
351,36,-34,-88,-8,13,307,319,-195,-285,135,-57,67,-58,8,479,-156,-118,-473,332,1382,191,-199,-390,829,2184,-376,-318,-379,-329,-587,710726
-71,-10,81,-55,-49,-22,-231,-90,15,-52,-137,-174,220,-99,-86,-17,-37,32,-68,-161,123,-79,-94,-1,-189,266,3,-71,-146,-49,233,710727
-78,-15,76,-30,-42,-7,-190,-85,149,-129,-19,-52,142,69,-42,-30,-11,39,0,-143,41,-60,-63,29,-184,78,21,-34,-67,9,175,710728
-111,-15,60,-12,-45,-29,-166,-171,61,-226,66,-70,196,62,3,-53,-7,38,40,-158,-55,-75,-47,44,-227,-99,50,-4,-24,37,172,710729
-107,-15,40,1,-38,-46,-149,-165,14,-234,-83,-188,62,56,11,-63,-10,31,47,-155,-88,-74,-46,40,-226,-177,43,-9,-8,50,184,710730
-115,-32,26,-16,-43,-41,-136,-74,77,-96,-96,-89,13,-31,7,-65,21,49,93,-140,-126,-47,-15,82,-220,-275,89,36,37,82,165,710731
-45,-31,43,-10,-13,-16,-88,4,60,55,-197,-16,112,-30,-27,2,32,61,111,-71,-23,-6,11,97,-108,-154,96,63,70,111,103,710732
300,-13,-34,-34,24,30,266,226,-111,-14,114,132,-51,-35,9,312,-106,-114,-228,238,837,134,-112,-240,596,1198,-239,-158,-153,-131,-655,710733
543,2,-124,-99,6,17,497,428,-211,-79,139,176,-87,70,83,606,-236,-254,-610,494,1721,273,-251,-581,1235,2696,-557,-411,-424,-401,-1165,710734
442,14,-109,-122,-35,-13,309,446,-65,-91,26,84,-36,100,62,574,-205,-195,-583,438,1671,246,-239,-524,1106,2726,-488,-390,-440,-385,-899,710735
204,24,-17,-81,-35,-22,9,201,-4,22,31,-63,82,102,3,357,-82,-41,-312,211,1032,148,-126,-235,559,1802,-198,-203,-267,-180,-265,710736
-141,-6,89,-30,-45,-47,-276,-254,8,-102,-39,-153,164,-94,-110,-39,48,110,98,-177,-83,-73,-11,145,-307,75,163,46,-8,87,489,710737
-146,-13,88,6,-30,-27,-115,-147,-41,15,95,-236,141,-88,-60,-111,43,93,142,-208,-296,-112,4,159,-414,-296,164,63,51,104,431,710738
-131,-18,70,11,-39,-27,-94,37,-58,-105,9,-260,75,-100,-12,-153,2,40,85,-211,-350,-144,-38,91,-432,-403,88,13,33,41,358,710739
-113,-19,65,10,-16,-6,-181,-102,66,-60,-202,-165,30,-241,-50,-147,-4,24,71,-203,-359,-138,-45,73,-405,-437,63,11,27,18,266,710740
-105,-16,68,17,-6,1,-242,-193,120,-27,-68,-119,33,-91,-57,-117,31,60,124,-172,-363,-94,8,123,-378,-486,114,60,84,77,314,710741
-131,-29,72,14,-15,-11,-236,-184,98,14,0,-66,123,-64,-54,-120,40,82,146,-178,-405,-89,31,142,-393,-577,151,90,106,88,350,710742
-33,-25,27,-14,-7,-12,-74,14,39,-2,-132,-9,111,-82,14,-5,-5,15,28,-72,-105,-35,-5,23,-147,-137,24,12,31,-8,-7,710743
89,-11,-21,-27,-2,0,105,120,-45,-9,-103,51,66,-40,25,113,-72,-63,-149,34,270,19,-63,-154,123,462,-146,-103,-91,-156,-292,710744
97,-21,-40,-42,-12,-21,129,141,-74,41,72,14,-11,-13,-4,118,-89,-73,-218,18,336,8,-95,-203,133,591,-179,-152,-149,-208,-262,710745
-15,-12,11,-19,-16,-33,-50,160,8,-63,144,-48,79,18,-35,-11,-28,-4,-86,-123,-9,-47,-38,-67,-158,60,-46,-57,-81,-114,23,710746
-234,-30,97,15,-21,-20,-380,-324,159,61,-264,-190,176,-140,-35,-294,45,86,161,-379,-727,-187,39,176,-713,-1105,184,100,77,48,464,710747
-242,-56,93,6,-19,-4,-424,-106,72,13,-203,-166,155,-167,-23,-314,40,73,185,-389,-826,-193,29,167,-746,-1336,172,113,98,46,408,710748
-213,-35,90,31,3,4,-339,-61,-72,-47,-414,-91,267,-93,13,-282,56,86,202,-346,-793,-151,56,177,-676,-1356,188,144,139,62,431,710749
-199,-38,74,55,2,6,-227,-136,-10,-57,-445,-22,178,-96,-47,-261,67,91,225,-311,-756,-128,76,185,-622,-1383,185,163,154,75,337,710750
-165,-23,72,74,4,3,-113,-94,17,-85,7,9,20,3,26,-233,61,87,214,-266,-684,-103,88,174,-553,-1334,166,155,144,74,338,710751
-155,-31,60,60,-6,1,-73,-94,12,-72,111,40,-16,-141,-9,-246,19,34,124,-269,-632,-126,40,98,-514,-1245,94,80,81,7,283,710752
-113,-23,52,66,23,11,-21,-199,50,-131,90,30,36,-180,-62,-183,43,46,128,-203,-544,-96,52,99,-416,-1136,91,98,102,17,123,710753
166,-10,-44,29,24,16,360,-185,-45,-62,313,77,-74,-20,55,161,-37,-51,-131,134,316,102,-13,-150,287,205,-162,-56,-48,-155,-485,710754
180,-16,-48,-26,1,10,417,123,-67,-49,146,98,75,103,11,234,-60,-73,-226,187,551,120,-48,-211,432,644,-208,-115,-118,-210,-502,710755
74,-12,-6,-10,2,13,252,178,-4,127,-48,95,121,139,-39,127,-28,-18,-122,51,260,30,-31,-91,166,272,-75,-48,-71,-127,-113,710756
-222,-48,43,10,-39,-37,-183,-196,225,242,-186,-48,47,59,-110,-237,31,57,129,-301,-625,-186,28,155,-543,-1050,143,96,71,38,386,710757
-209,-44,36,2,-22,-25,-237,-279,73,231,-164,-84,122,5,-68,-258,70,73,201,-278,-747,-178,98,198,-583,-1296,172,139,142,100,422,710758
-123,-23,27,42,2,-1,-141,-31,-24,165,-297,-10,-2,-147,-30,-209,59,52,178,-209,-652,-153,101,159,-480,-1175,138,124,139,79,269,710759
-101,-21,33,52,12,11,-181,-217,-32,198,91,-27,-55,-79,-37,-221,0,3,106,-225,-642,-167,27,102,-468,-1147,94,70,98,38,128,710760
-119,-37,41,33,-4,11,-254,-198,-28,54,-66,33,-103,-27,-24,-215,16,30,121,-212,-666,-162,21,132,-462,-1187,119,95,122,69,243,710761
-115,-41,22,30,-4,6,-221,8,26,5,-2,29,13,11,-24,-169,34,47,145,-155,-603,-116,57,153,-386,-1143,145,128,153,96,192,710762
48,-20,-20,1,10,11,20,255,-5,-126,153,163,94,183,38,48,2,-5,2,73,-42,30,41,2,74,-329,-4,33,72,1,-227,710763
311,-16,-96,-41,21,15,378,108,-226,-119,267,277,-128,166,124,349,-109,-150,-341,346,833,181,-77,-316,717,1052,-310,-200,-159,-235,-808,710764
431,1,-125,-65,18,7,515,86,-136,-40,440,289,-20,33,82,481,-163,-202,-501,457,1278,242,-146,-454,993,1814,-449,-311,-306,-347,-968,710765
356,9,-87,-61,18,14,407,417,-78,-42,275,86,20,-95,56,398,-136,-156,-440,356,1144,196,-120,-387,814,1678,-387,-277,-319,-312,-627,710766
-9,3,49,-14,-7,9,-28,105,40,-41,-87,-94,-104,-189,-35,3,1,29,-59,-36,119,11,-19,-5,-42,75,-1,-41,-93,-48,248,710767
-108,-3,64,25,-19,0,-102,61,83,16,43,-86,38,-115,14,-94,17,53,94,-94,-148,-7,0,93,-229,-453,82,46,16,41,222,710768
-81,-7,47,30,-6,2,-72,100,37,-5,144,-121,-33,-52,-27,-77,22,43,109,-65,-97,33,7,70,-167,-455,58,54,29,34,177,710769
-81,-28,34,16,-11,6,-124,-115,66,-44,209,-64,-98,-143,-75,-114,2,20,88,-93,-144,27,-16,61,-200,-571,38,41,17,4,162,710770
-79,-25,43,6,3,13,-130,-330,184,82,122,-107,-7,-151,-33,-105,16,50,107,-84,-161,34,-3,77,-208,-651,79,58,37,27,174,710771
-42,-4,48,34,21,25,-86,-162,112,169,115,-102,121,-41,-31,-77,64,80,155,-36,-132,66,54,119,-152,-648,110,107,94,62,157,710772
447,43,-101,13,67,40,521,261,-250,-88,365,186,62,191,118,471,-75,-119,-286,506,1247,347,-66,-332,982,1500,-331,-157,-154,-227,-853,710773
1065,91,-288,-90,92,67,1264,672,-343,144,816,467,-112,193,207,1165,-347,-426,-1014,1133,3187,654,-327,-1008,2453,4747,-980,-643,-662,-725,-2163,710774
1035,106,-254,-157,56,56,1232,592,-316,178,888,406,-104,123,175,1209,-369,-411,-1119,1093,3432,607,-380,-1044,2490,5439,-1006,-724,-808,-789,-1967,710775
596,67,-120,-162,-19,1,683,215,-199,-79,527,159,166,-165,85,777,-242,-231,-809,618,2352,317,-307,-666,1519,4005,-634,-535,-657,-541,-982,710776
-114,19,90,-105,-81,-57,-221,-186,17,-14,-104,-206,353,-250,-22,1,-29,51,-111,-138,256,-118,-129,25,-131,844,34,-106,-198,-36,422,710777
-213,13,108,-60,-56,-47,-349,-196,-51,-6,-115,-144,224,-131,-61,-125,5,84,95,-209,-224,-154,-79,168,-391,49,165,28,5,119,537,710778
-182,-7,75,-35,-56,-49,-290,-113,35,113,41,-145,200,-63,-86,-110,-3,50,95,-164,-259,-142,-79,144,-350,-27,141,27,41,114,394,710779
-111,-10,43,-41,-54,-38,-208,-160,-16,-112,10,-47,203,17,-19,-39,-18,29,35,-84,-135,-107,-73,72,-206,170,71,-12,27,80,159,710780
-84,-14,36,-32,-39,-25,-227,-35,-114,42,-159,-40,124,-143,-13,-25,-22,27,40,-65,-108,-94,-48,71,-174,186,62,-4,32,79,138,710781
-89,-19,22,-25,-38,-42,-241,21,-84,101,-247,-44,-9,-39,-56,-41,-6,27,65,-69,-138,-87,-40,82,-192,104,80,16,45,96,126,710782
195,37,-34,-16,15,8,169,256,-99,105,77,34,-128,79,54,307,-21,-29,-131,297,689,144,-55,-113,507,1326,-105,-77,-35,-17,-462,710783
557,62,-119,-66,36,29,633,166,-203,-6,99,269,20,120,186,729,-164,-179,-540,668,1826,360,-174,-485,1363,3163,-475,-341,-325,-297,-1079,710784
648,71,-130,-108,26,28,714,104,-146,140,127,259,-98,135,180,824,-247,-254,-731,742,2257,399,-279,-634,1591,3939,-623,-486,-509,-424,-1267,710785
437,55,-69,-122,-6,2,392,81,-71,120,138,176,-46,26,12,579,-230,-198,-621,461,1785,240,-304,-506,1112,3323,-481,-440,-509,-367,-778,710786
-29,22,82,-77,-35,-30,-228,-9,62,-21,-87,-76,75,-183,-51,57,-54,19,-120,-63,409,-26,-153,-38,-20,1158,-14,-135,-201,-29,253,710787
-71,24,71,-58,-35,-36,-254,-226,61,-15,-135,-48,135,-183,-39,36,28,76,48,-45,247,31,-47,58,-97,729,76,-17,-60,75,252,710788
-132,6,67,-51,-59,-54,-262,-413,81,-91,-304,-46,162,-257,-31,3,58,113,138,-68,134,53,4,131,-171,468,127,54,2,112,306,710789
-189,29,80,9,-51,-49,-308,-227,136,33,-225,-122,85,-2,-26,-76,81,133,224,-130,-89,35,41,200,-302,63,193,114,60,155,350,710790
-19,33,48,-10,-9,-21,-142,-62,74,59,-145,-11,149,230,21,129,64,103,110,84,363,154,28,83,89,673,86,61,24,101,54,710791
55,24,26,-48,-5,-16,-24,6,-36,-166,196,40,126,119,61,195,49,84,38,153,529,193,20,29,220,938,38,22,-14,57,27,710792
106,44,-11,-31,-8,-25,144,84,-19,22,180,14,149,41,-31,230,7,30,-46,191,651,189,-19,-55,341,1212,-69,-39,-69,-18,-195,710793
405,61,-87,-64,20,5,525,70,-233,-166,167,142,-100,25,-17,543,-143,-147,-400,491,1526,303,-162,-389,1040,2705,-395,-278,-290,-272,-846,710794
447,57,-82,-67,13,11,529,240,-214,-64,251,72,-148,18,73,570,-201,-200,-524,465,1649,249,-228,-468,1090,3092,-471,-376,-397,-342,-852,710795
285,37,-38,-69,-12,-13,352,303,-158,-121,63,14,-54,-42,-69,392,-176,-158,-428,261,1228,113,-223,-359,714,2584,-357,-329,-369,-281,-566,710796
16,37,52,-28,-28,-31,29,12,53,-34,-56,-126,36,-135,-51,109,-59,-17,-133,3,439,-36,-120,-61,93,1420,-63,-132,-164,-46,0,710797
-37,35,60,-4,-23,-31,-46,-28,64,-22,-380,-87,44,-82,-18,84,-8,31,-9,3,267,-27,-50,26,-2,1124,21,-37,-57,56,123,710798
1,47,46,2,-9,-27,23,52,4,85,-124,-25,19,-101,7,151,0,30,-40,76,377,14,-37,2,125,1292,1,-46,-45,63,18,710799
-13,30,27,-33,-30,-51,-4,-26,73,173,3,-2,6,-44,-28,149,-7,27,-33,76,370,16,-43,2,129,1315,7,-39,-21,76,59,710800
-60,18,36,-36,-51,-66,-61,-44,148,89,-214,-1,-43,-3,-32,113,16,63,55,44,232,7,-16,74,31,1090,79,24,33,130,150,710801
-41,23,44,-18,-25,-37,-53,128,167,-48,-320,17,9,203,-47,120,40,76,80,60,230,33,9,94,37,1051,98,32,56,153,120,710802
101,33,7,-38,-4,1,81,-15,-33,-3,-132,60,79,186,-69,235,-10,-8,-83,191,582,87,-51,-53,319,1588,-45,-81,-36,51,-195,710803
203,40,-14,-56,10,11,196,211,-109,117,0,90,-46,128,-10,321,-71,-69,-214,259,861,122,-115,-175,529,2067,-167,-167,-137,-45,-344,710804
282,49,-56,-61,8,0,302,345,-154,-57,112,92,-55,71,44,409,-105,-93,-292,337,1132,183,-145,-252,724,2522,-252,-215,-209,-117,-474,710805
299,65,-44,-52,-5,-3,338,133,-140,-7,65,108,-44,139,32,443,-105,-81,-303,351,1242,208,-148,-252,768,2701,-247,-217,-234,-123,-418,710806
17,40,33,-32,-32,-45,46,-23,9,-113,40,-19,30,-102,-40,166,-22,31,-47,65,522,66,-75,-10,154,1584,-4,-61,-89,36,167,710807
-56,39,41,-21,-29,-57,-6,-113,-34,-166,11,-90,-41,-66,-79,82,4,43,45,7,295,44,-38,46,0,1156,58,-10,-40,92,149,710808
-4,34,32,-27,-24,-48,17,14,6,63,-19,-52,-249,-184,-114,93,-32,-6,-28,22,375,41,-62,-36,61,1252,-15,-72,-96,15,1,710809
15,27,30,-39,-21,-22,17,118,24,165,-41,-11,-231,-247,-138,118,-36,-18,-39,53,438,60,-60,-53,111,1326,-35,-68,-99,-12,-70,710810
69,37,38,-34,0,-7,42,102,-81,41,34,-28,-125,-110,-76,162,-41,-24,-71,91,545,89,-67,-93,201,1479,-76,-81,-116,-49,-118,710811
95,39,-1,-47,-13,-24,68,112,-35,-185,93,-81,3,106,6,201,-70,-54,-144,124,665,86,-102,-164,292,1696,-139,-136,-179,-112,-277,710812
84,39,4,-31,-17,-29,50,132,33,-63,224,26,78,98,63,231,-22,-11,-93,158,666,113,-64,-102,312,1736,-81,-93,-120,-54,-178,710813
294,47,-63,-59,3,-25,296,357,5,12,153,179,52,86,19,446,-106,-113,-324,363,1223,204,-139,-300,760,2678,-276,-229,-242,-179,-527,710814
298,52,-49,-69,-8,-28,326,110,-78,-186,28,143,66,149,9,431,-133,-130,-390,320,1246,183,-172,-332,751,2819,-308,-269,-293,-218,-599,710815
287,64,-30,-75,-6,-16,325,74,-43,-200,143,122,31,78,-23,416,-133,-110,-368,301,1232,166,-178,-317,717,2875,-301,-268,-295,-203,-626,710816
103,48,21,-59,-19,-25,53,170,-19,-31,-199,-108,2,-9,-40,224,-83,-36,-197,94,719,42,-138,-135,288,2142,-116,-170,-193,-76,-169,710817
-4,29,38,-55,-39,-52,-125,106,69,-179,-206,-103,-10,-16,-9,131,-36,13,-55,12,420,-5,-85,-12,72,1688,-5,-82,-94,34,29,710818
-22,44,54,-45,-20,-29,-127,-54,161,-107,-54,-42,-70,12,-71,122,-4,40,9,10,344,3,-42,38,53,1566,40,-31,-30,91,83,710819
-41,51,52,-26,-18,-36,-93,-61,227,-109,-51,-5,-171,175,-67,101,13,49,39,0,263,0,-13,52,17,1433,70,4,15,122,185,710820
-48,40,45,-30,-25,-49,-57,29,55,-216,-119,-101,-166,54,19,104,30,55,66,12,247,3,3,67,24,1382,81,19,47,140,173,710821
-34,27,26,-47,-38,-52,-47,12,-16,-64,-83,-153,104,-71,7,101,17,33,35,16,273,-1,-10,34,38,1428,37,-10,21,118,76,710822
28,29,9,-37,-24,-45,-6,-15,81,56,121,48,-50,-124,-18,137,-26,7,-23,55,377,25,-61,-12,134,1587,-8,-36,-21,75,-61,710823
-25,40,40,-22,-16,-38,-83,2,153,-8,64,-39,11,-181,-38,88,14,52,72,2,195,-2,-34,80,-1,1298,86,26,34,140,110,710824
-92,39,77,0,-14,-19,-155,-81,56,-109,-314,-97,69,8,-20,26,77,108,182,-45,-11,-15,37,183,-141,931,187,103,118,218,292,710825
-74,25,73,-5,-16,-2,-147,-191,24,38,-270,-101,176,41,-22,60,87,115,211,-11,10,23,59,187,-104,900,193,134,153,230,220,710826
73,34,3,-20,-15,-5,65,81,-24,20,-98,40,216,-43,-23,213,17,26,34,144,451,107,-5,-6,243,1577,3,13,20,86,-113,710827
111,47,-11,-7,-6,-18,167,-33,66,13,60,43,-123,-103,-23,196,-44,-40,-92,134,542,73,-54,-104,283,1756,-92,-89,-94,-14,-184,710828
131,38,-13,-18,0,0,204,5,122,86,146,-42,92,150,-42,203,-88,-84,-182,133,647,55,-105,-180,325,1950,-162,-164,-169,-83,-334,710829
183,42,-18,-53,10,3,203,54,35,-102,82,-33,129,99,20,263,-93,-102,-226,189,802,98,-125,-221,425,2212,-194,-192,-210,-127,-365,710830
105,39,-9,-64,-12,-11,93,11,-51,-25,88,-71,150,-27,-60,193,-90,-84,-183,99,643,49,-126,-177,274,2012,-156,-176,-191,-116,-220,710831
70,37,-1,-56,-25,-21,32,-22,-48,-35,62,-84,90,51,-48,180,-66,-47,-126,81,558,51,-91,-122,222,1887,-109,-125,-138,-60,-169,710832
-81,18,56,-48,-50,-37,-175,-59,4,79,-187,-117,43,-144,-23,34,-10,39,33,-65,143,-24,-31,42,-110,1264,62,-20,-36,53,251,710833
-280,-2,130,-12,-43,-35,-439,-33,108,12,-280,-233,160,-155,-19,-205,88,142,276,-277,-538,-143,55,266,-612,158,279,145,148,228,634,710834
-207,11,106,13,-12,-14,-362,-175,53,49,-153,-130,129,-72,-41,-171,74,108,244,-214,-471,-111,43,228,-508,194,223,134,151,214,455,710835
-90,23,48,-1,-2,-17,-212,-62,50,94,-57,-121,-63,69,-14,-48,14,31,109,-95,-158,-52,-7,92,-225,661,83,53,89,116,129,710836
28,26,24,-2,7,3,-40,142,-14,15,229,-58,-123,-158,11,89,-7,-9,12,35,193,22,-25,-18,57,1188,-5,-8,18,43,-81,710837
55,22,31,7,16,6,27,92,76,-31,89,-9,-319,-162,20,114,-24,-23,-38,45,308,38,-52,-56,124,1371,-35,-44,-20,14,-180,710838
28,29,27,-4,3,-12,2,-10,98,115,-75,-65,-80,-25,2,88,-29,-18,-44,10,277,22,-57,-43,80,1338,-30,-48,-33,22,-98,710839
6,29,21,1,-1,-21,20,111,78,97,-237,23,-158,-18,-4,98,18,28,12,20,254,39,5,10,75,1303,12,-3,5,64,-14,710840
34,35,14,1,14,-10,82,27,75,-64,197,64,24,-53,-29,130,23,25,0,54,337,72,8,-2,143,1420,2,-14,-1,53,-96,710841
5,21,26,-16,-7,-21,32,-131,-12,11,196,25,13,-61,25,75,2,6,0,-4,242,26,-20,-10,57,1305,-15,-28,-15,35,59,710842
-118,8,56,1,-22,-22,-138,-284,22,-131,-101,-190,166,-88,-54,-82,13,30,94,-169,-156,-81,-12,76,-263,705,69,22,25,83,289,710843
-251,6,102,34,-13,-13,-320,-205,174,53,-90,-277,75,-82,-151,-260,59,97,249,-321,-632,-170,37,228,-621,-67,217,131,127,184,553,710844
-313,-14,128,61,0,1,-388,-66,147,150,-232,-177,-64,-153,-134,-358,104,131,349,-396,-930,-214,78,318,-820,-609,315,204,216,258,704,710845
-263,-12,75,57,-13,-12,-260,-81,143,37,-110,-121,-79,18,2,-281,79,91,295,-304,-793,-175,64,259,-662,-460,245,159,220,219,450,710846
-47,15,-18,33,1,-20,50,83,9,30,118,75,-165,179,-18,-13,14,9,82,-41,-139,-40,14,49,-101,565,41,51,90,70,-81,710847
11,20,-22,18,-2,-29,100,118,-51,24,208,55,-104,138,3,78,23,10,23,30,48,-10,34,11,60,920,7,27,47,36,-91,710848
71,32,-25,12,9,-14,169,37,-101,-129,-22,107,4,164,38,165,12,-14,-52,113,254,33,31,-47,219,1288,-48,-20,-1,-5,-180,710849
89,37,-5,0,21,8,165,33,-145,-147,-95,73,163,-75,84,176,7,-3,-63,108,275,22,28,-53,214,1367,-36,-35,-9,-6,-86,710850
15,27,21,-3,7,12,33,192,-97,-163,-15,55,38,-122,53,43,-4,5,-9,-35,-31,-72,11,7,-30,963,5,-13,8,17,100,710851
-12,9,6,-6,-14,-6,-25,43,-105,68,-87,71,-88,-249,-29,23,-29,-28,-25,-47,-53,-88,-15,-18,-40,947,-4,-23,-16,-4,19,710852
-132,-19,36,-17,-31,-23,-224,-90,18,50,-50,-99,-14,-281,-60,-94,20,27,76,-165,-342,-138,16,89,-307,457,103,40,42,65,270,710853
-511,-31,153,38,-46,-36,-658,-256,154,-130,-180,-316,223,-95,-47,-491,202,236,510,-542,-1447,-297,187,510,-1194,-1396,501,327,343,375,1076,710854
-587,-42,175,78,-34,-29,-711,-167,162,-88,-306,-266,163,-71,-89,-614,253,269,671,-605,-1803,-310,239,617,-1408,-2143,596,435,469,472,1241,710855
-380,-28,119,79,0,0,-531,-297,99,10,-76,-198,8,122,-64,-459,169,174,522,-415,-1387,-192,189,440,-1016,-1647,431,347,402,368,831,710856
19,0,-12,39,38,33,-112,-66,-33,-23,101,59,-251,255,47,-26,30,3,114,5,-219,58,72,36,-84,82,46,93,145,73,-103,710857
48,-21,-42,-16,-3,25,-144,211,-50,-58,81,85,-40,224,35,25,-14,-40,-21,24,24,63,14,-67,42,497,-51,-11,15,-31,-130,710858
-8,-34,-15,-44,-4,16,-203,139,-117,-65,-138,12,20,190,-25,16,58,38,78,1,-35,81,86,30,-39,363,48,67,66,43,27,710859
-2,-13,7,-3,17,22,4,92,-52,57,-204,-54,178,-64,-35,15,78,53,105,-2,-10,88,110,62,-30,348,68,81,74,63,27,710860
39,33,16,47,44,30,211,66,-48,100,23,-41,160,-17,-30,-4,16,-16,16,-8,51,57,34,-18,0,460,-25,9,3,-17,-31,710861
14,44,20,57,44,27,151,-68,-17,-233,159,12,-194,-4,-11,-46,-31,-46,-15,-57,-9,10,-30,-32,-61,387,-39,-13,-29,-40,1,710862
-201,3,57,47,-10,-19,-204,-234,-27,-137,-131,-193,-34,11,-37,-277,19,30,164,-299,-594,-135,37,125,-538,-481,127,93,60,70,456,710863
-449,-34,96,52,-41,-42,-547,-93,124,98,-589,-241,103,20,-113,-529,141,142,446,-515,-1319,-257,170,381,-1066,-1674,373,279,263,263,867,710864
-490,-37,124,72,-25,-27,-597,-89,172,113,-254,-166,97,26,-62,-566,213,212,599,-534,-1592,-265,243,517,-1212,-2182,508,401,411,375,952,710865
-445,-47,110,81,-7,-19,-444,-136,162,-35,-125,-53,116,-9,-29,-535,210,191,609,-468,-1587,-243,255,504,-1108,-2219,480,411,459,392,767,710866
34,-17,-32,66,36,31,206,-12,27,57,85,121,-52,152,14,-71,3,-51,108,-1,-354,-37,76,14,-57,-255,1,76,163,41,-317,710867
164,17,-22,79,63,71,316,187,-6,58,126,168,-100,57,72,37,-69,-108,-105,64,-33,-39,-3,-116,155,406,-120,-54,11,-92,-351,710868
170,27,-33,43,55,71,274,289,-93,121,-15,75,-137,21,38,56,-69,-117,-170,64,11,-68,-21,-138,171,582,-140,-91,-28,-109,-244,710869
177,21,-40,20,39,49,284,115,-156,42,189,70,15,90,74,114,-65,-105,-206,96,128,-57,-25,-146,235,828,-148,-106,-45,-108,-244,710870
2,3,-15,27,-2,2,117,15,-74,-9,99,-54,-145,-214,-12,-54,-52,-70,-93,-69,-259,-154,-21,-38,-99,310,-49,-53,-5,-51,40,710871
16,13,-12,23,7,20,104,-39,-12,158,21,-26,-188,-134,36,-42,-45,-74,-79,-50,-219,-126,-16,-50,-73,360,-58,-41,7,-47,-59,710872
-201,-10,65,16,-12,20,-266,-143,140,104,-283,-113,-27,-22,36,-270,61,55,179,-289,-828,-221,80,204,-599,-674,197,130,160,127,504,710873
-477,-32,136,62,-26,2,-652,-211,246,112,-298,-184,85,-75,-67,-576,189,214,542,-549,-1673,-324,215,514,-1247,-2165,502,361,393,367,1014,710874
-418,-35,92,62,-12,-2,-569,-286,154,102,-49,-92,96,-121,-59,-525,177,178,515,-460,-1547,-263,212,447,-1093,-2142,444,346,390,342,852,710875
-333,-43,47,59,-9,-2,-376,-286,80,28,-104,-111,150,-181,10,-418,155,130,426,-328,-1249,-168,200,355,-845,-1833,346,292,348,280,621,710876
-17,-28,-25,44,21,26,109,71,-58,10,77,134,107,74,36,-69,82,31,153,16,-328,54,138,79,-104,-529,70,138,181,92,15,710877
91,15,-40,60,44,51,335,16,-79,214,295,145,94,149,27,12,15,-22,-7,71,-3,84,63,-51,112,-5,-44,40,45,-32,-169,710878
33,19,-29,82,34,34,276,-93,-43,52,108,46,-22,28,27,-81,-34,-57,-21,-39,-127,8,11,-68,-39,-181,-58,3,-10,-78,-122,710879
8,23,-20,85,29,27,170,126,-62,-160,122,-24,70,10,25,-95,-17,-50,-8,-52,-146,11,12,-61,-72,-237,-56,-3,-38,-77,-146,710880
45,5,-44,43,17,19,134,158,-103,-98,277,85,187,101,45,-20,-18,-54,-66,18,49,69,5,-106,70,58,-100,-30,-63,-100,-204,710881
81,15,-15,26,41,50,135,128,-60,55,247,93,42,88,19,-14,-28,-62,-88,14,78,57,-15,-127,85,130,-109,-41,-70,-114,-216,710882
-44,2,51,40,41,53,-21,23,-6,118,67,-48,-24,-96,-45,-170,13,-2,58,-158,-339,-42,35,6,-251,-485,33,46,-1,-16,149,710883
-222,-28,73,57,6,18,-187,-85,122,3,-20,-99,103,-86,-85,-354,60,54,220,-319,-827,-151,83,168,-628,-1257,187,143,117,97,428,710884
-232,-17,60,81,12,9,-172,-125,151,45,-13,-121,113,89,-121,-367,95,73,283,-302,-941,-149,113,225,-672,-1459,226,190,190,151,464,710885
-215,1,26,88,28,1,-172,-73,68,-52,-56,-119,-103,-72,-92,-353,98,70,268,-285,-978,-168,132,222,-653,-1516,209,186,202,146,410,710886
-7,-1,-24,43,43,30,0,-50,-60,-22,-47,-96,-12,69,14,-126,24,-21,77,-50,-429,-75,75,43,-172,-625,31,77,108,24,-58,710887
54,-15,-43,4,29,35,36,-14,-122,79,-141,7,29,127,44,-8,19,-23,9,47,-175,-28,59,9,21,-148,-12,47,92,-6,-93,710888
56,-14,-38,1,9,21,68,91,-137,11,7,91,100,99,91,34,36,1,7,78,-132,-16,63,36,53,0,6,49,103,12,-83,710889
-2,-5,-30,23,-11,-12,63,177,-36,-1,32,106,119,120,76,8,41,23,25,47,-227,-43,76,66,-25,-74,44,70,124,41,22,710890
8,6,-30,17,0,-5,99,-34,13,-5,19,159,158,53,62,23,43,8,0,70,-167,-46,75,47,12,41,19,48,107,32,-24,710891
11,-6,-5,10,23,35,68,-46,18,127,-66,106,-5,-30,-62,-37,-6,-47,-54,4,-231,-94,7,-1,-64,-29,-18,-16,52,-5,-18,710892
-259,-34,73,45,10,34,-306,-244,50,100,-341,-155,-117,-88,-175,-444,-16,2,135,-406,-1117,-329,-13,171,-828,-1395,163,70,115,84,607,710893
-778,-52,238,143,-7,14,-877,-612,211,129,-702,-407,21,-209,-205,-1014,244,284,806,-937,-2715,-563,249,782,-2049,-4109,754,502,557,532,1674,710894
-775,-71,229,184,1,16,-819,-550,319,70,-607,-341,136,-135,-142,-1002,335,355,985,-859,-2866,-480,386,884,-2045,-4648,846,643,727,651,1566,710895
-584,-93,152,165,12,29,-571,-224,237,101,-442,-124,-1,-305,-10,-828,255,231,782,-652,-2387,-363,326,655,-1584,-4121,622,524,624,499,1036,710896
37,-31,-36,108,74,71,199,91,35,165,65,188,10,-29,95,-162,57,-28,195,27,-584,42,158,65,-120,-1469,31,163,254,89,-272,710897
233,-18,-108,41,61,52,418,126,-123,301,257,277,12,70,87,108,-30,-103,-87,229,212,179,65,-177,412,-207,-184,-6,18,-131,-565,710898
185,-2,-75,38,50,38,262,139,-37,62,191,179,-17,31,86,49,-28,-81,-102,138,170,142,32,-159,297,-240,-164,-17,-42,-143,-380,710899
166,-6,-62,20,38,41,131,264,-115,101,189,67,26,-45,43,27,-67,-107,-148,105,195,112,-21,-172,262,-180,-172,-59,-93,-170,-342,710900
108,-26,-51,-14,19,34,10,61,-135,182,-40,101,47,-3,53,9,-35,-58,-104,67,125,94,-4,-120,182,-268,-101,-37,-77,-122,-238,710901
79,-14,-22,-2,30,45,51,-41,98,123,-44,165,-10,43,64,40,43,32,-19,85,95,126,74,-27,158,-329,-5,48,-3,-44,-141,710902
-103,-13,31,44,16,26,-71,-178,238,135,-153,46,-81,-38,13,-180,85,81,130,-134,-450,-4,109,126,-301,-1129,135,124,88,44,359,710903
-282,-42,61,64,-10,5,-253,-197,-21,-70,-273,-96,46,-9,-59,-423,95,98,279,-346,-1054,-164,123,257,-757,-2064,247,197,182,138,593,710904
-336,-54,53,69,-15,-5,-311,-315,47,48,-350,-135,113,-155,-105,-510,65,65,312,-412,-1281,-233,109,266,-882,-2423,247,211,224,149,578,710905
-228,-31,27,87,15,16,-186,-232,135,150,-226,-11,-114,-288,-33,-402,50,14,238,-283,-1059,-185,100,193,-642,-2078,177,165,199,109,331,710906
58,-15,-34,53,47,37,121,-21,-49,82,234,53,-208,-25,95,-59,4,-67,-15,62,-235,-2,62,-24,43,-792,-32,22,87,-22,-173,710907
111,-12,-42,19,43,37,135,19,-91,41,34,69,-36,198,47,38,4,-63,-79,144,-22,25,46,-60,190,-332,-62,-8,53,-56,-224,710908
75,-23,-29,4,29,20,51,27,-10,93,74,141,-30,-51,46,11,-6,-57,-73,102,-137,-36,22,-26,93,-392,-49,-11,55,-42,-107,710909
-7,-42,-30,1,9,0,-26,-22,1,212,44,68,-88,24,6,-68,-4,-34,-51,28,-313,-85,10,6,-52,-592,-12,-2,69,-9,-29,710910
-14,-34,-22,26,13,-3,-10,49,116,105,25,62,52,162,3,-78,34,-3,-15,26,-349,-78,59,47,-78,-659,32,33,110,33,7,710911
51,-3,-21,45,35,13,97,176,83,118,95,139,73,78,62,-12,44,2,-34,98,-209,-31,63,35,29,-456,11,25,110,23,-11,710912
-101,-26,7,43,7,1,-39,-51,32,-22,-20,35,88,19,10,-177,44,23,62,-101,-581,-132,54,121,-309,-1074,93,75,117,69,286,710913
-536,-54,123,87,-20,-18,-552,-350,76,167,-174,-182,11,-288,-83,-680,156,189,520,-601,-1869,-390,172,524,-1330,-3191,502,361,367,353,1175,710914
-590,-67,137,117,-4,-8,-607,-431,128,143,-371,-200,-16,-202,-38,-764,204,222,690,-644,-2148,-387,241,618,-1483,-3848,597,464,511,456,1145,710915
-391,-65,57,122,21,6,-335,-320,27,155,-294,-67,-67,47,46,-543,188,162,561,-385,-1596,-212,255,461,-985,-3211,432,400,456,360,673,710916
27,-25,-76,68,45,27,193,-74,-32,35,-128,142,-17,155,106,-92,48,-19,118,68,-344,65,137,37,22,-1360,10,127,182,50,-159,710917
159,-12,-94,29,40,44,334,-42,-96,9,140,74,20,96,48,64,-14,-75,-83,180,140,136,64,-124,335,-555,-148,3,8,-105,-356,710918
118,-19,-60,26,48,43,254,126,-55,-56,149,213,66,-50,97,21,3,-32,-51,107,77,114,63,-78,224,-653,-94,23,7,-81,-228,710919
80,-22,-43,16,36,39,127,175,-77,51,283,177,7,-80,109,-9,7,-34,-31,62,20,89,57,-58,146,-746,-60,43,14,-74,-101,710920
75,-17,-41,12,29,35,61,95,10,266,177,65,15,59,77,6,7,-16,-30,78,60,80,59,-61,166,-688,-56,42,3,-79,-82,710921
62,-20,-54,5,14,15,62,74,-38,150,42,-22,21,-16,77,21,16,-9,-37,85,99,84,63,-64,195,-604,-61,28,-13,-74,-102,710922
19,-24,-35,-2,7,11,24,170,-99,206,10,154,-29,-20,68,-2,38,23,2,62,16,72,67,3,117,-708,8,58,23,-24,3,710923
-109,-29,4,6,-2,16,-110,-49,69,230,75,87,-38,18,76,-144,80,76,141,-83,-402,-13,97,140,-201,-1333,144,144,124,79,255,710924
-129,-27,6,33,-2,14,-123,-69,35,-7,30,42,-5,73,95,-197,65,56,151,-113,-520,-60,111,131,-268,-1507,134,131,129,79,209,710925
-106,-32,4,38,12,17,-123,-11,-123,168,-59,9,45,24,85,-183,55,37,121,-92,-502,-67,103,102,-229,-1449,112,116,119,57,175,710926
19,-32,-31,12,16,14,9,43,-11,258,85,82,117,290,79,-9,30,-4,9,95,-108,40,83,5,91,-837,16,62,85,9,-23,710927
95,-20,-72,-8,14,15,103,47,24,121,49,191,235,268,64,78,-15,-48,-102,173,146,62,28,-84,281,-374,-76,-16,9,-55,-193,710928
38,-25,-49,-14,4,8,5,41,48,75,94,47,90,212,28,-13,-25,-36,-85,73,-29,-13,10,-42,117,-564,-29,-11,10,-34,-103,710929
36,-24,-46,-15,3,6,1,190,121,108,263,66,-220,206,-23,-28,-33,-60,-89,68,-52,-19,-5,-49,101,-567,-56,-25,2,-49,-184,710930
69,-13,-54,-9,6,1,76,161,58,133,125,136,-98,243,10,43,-29,-66,-131,134,114,24,-17,-87,219,-300,-84,-52,-18,-64,-268,710931
62,8,-43,12,6,-1,120,95,60,-34,246,41,58,156,106,72,1,-25,-110,145,154,49,26,-56,233,-231,-62,-43,-7,-43,-177,710932
-140,-5,9,17,-23,-27,-56,-111,11,8,61,53,-53,151,38,-135,55,46,51,-71,-350,-57,75,93,-187,-1007,89,58,69,45,257,710933
-365,-26,81,44,-32,-35,-333,-249,148,21,-126,3,-147,11,-86,-409,133,131,315,-312,-1065,-184,140,323,-731,-2199,308,215,229,222,693,710934
-348,-52,66,50,2,-7,-363,-166,210,83,-110,-157,-160,-42,17,-432,132,139,378,-317,-1185,-178,159,353,-758,-2494,335,255,286,253,635,710935
-170,-38,19,52,32,27,-176,-100,58,-15,-95,-8,21,82,-8,-267,101,91,286,-167,-807,-81,153,230,-427,-1993,212,201,227,170,281,710936
11,-27,-23,49,46,39,67,-93,-34,-1,150,96,119,-10,25,-63,37,12,73,17,-270,21,97,33,7,-1190,31,76,95,36,-80,710937
101,-26,-56,22,49,29,187,-54,23,-102,86,92,-64,-53,59,28,-25,-58,-84,94,61,50,29,-98,229,-657,-103,-30,-26,-76,-236,710938
81,-21,-42,11,20,15,172,-9,-53,-29,45,103,-46,88,67,7,-24,-50,-85,67,53,26,18,-84,185,-654,-101,-29,-51,-77,-188,710939
68,-22,-51,-9,12,18,93,-96,-95,-157,-41,116,-241,175,11,17,-17,-35,-81,62,53,32,5,-77,172,-626,-83,-25,-51,-69,-102,710940
85,-15,-42,-14,22,34,47,-122,-23,-96,118,56,-289,143,-23,35,7,-10,-64,79,79,50,25,-67,197,-560,-51,-4,-32,-52,-93,710941
58,-28,-43,-21,0,12,8,-17,-101,122,43,39,90,-15,-5,28,27,9,-36,73,55,43,49,-36,174,-588,-32,15,-21,-39,-47,710942
-37,-32,-21,-31,-15,0,-90,146,-26,-67,-19,-4,10,20,18,-38,55,51,34,-2,-139,13,78,51,-2,-912,46,61,29,18,101,710943
-212,-33,60,25,-5,1,-287,-214,88,-179,133,-90,73,-17,36,-257,123,130,256,-212,-751,-96,124,263,-476,-1883,254,202,185,177,559,710944
-254,-47,47,34,-9,-9,-305,-389,49,-14,71,-94,130,-165,-51,-331,97,99,276,-254,-924,-148,120,255,-562,-2160,254,204,206,185,553,710945
-213,-51,20,34,-2,-1,-265,-206,110,115,-98,-15,177,-178,-50,-282,94,91,242,-185,-805,-100,130,215,-453,-2037,215,180,200,151,442,710946
-9,-36,-61,19,10,-3,-16,151,-8,25,119,86,-119,-68,31,-33,53,15,28,74,-162,56,99,27,63,-1101,12,60,104,29,-70,710947
96,-27,-90,-13,12,-4,138,155,-83,-52,183,119,-149,57,54,104,-16,-56,-138,190,247,109,27,-122,361,-421,-125,-47,-20,-93,-347,710948
111,-1,-63,2,32,13,141,177,2,5,162,186,-27,330,-13,107,-12,-41,-123,188,300,120,9,-94,358,-317,-102,-37,-31,-83,-245,710949
97,2,-51,-4,27,16,91,263,5,-68,85,92,-100,22,31,65,-15,-33,-90,146,221,92,5,-80,278,-408,-85,-33,-23,-77,-225,710950
143,6,-52,0,34,26,122,137,-124,47,120,105,-101,74,53,118,-24,-37,-107,187,333,117,9,-96,355,-215,-93,-38,-45,-80,-291,710951
120,3,-57,-12,19,13,104,171,-99,-24,99,94,-127,126,25,101,-19,-38,-95,167,294,98,7,-82,315,-241,-84,-41,-50,-81,-180,710952
46,-2,-19,-9,15,10,52,89,-47,6,163,23,125,42,24,34,13,8,-28,92,118,50,26,-11,161,-495,-14,-19,-16,-35,-48,710953
-35,-20,-10,-12,-9,-7,-33,-198,45,-27,-6,33,67,-71,48,-60,19,23,26,-3,-127,-3,36,34,-26,-847,35,7,1,7,80,710954
-89,-20,-2,11,1,-7,-101,-3,79,-93,25,75,14,9,-22,-120,62,62,92,-65,-327,-20,74,110,-157,-1166,100,62,61,67,232,710955
-39,6,-2,29,23,10,-38,156,140,-8,98,102,61,154,8,-55,55,59,84,-8,-220,22,65,87,-42,-1019,91,84,67,68,164,710956
-23,-4,-31,5,11,-11,-41,3,81,-23,25,1,-112,23,32,-37,6,-1,7,1,-137,7,13,1,29,-857,11,26,13,1,-68,710957
43,-9,-40,-13,14,-6,10,186,23,-196,17,81,-53,100,45,44,-3,-26,-81,62,93,41,-6,-61,199,-508,-64,-28,-42,-40,-166,710958
49,-13,-50,-29,7,-6,27,-115,50,-58,17,97,-142,145,-3,77,19,-2,-66,96,142,58,1,-44,240,-394,-44,-12,-34,-26,-168,710959
83,-15,-56,-48,3,-11,96,-169,-6,155,-19,164,7,0,-21,93,-9,-17,-95,105,226,59,0,-80,284,-244,-80,-36,-55,-51,-241,710960
38,-10,-31,-17,3,-6,60,-48,-44,29,76,55,-4,77,-16,18,-17,-23,-66,26,68,5,1,-50,139,-465,-49,-32,-56,-36,-156,710961
34,-9,-34,-5,8,-10,46,-178,10,-31,-55,14,28,16,9,24,-28,-23,-47,28,76,13,-25,-29,144,-456,-41,-31,-52,-21,-90,710962
30,-7,-28,-13,12,-5,6,-233,-24,1,-25,14,53,33,59,36,-9,1,-9,53,82,28,-2,1,147,-457,-9,0,-22,4,-42,710963
-62,5,13,5,6,0,-132,-126,-67,37,129,-34,-42,57,33,-49,82,85,127,-38,-223,1,92,127,-87,-917,120,85,70,102,299,710964
-142,-16,39,-2,-4,-4,-225,-144,26,40,-6,-75,-33,213,47,-152,89,94,168,-127,-453,-57,95,173,-259,-1315,170,110,104,134,411,710965
-153,-43,34,-13,-13,-2,-217,-209,85,-91,81,-99,-35,269,8,-177,43,56,139,-129,-487,-72,43,143,-278,-1402,130,83,98,112,333,710966
15,-12,-25,-6,-6,7,14,89,-9,9,40,110,2,7,32,-1,7,-6,25,65,-46,41,16,7,92,-775,-12,9,28,18,-29,710967
94,1,-40,-8,6,20,132,264,-29,74,166,71,-24,-113,-40,81,-8,-29,-75,149,229,94,0,-87,273,-361,-93,-47,-47,-59,-235,710968
91,-5,-47,-9,12,20,117,4,29,-6,81,103,-126,-227,-12,67,-18,-35,-95,140,264,93,5,-101,264,-310,-99,-57,-82,-91,-212,710969
65,3,-15,-11,23,31,52,-164,-11,-99,101,-5,21,-44,-33,15,-17,-29,-67,76,151,45,-9,-68,162,-489,-67,-55,-83,-79,-84,710970
33,-5,-9,-6,11,23,-1,114,36,-33,-152,-75,-81,49,-31,-19,-42,-40,-54,27,52,9,-50,-54,83,-626,-58,-55,-88,-80,-75,710971
7,-15,-21,2,2,1,-23,-42,7,-159,-281,-72,-29,81,9,-34,-39,-29,-25,21,8,-4,-43,-42,50,-696,-36,-29,-69,-59,-32,710972
183,17,-58,-11,30,12,220,93,-56,-199,69,119,-30,54,96,210,-39,-46,-135,256,549,157,-29,-156,512,128,-144,-80,-103,-116,-385,710973
329,28,-105,-49,25,15,377,374,-70,-49,151,170,20,171,97,389,-102,-123,-348,407,1052,238,-106,-322,870,997,-316,-215,-243,-249,-697,710974
305,33,-102,-57,5,-4,333,222,-68,-117,218,152,-20,124,54,375,-113,-146,-389,360,1059,214,-136,-336,843,1136,-330,-241,-287,-271,-614,710975
234,40,-66,-62,3,-5,254,206,-6,-107,30,112,2,187,9,316,-77,-88,-320,273,900,178,-113,-256,691,998,-253,-202,-260,-222,-398,710976
-33,2,10,-37,-25,-32,-102,182,-10,-58,-123,-68,-90,1,-115,25,7,41,-62,-25,132,-1,-33,7,49,-143,-2,-49,-93,-31,150,710977
-56,12,30,8,-2,-11,-121,10,63,-8,-55,-63,-51,-1,-62,-29,41,60,35,-56,-65,-15,16,77,-48,-479,71,20,-8,56,242,710978
-60,-4,-1,-17,-27,-20,-92,-139,47,11,128,-89,-35,51,-86,-37,16,28,24,-69,-91,-31,-2,51,-55,-526,42,2,-12,34,157,710979
-42,-8,4,-9,-7,-16,-21,-143,9,-162,213,-123,-79,74,-8,-12,33,42,23,-47,-70,-11,5,52,-15,-494,33,14,0,43,50,710980
-4,6,7,4,9,-6,42,-130,-6,-35,-36,-31,-46,-100,54,-2,9,9,-8,-36,-21,8,-11,15,38,-403,-12,-7,-14,23,-30,710981
-3,8,5,1,9,-1,-6,120,-47,-94,88,-50,-131,-22,3,-56,-23,-33,-35,-64,-64,-27,-29,-10,-3,-461,-35,-37,-37,7,-5,710982
105,12,-45,-14,16,13,102,118,-82,-76,230,-23,-77,18,26,82,-53,-63,-120,85,271,36,-55,-104,266,49,-124,-90,-85,-52,-325,710983
242,20,-90,-47,13,6,296,174,-54,38,141,122,-103,-65,7,294,-91,-104,-270,266,796,154,-88,-241,664,890,-253,-180,-185,-167,-572,710984
281,43,-78,-52,8,10,352,361,-82,-97,275,151,-37,-34,135,378,-67,-75,-280,333,991,221,-75,-236,770,1220,-240,-182,-202,-168,-570,710985
232,43,-46,-51,3,4,253,251,-21,-231,114,111,56,30,39,327,-49,-45,-249,285,892,195,-71,-194,645,1091,-190,-162,-205,-141,-481,710986
7,23,31,-20,-15,-9,-77,41,-1,-182,-218,8,89,-91,-82,58,8,37,-43,21,222,47,-29,0,84,51,-3,-49,-98,-10,11,710987
-50,12,30,-2,-15,-8,-112,12,10,-39,-75,-58,49,-216,-2,-37,16,42,23,-48,-21,6,-20,40,-81,-383,35,-20,-40,23,82,710988
11,21,2,7,2,9,16,-26,-67,18,-13,-95,-50,-73,45,17,-3,12,-14,32,117,41,-33,-23,48,-228,-4,-44,-66,-23,-7,710989
15,19,5,9,-1,5,29,-74,-69,28,-82,-53,57,-86,-18,27,-3,13,8,47,126,38,-19,-15,53,-259,-3,-30,-61,-24,18,710990
37,13,-2,-10,-1,6,-13,-236,-121,-81,-3,-43,-24,-139,-13,65,6,15,-4,82,186,62,-21,-30,98,-171,-16,-24,-61,-26,-31,710991
96,17,-26,-28,-7,5,-53,-224,-113,-58,168,23,-95,-56,-52,140,-8,4,-63,143,374,110,-36,-85,253,112,-64,-51,-96,-56,-195,710992
160,26,-59,-48,-10,-10,-66,-22,-5,19,12,24,-192,53,-30,190,-35,-31,-145,194,545,129,-49,-147,387,441,-132,-97,-133,-115,-306,710993
442,50,-117,-67,25,14,276,121,-99,-96,193,168,-190,248,49,507,-117,-143,-421,484,1369,287,-133,-404,1049,1810,-383,-268,-289,-297,-919,710994
432,51,-101,-71,7,3,442,226,-213,-82,156,184,-3,91,38,523,-153,-163,-507,445,1484,260,-183,-453,1062,2127,-430,-327,-378,-342,-867,710995
222,50,-57,-50,-32,-28,360,177,-70,-40,82,21,78,-8,-28,340,-120,-103,-375,230,1032,136,-159,-302,655,1558,-286,-265,-307,-244,-460,710996
-51,48,13,-8,-42,-38,43,-139,-10,42,-15,-72,-7,95,-60,66,9,33,-65,-29,260,2,-46,-11,52,392,-7,-65,-96,-19,136,710997
-79,30,-4,-5,-46,-47,-27,-262,-61,7,-29,-52,30,136,-90,34,54,68,22,-44,90,8,-2,58,-25,119,70,4,-10,54,182,710998
-80,25,7,1,-33,-30,-50,-311,-128,-145,89,-116,1,16,-81,28,40,55,32,-48,49,12,0,66,-24,58,76,10,17,58,146,710999
-56,5,22,-4,-13,-9,-86,-218,38,-103,-94,-40,-8,38,-14,-2,6,26,22,-74,1,-12,-31,59,-44,-9,62,-15,11,47,73,711000
-34,-9,33,-29,-8,11,-93,-54,128,-33,-220,17,-23,-34,-30,5,13,28,42,-62,2,2,-24,70,-43,-15,67,0,32,58,43,711001
-33,-6,19,-22,-5,4,-54,62,88,21,-71,-9,14,-67,-13,-18,-19,-15,-5,-84,-35,-31,-50,25,-84,-61,9,-43,-9,26,-53,711002
24,28,2,29,2,-10,77,97,165,-117,-48,-70,132,3,32,14,-31,-28,-70,-45,72,-4,-66,-33,16,97,-44,-80,-43,-17,-63,711003
26,34,10,45,6,-18,78,57,84,-81,-208,-62,9,8,15,2,-35,-27,-87,-39,93,-4,-70,-56,17,125,-61,-91,-64,-38,-41,711004
68,23,4,27,13,7,108,30,63,54,-332,-5,-47,-101,-66,44,-47,-51,-88,8,218,21,-70,-83,111,299,-98,-105,-88,-67,-132,711005
81,28,5,14,9,24,124,-40,32,-9,-48,-88,-14,68,-89,53,-41,-50,-103,21,255,18,-52,-101,117,351,-107,-110,-107,-70,-153,711006
-18,11,27,-5,0,20,-12,-138,-15,-134,56,-148,-35,-218,-64,-55,-18,-14,-33,-87,-23,-43,-52,-23,-106,-80,-16,-55,-74,-27,-4,711007
-17,10,45,-21,11,19,-76,-38,69,-76,77,-132,-94,-89,1,-32,-2,20,27,-58,-37,-10,-30,13,-105,-157,12,-9,-33,13,77,711008
-5,-19,26,-42,-4,-3,-140,-15,19,-69,-69,-109,-79,-150,9,16,-14,-1,4,-17,56,10,-55,-20,-34,-62,-20,-29,-55,-5,2,711009
22,7,41,2,16,18,-121,-113,3,-2,-180,-79,157,-172,23,28,-9,3,-5,2,95,7,-44,-28,-7,-43,-20,-25,-72,-3,45,711010
35,12,6,24,6,3,27,-173,44,-6,-98,-117,205,-236,-8,17,-55,-38,-77,1,138,-20,-69,-87,13,16,-78,-85,-118,-68,-95,711011
43,11,-1,16,2,1,150,67,31,12,-57,32,84,-41,-27,34,-65,-41,-99,12,182,-8,-86,-99,48,101,-79,-88,-128,-83,-178,711012
111,12,-17,-1,13,13,245,16,95,-46,223,45,115,-62,-5,111,-67,-51,-130,79,346,33,-89,-125,187,371,-106,-99,-130,-85,-272,711013
329,32,-73,-18,29,26,468,242,12,-92,142,4,134,-33,53,310,-138,-134,-328,258,881,130,-157,-308,609,1272,-287,-213,-240,-220,-579,711014
363,56,-79,-20,14,12,453,215,-47,33,-170,45,135,-143,25,357,-158,-159,-406,281,1052,141,-183,-357,703,1656,-347,-279,-298,-282,-636,711015
222,51,-47,-8,-7,-15,230,234,-46,14,38,-14,-71,-304,17,223,-124,-117,-326,141,748,50,-165,-248,431,1260,-243,-234,-248,-209,-358,711016
6,28,31,-5,-21,-6,-60,192,28,-30,-246,-125,-68,-73,-81,-44,-88,-55,-137,-110,99,-96,-129,-57,-95,306,-65,-132,-139,-97,29,711017
-22,22,72,6,-4,22,-88,-13,28,-50,-313,-127,68,-28,-90,-73,-54,-32,-49,-118,-45,-74,-97,-1,-164,80,0,-67,-53,-30,19,711018
-17,13,60,4,4,21,-85,133,76,13,-18,-47,120,-196,-38,-51,-33,-9,-30,-95,-50,-43,-75,18,-136,54,13,-50,-14,0,61,711019
-48,13,44,24,-10,-13,-52,-70,109,48,-16,-16,135,-208,6,-51,-7,13,11,-76,-62,-34,-38,57,-136,1,34,-9,25,34,77,711020
-52,19,2,34,-27,-52,7,-144,43,-88,-147,-30,108,-126,30,-28,-22,-12,-3,-62,-23,-26,-34,36,-85,52,0,-34,15,15,32,711021
-65,27,1,40,-20,-37,9,-202,-9,-17,74,-58,-75,83,7,-22,3,10,29,-54,-45,-10,-11,57,-104,1,36,-13,37,34,48,711022
87,24,-46,15,-4,-14,165,24,-7,-1,70,40,-224,103,-58,139,-31,-46,-97,114,366,76,-47,-73,248,633,-89,-84,-33,-48,-304,711023
445,45,-120,-37,33,24,534,157,-121,-136,147,139,-56,64,73,512,-152,-191,-460,465,1383,252,-157,-416,1033,2263,-425,-313,-275,-300,-995,711024
505,61,-119,-55,29,20,575,247,-227,-116,319,189,57,-23,67,582,-196,-217,-609,495,1666,272,-238,-525,1165,2808,-519,-410,-406,-387,-1049,711025
398,59,-81,-72,-7,-9,464,318,-266,92,329,133,8,53,20,469,-207,-191,-539,349,1458,189,-268,-458,925,2573,-441,-382,-419,-351,-743,711026
45,43,35,-36,-29,-21,79,57,64,68,-17,-123,140,63,-61,85,-106,-42,-178,-54,464,-43,-172,-126,93,1068,-103,-171,-238,-129,16,711027
-77,29,52,4,-36,-24,-42,-164,180,-21,-247,-89,25,45,-31,-41,-22,36,29,-154,38,-83,-85,38,-204,333,45,-39,-84,15,251,711028
-27,37,48,17,-21,-8,31,-155,10,-43,73,-85,41,-57,-8,9,5,48,53,-102,75,-41,-49,43,-133,324,55,-14,-48,39,99,711029
-50,20,54,17,-20,8,2,-208,-11,25,-131,-92,-33,71,-32,-22,10,46,58,-123,-13,-52,-33,65,-193,148,73,6,-37,54,150,711030
-39,8,52,-11,-13,20,-24,56,41,-60,-76,-75,-51,50,-12,-24,19,44,70,-118,-14,-33,-13,53,-176,95,69,6,-15,56,163,711031
-6,12,55,-6,0,26,-27,99,45,21,-33,2,54,-27,34,13,12,36,56,-77,51,-1,-5,34,-104,189,38,4,-16,46,61,711032
249,41,-29,-18,25,42,273,152,-16,9,128,61,-66,-17,40,285,-82,-87,-211,209,775,140,-89,-223,493,1348,-217,-155,-162,-129,-574,711033
487,57,-120,-79,23,33,550,326,-195,-145,279,210,-83,91,53,590,-198,-223,-553,485,1662,271,-209,-525,1156,2830,-501,-371,-381,-365,-1102,711034
525,60,-105,-129,10,32,530,322,-176,-25,190,159,-190,87,82,670,-237,-232,-644,530,1907,291,-255,-578,1279,3361,-544,-437,-466,-419,-1086,711035
386,43,-61,-133,-17,8,321,60,-159,-90,224,123,-184,26,62,516,-201,-176,-537,368,1556,202,-245,-462,949,2970,-426,-390,-429,-350,-763,711036
-12,24,64,-65,-40,-19,-147,-133,66,-88,-88,-76,15,-81,13,75,-35,26,-80,-74,340,-33,-104,-15,-35,1132,6,-101,-148,-42,276,711037
-161,19,115,-23,-40,-20,-306,-47,138,86,23,-129,94,-59,-3,-101,38,106,153,-202,-224,-104,-3,176,-415,202,176,51,50,120,474,711038
-129,15,107,-1,-19,-8,-240,92,80,156,-152,-170,202,-44,33,-96,34,81,147,-166,-236,-100,8,150,-363,136,147,58,85,108,371,711039
-129,27,90,23,-15,-1,-196,108,132,25,-98,-206,42,3,-15,-103,31,59,146,-154,-286,-107,-4,141,-367,42,137,60,94,102,345,711040
-108,34,68,43,-10,5,-127,191,112,29,44,-35,56,-121,-48,-85,19,39,96,-129,-249,-108,-16,105,-318,87,92,27,71,59,318,711041
-120,16,65,32,-23,2,-136,-28,23,57,81,-30,5,-142,-35,-78,23,45,101,-122,-266,-92,4,97,-307,44,100,46,84,59,300,711042
54,14,14,-9,-10,2,60,146,-16,119,239,32,82,-27,-35,109,-22,-31,-40,76,238,30,-37,-62,113,779,-58,-41,2,-39,-236,711043
500,41,-114,-68,31,39,560,485,-167,19,394,202,0,20,85,578,-204,-240,-517,524,1573,274,-212,-519,1147,2889,-500,-348,-324,-366,-1204,711044
625,65,-130,-92,36,34,663,485,-179,-15,514,234,-285,-26,68,738,-253,-253,-684,622,2042,346,-289,-643,1425,3735,-613,-451,-475,-471,-1236,711045
475,73,-75,-89,17,8,496,254,-177,11,278,132,-138,-37,75,628,-188,-158,-568,457,1754,275,-244,-490,1114,3387,-459,-372,-420,-366,-825,711046
1,54,59,-42,-24,-29,-31,-221,119,-167,-175,-140,135,-177,-13,117,-39,23,-121,-74,450,-4,-116,-56,25,1408,-29,-102,-170,-72,229,711047
-150,32,85,-8,-33,-40,-181,-257,66,-288,-169,-176,181,-81,-10,-73,15,71,91,-227,-76,-93,-46,99,-341,513,122,7,-32,66,411,711048
-108,38,80,3,-27,-28,-124,-31,-1,-212,15,-115,179,76,-70,-46,14,57,89,-197,-60,-71,-32,73,-279,489,93,26,-1,81,256,711049
-92,31,50,-10,-26,-42,-83,9,27,-25,114,-49,-64,-62,-37,-21,11,51,76,-152,-5,-41,-32,44,-215,533,71,22,17,79,101,711050
-76,15,55,-17,-8,-25,-93,-115,-21,57,22,-28,12,-32,-23,-8,34,78,92,-131,-2,-13,4,61,-188,511,94,43,29,104,169,711051
-29,11,53,-17,-5,-7,-39,115,21,33,3,-123,48,22,-8,20,47,66,76,-90,74,14,17,45,-101,586,60,43,33,84,105,711052
-43,21,63,6,5,3,-2,260,27,50,-79,-181,115,104,17,-28,28,43,77,-122,-21,-25,-13,48,-162,475,60,45,31,79,132,711053
41,36,29,19,18,18,132,19,3,88,32,-38,214,21,44,64,-26,-16,-15,-19,223,14,-46,-62,48,867,-45,-29,-27,1,-71,711054
65,30,9,-18,4,15,59,5,-83,143,121,-59,78,-4,-54,86,-66,-50,-103,3,313,-8,-88,-122,109,1067,-106,-95,-97,-71,-170,711055
15,9,26,-33,1,2,-114,-205,-214,-106,68,-62,94,-120,-26,62,-6,12,-13,-18,155,-17,-40,-19,-10,829,-7,-22,-22,-4,13,711056
-51,11,64,-15,-3,1,-203,-110,-75,-41,182,-43,72,-114,69,11,59,72,141,-51,-79,-33,35,116,-165,449,129,97,85,100,241,711057
-86,1,50,-32,-28,-33,-221,143,21,-92,-62,-47,82,-156,57,-21,23,40,113,-70,-150,-85,0,97,-211,337,102,68,75,65,175,711058
-89,12,64,-9,-25,-37,-225,145,36,-71,-280,0,54,-99,66,-19,35,46,113,-44,-153,-66,18,93,-193,338,101,63,81,69,200,711059
-68,32,52,5,-10,-23,-190,38,-19,66,-5,19,89,50,0,20,44,60,129,6,-103,-32,42,90,-139,399,110,75,103,74,249,711060
-87,-1,32,-18,-20,-23,-203,-70,-49,-136,131,-2,18,110,-93,-16,23,43,108,-29,-157,-56,6,71,-182,307,103,65,87,49,192,711061
-48,-5,44,-25,-12,5,-136,-141,21,98,-159,-2,134,25,-59,-2,30,46,101,-13,-138,-39,9,74,-149,320,96,67,96,48,220,711062
-85,-2,75,13,10,19,-136,-90,64,45,-200,-51,-10,-118,-8,-86,29,47,137,-101,-322,-84,13,107,-301,39,117,79,103,60,295,711063
-307,-21,105,41,-10,-5,-380,-387,134,10,-5,-110,6,38,-104,-336,74,110,323,-350,-953,-221,53,274,-796,-982,285,195,213,186,634,711064
-320,-14,90,54,-10,-4,-396,-260,76,-35,0,-100,76,-47,-83,-332,126,153,412,-332,-1057,-186,121,351,-803,-1247,348,279,307,260,676,711065
-294,-28,68,56,-1,-7,-341,-261,176,-148,-278,-91,212,-182,-51,-303,132,151,407,-292,-997,-157,141,337,-720,-1237,328,288,324,253,627,711066
-61,-9,17,53,32,8,-39,44,29,54,-64,8,-12,132,7,-84,62,59,205,-63,-382,-23,98,129,-209,-345,122,158,207,127,159,711067
71,5,-18,40,32,21,112,183,-41,53,66,71,-4,95,-48,44,-2,-23,7,31,42,37,32,-33,98,328,-27,38,58,-5,-181,711068
52,6,-22,22,21,10,105,126,10,-69,-9,78,-192,84,-27,28,-7,-19,-20,-11,51,34,17,-48,83,377,-35,26,23,-10,-71,711069
5,12,-12,7,11,4,59,61,-36,-58,-58,34,-112,19,19,-3,21,29,38,-60,-29,33,42,12,13,262,19,59,61,38,12,711070
15,18,13,19,32,22,67,212,53,61,109,26,-54,62,21,15,28,48,58,-39,10,43,54,30,53,321,33,71,71,62,5,711071
1,8,15,1,24,12,78,100,117,-62,63,-52,-19,3,45,-2,32,38,64,-53,-18,20,51,36,13,267,41,63,79,57,30,711072
-120,5,63,24,17,18,-31,-20,52,41,-173,-60,115,61,-68,-118,75,81,173,-158,-331,-49,94,140,-242,-234,145,119,127,124,354,711073
-298,-20,86,56,1,2,-245,-203,6,192,-119,-94,-31,-41,-108,-318,112,136,317,-327,-876,-158,139,279,-656,-1091,285,201,217,223,630,711074
-275,-11,83,76,14,9,-326,-358,82,124,-85,26,-93,147,-113,-325,121,137,350,-295,-959,-161,144,308,-675,-1279,306,244,269,243,569,711075
-198,-11,84,67,30,36,-316,-372,205,244,32,-30,22,14,-41,-268,102,97,316,-213,-848,-128,129,258,-544,-1165,256,230,253,208,481,711076
-50,-18,34,33,40,40,-140,-150,129,46,-59,2,85,-89,-10,-105,63,52,184,-44,-459,-38,96,126,-214,-587,133,144,185,114,146,711077
82,-6,-19,12,57,48,44,292,-17,9,9,63,-99,-64,28,20,-11,-26,25,80,-73,0,40,-25,79,36,-9,36,66,-6,-102,711078
81,7,-19,8,49,45,53,274,50,40,-61,79,-103,-38,19,5,-14,-30,7,67,-70,-19,20,-27,43,86,-10,16,33,-25,-34,711079
62,14,1,19,48,50,79,257,-21,157,-81,-31,148,-133,33,11,24,-2,15,74,-80,-13,42,-8,21,68,18,18,38,-13,29,711080
57,18,8,29,43,36,77,120,9,29,102,-76,123,-65,45,18,21,2,1,80,-64,-3,52,-20,33,99,4,19,22,-17,38,711081
46,17,-7,16,22,14,41,146,-75,-90,-51,45,-39,75,24,21,2,-8,-5,77,-28,-7,23,-32,57,172,-7,8,8,-36,-52,711082
20,10,13,-4,23,25,-38,-11,-155,-64,22,132,92,89,44,20,4,7,26,59,-53,-8,20,11,26,118,27,38,36,-16,36,711083
-132,-6,32,-9,3,5,-216,-53,-64,33,65,-19,154,71,-26,-113,54,68,159,-89,-424,-80,63,147,-269,-479,165,139,116,88,376,711084
-218,-15,52,8,-1,-6,-303,-226,164,-67,-166,-110,77,124,-4,-217,101,122,287,-181,-724,-121,118,262,-476,-1001,272,220,219,183,531,711085
-180,-26,35,26,13,0,-249,-139,95,-10,-51,-21,39,-13,10,-183,97,111,267,-138,-642,-80,121,226,-361,-928,225,207,230,174,453,711086
-14,-6,-9,28,32,11,-43,-31,-42,13,88,131,14,117,41,-10,60,46,118,39,-171,28,87,86,13,-246,73,126,149,80,68,711087
50,6,-38,15,25,3,62,153,-60,24,186,94,-14,92,47,52,24,6,2,74,75,66,50,-10,195,153,-17,59,58,2,-98,711088
1,9,-44,3,13,-23,59,124,-41,148,51,18,72,99,4,11,27,9,4,10,34,58,54,-2,145,106,-7,47,49,5,20,711089
0,6,-43,4,2,-27,67,156,56,-107,187,109,32,146,54,41,48,44,29,25,80,103,83,26,176,164,21,84,73,45,-22,711090
-18,11,-15,8,5,-21,-11,186,-6,-16,85,85,18,118,28,19,66,70,87,-2,1,101,81,81,130,36,71,126,101,94,137,711091
-63,-12,-17,0,-8,-32,-105,-18,-71,-27,-79,21,10,-56,-53,-81,24,32,87,-87,-171,14,41,70,-21,-193,65,93,86,85,136,711092
-5,-9,-27,6,6,-16,-66,64,-148,-194,-104,24,-161,-171,111,-15,12,11,30,-6,-39,42,36,23,96,-2,7,54,61,49,68,711093
-73,-6,19,11,18,10,-113,31,-4,-148,-22,-42,-133,-4,77,-47,58,56,98,-37,-171,21,60,97,-14,-225,82,104,90,91,203,711094
-126,-15,20,7,7,2,-129,-130,88,-202,175,-47,23,74,53,-99,76,77,156,-67,-307,-13,87,128,-129,-472,119,140,121,118,269,711095
-54,-2,22,19,29,29,-69,-165,81,-186,28,25,80,148,21,-65,66,49,132,-16,-260,-10,102,97,-79,-408,98,118,110,85,173,711096
-21,-6,10,5,27,22,-38,-51,41,-26,109,57,155,-141,43,-33,38,7,64,25,-173,-22,58,37,-20,-265,42,57,64,44,-111,711097
23,5,-7,13,33,15,45,35,-57,-61,76,77,-66,-144,94,26,15,-3,4,89,-23,-2,38,0,87,-18,0,11,12,-1,-79,711098
-14,-5,-20,10,12,5,27,-35,-66,46,119,14,-44,145,10,0,-10,-16,13,45,-88,-31,19,6,18,-105,9,12,-2,-13,-57,711099
35,12,-6,10,26,36,40,-15,-16,-46,14,39,62,-6,-68,6,-9,-15,14,46,-80,-27,12,-6,27,-73,6,4,6,-26,-69,711100
30,13,2,-2,20,31,16,156,-61,-5,-95,-67,-57,-144,-33,-4,-10,-12,34,47,-90,-43,11,4,11,-91,22,22,10,-17,-31,711101
33,29,11,18,37,27,7,207,46,-192,64,11,9,-192,-60,9,6,-3,30,57,-59,-33,23,15,24,-51,28,37,14,-12,-3,711102
-39,21,16,9,25,10,-98,-64,-6,-205,-172,6,98,4,-24,-68,21,16,51,-30,-249,-78,36,54,-126,-337,66,42,38,15,159,711103
-122,18,45,21,14,1,-165,-108,-4,-7,9,16,-1,48,-35,-129,62,75,157,-94,-459,-80,77,152,-277,-698,156,118,111,103,291,711104
-189,-3,42,12,-17,-14,-221,-90,-22,18,-354,-107,-144,0,-61,-206,82,84,242,-168,-652,-114,106,217,-412,-1050,209,169,169,140,338,711105
-161,1,34,25,6,-1,-210,-81,25,123,-183,34,-173,45,-60,-177,111,92,249,-123,-615,-75,142,216,-344,-1041,203,178,199,149,303,711106
-25,2,-15,9,12,13,-58,-41,-54,76,-56,150,-110,120,18,-30,61,35,103,21,-212,27,97,78,5,-444,51,105,118,64,-30,711107
37,22,-13,3,24,23,18,-12,-163,134,135,63,-85,79,28,45,29,17,22,85,39,83,64,7,191,-55,-10,67,63,24,-74,711108
-5,17,-13,4,8,18,0,-108,18,39,61,113,5,-14,60,23,11,1,1,63,71,85,30,-6,194,11,-28,44,33,2,-50,711109
-31,23,-3,11,10,9,-13,-84,53,6,49,67,105,169,30,0,25,10,18,36,36,84,34,14,160,-38,-6,52,42,22,45,711110
-48,29,-20,20,-2,-8,-17,-249,-4,-14,58,23,-28,67,-45,-21,22,7,12,-8,0,59,36,10,110,-97,-6,38,29,10,128,711111
-40,37,-12,29,2,2,17,-142,-79,10,15,1,59,69,20,4,19,1,5,4,36,62,51,-2,144,-36,-11,33,21,13,3,711112
-110,1,11,-2,-12,-10,-165,-190,-13,16,-132,1,-55,-93,-77,-131,17,28,68,-133,-303,-41,20,85,-139,-549,71,63,42,66,183,711113
-202,1,68,31,-11,-13,-337,-130,89,37,-161,-87,61,-189,-80,-291,95,119,282,-266,-820,-119,86,280,-526,-1392,252,204,202,216,589,711114
-236,-8,70,51,3,-5,-308,62,64,52,-77,-140,130,-179,16,-322,124,133,351,-255,-952,-127,139,327,-599,-1676,296,248,260,250,578,711115
-190,3,57,61,17,11,-196,170,83,188,-17,-129,35,-35,1,-266,108,102,302,-174,-828,-107,138,268,-465,-1530,253,220,243,212,389,711116
-45,23,6,37,28,23,21,158,-2,-62,160,30,83,139,35,-70,46,21,119,23,-350,-18,82,96,-64,-789,87,114,147,82,81,711117
59,21,-39,18,31,22,143,-80,14,15,149,69,74,227,53,45,-4,-30,-8,133,7,38,28,-23,192,-198,-43,22,30,-19,-148,711118
38,18,-36,8,27,24,68,-58,22,-19,63,3,-74,191,-25,17,16,-9,4,91,-55,25,50,5,106,-279,-11,28,37,-3,-60,711119
17,1,-45,-26,6,4,-55,31,-46,-111,-137,116,-122,113,-16,6,-4,-23,-19,68,-66,14,37,-4,85,-276,-23,15,10,-12,-73,711120
7,9,-31,-26,3,-5,-139,101,-87,-6,-238,24,-42,115,-52,26,1,-10,-3,86,-59,6,34,9,93,-252,-3,30,17,5,-95,711121
3,28,-15,-2,17,-4,-169,121,102,-61,-117,16,-37,208,33,26,31,24,20,81,-60,9,49,44,76,-279,31,49,44,35,-77,711122
-17,13,-4,5,2,-2,-122,58,15,10,18,67,-114,-72,37,0,54,53,85,58,-127,15,86,94,15,-392,75,94,88,75,76,711123
-215,-4,70,38,-8,5,-209,-49,135,12,-354,-133,-37,-293,-28,-280,80,107,252,-209,-800,-148,110,260,-530,-1413,237,183,177,160,590,711124
-291,-5,67,55,-5,2,-217,-278,157,43,-312,-112,47,-156,-64,-386,91,89,299,-296,-1056,-208,122,294,-703,-1872,263,200,217,188,524,711125
-229,12,53,64,11,15,-142,105,82,85,-189,-88,-87,76,22,-298,110,86,289,-204,-890,-124,146,264,-526,-1715,241,211,231,193,343,711126
-37,7,-7,43,26,31,-4,220,-29,-24,131,-16,-25,11,56,-128,23,-10,87,-26,-387,-27,65,62,-110,-970,48,74,108,52,-65,711127
92,3,-32,25,43,46,64,37,-38,72,73,41,-83,-155,47,-36,-57,-84,-81,49,-33,12,-6,-96,147,-399,-99,-31,-20,-70,-218,711128
165,-1,-26,7,47,61,111,113,16,211,177,119,99,-81,105,60,-50,-67,-120,128,221,74,-6,-121,316,-19,-127,-50,-48,-91,-280,711129
121,11,6,23,38,62,65,221,-1,191,59,101,151,30,38,46,14,-15,-22,89,131,84,29,-20,240,-152,-42,19,-2,-34,-79,711130
118,21,-14,21,19,48,123,248,-82,-76,11,74,-22,18,87,46,-29,-63,-70,90,203,76,-19,-69,280,-21,-102,-23,-40,-75,-248,711131
132,25,-40,12,19,23,151,49,-66,2,4,50,-91,-101,41,60,-80,-85,-148,94,274,67,-77,-128,314,129,-155,-81,-94,-113,-275,711132
4,6,-18,12,-12,-7,13,-135,-48,-4,110,-37,54,50,-40,-30,-22,-18,-50,2,19,19,-6,-25,77,-229,-44,-22,-44,-53,-23,711133
-81,9,22,24,-16,-16,-82,-15,29,16,-6,-2,74,51,-33,-85,79,76,120,-45,-246,1,93,117,-107,-647,100,97,80,84,172,711134
-55,17,13,25,5,-9,-24,-39,101,12,-82,2,2,5,31,-59,83,71,127,-9,-227,19,111,123,-56,-629,102,105,110,99,159,711135
-40,16,-5,23,-8,-16,62,85,114,56,-43,95,-144,143,-33,-48,20,26,62,12,-153,-1,46,55,-7,-502,31,50,50,47,51,711136
8,11,-26,18,-8,-4,114,28,-2,73,52,102,-119,115,-49,-20,-15,-12,-9,43,-60,-9,-8,-11,66,-315,-28,-11,-5,-7,-55,711137
62,9,-39,8,1,1,155,-185,46,-17,165,-13,-14,4,-40,15,-46,-61,-85,67,76,5,-39,-95,149,-84,-97,-69,-57,-73,-227,711138
49,12,-37,20,5,9,130,-90,-52,-25,43,-28,59,-114,13,-14,-72,-78,-123,33,30,-37,-54,-112,90,-118,-108,-93,-93,-94,-164,711139
34,8,-38,17,-4,4,168,31,-46,-54,47,-29,-178,-8,84,-24,-65,-78,-129,24,27,-49,-54,-102,76,-113,-115,-84,-98,-89,-153,711140
54,34,-13,43,8,12,229,111,13,6,-117,54,-167,175,155,4,-40,-42,-104,42,31,-27,-31,-66,90,-96,-73,-64,-63,-56,-109,711141
32,9,-24,28,1,1,195,45,46,41,-108,51,-135,312,5,-1,-34,-38,-80,44,32,-27,-33,-64,76,-104,-67,-67,-61,-53,-43,711142
13,10,-37,4,-21,-20,117,-155,69,91,75,-53,-18,210,-75,22,-1,-7,-58,70,64,0,3,-42,105,-65,-51,-42,-33,-20,-56,711143
153,32,-53,-5,1,1,163,77,-17,73,52,144,-105,146,64,183,-3,-26,-134,228,441,119,13,-114,404,511,-130,-74,-70,-64,-308,711144
219,31,-49,-19,8,17,175,210,-166,34,369,95,66,184,65,247,-55,-75,-235,276,671,142,-60,-217,541,904,-207,-149,-155,-138,-443,711145
191,40,-34,-26,3,18,128,156,-203,-66,266,63,-76,97,116,198,-83,-97,-242,218,625,108,-98,-220,471,878,-205,-168,-191,-154,-447,711146
25,10,3,-47,-24,-1,-25,-34,-38,-48,101,-60,-99,-63,51,53,-26,-11,-78,48,209,41,-36,-56,126,261,-49,-53,-96,-43,-118,711147
-40,13,39,-15,-19,5,-30,30,-8,-225,-197,-96,-148,172,-57,19,62,81,86,31,6,62,52,87,-17,-128,88,71,30,71,93,711148
23,24,16,-9,-4,8,48,35,-55,-156,-87,-70,-38,-14,-38,32,-7,9,6,51,117,38,-10,-12,67,6,-16,-3,-29,-2,-69,711149
35,18,11,-4,7,8,5,-95,-58,-99,-48,3,-8,-109,-37,-10,-45,-37,-37,9,63,-17,-49,-49,17,-58,-65,-40,-75,-52,-112,711150
16,-6,3,-32,-9,0,-53,-98,-10,-252,-120,-12,60,23,0,-37,-50,-57,-63,-16,20,-35,-62,-63,-24,-113,-66,-53,-80,-66,-119,711151
32,15,18,0,7,9,-48,-5,-40,-66,-56,-33,-1,-18,-9,-12,-29,-28,-45,9,47,-9,-44,-43,13,-87,-38,-40,-64,-40,-56,711152
130,21,-36,-11,0,-7,119,-25,-58,-24,47,99,-19,-59,41,124,-52,-67,-140,145,393,68,-74,-154,302,468,-138,-91,-118,-100,-371,711153
237,32,-70,-45,-11,-13,268,205,-220,-68,160,163,-27,71,71,272,-109,-123,-283,271,796,135,-119,-284,597,1174,-262,-190,-220,-198,-639,711154
222,28,-66,-50,-18,-25,280,335,-184,-123,-56,20,15,-67,73,272,-129,-130,-296,257,820,121,-143,-298,584,1301,-274,-218,-240,-215,-492,711155
145,13,-77,-51,-35,-57,221,341,-224,-137,-386,-35,-31,-47,14,234,-110,-102,-265,185,708,88,-143,-249,456,1181,-226,-190,-223,-189,-359,711156
-19,18,-15,-4,-37,-50,9,31,-172,98,-187,-69,26,55,-33,53,-34,-5,-83,-4,219,6,-57,-60,58,435,-42,-60,-98,-47,47,711157
-72,17,27,10,-38,-35,-76,-73,-38,83,-184,3,70,-55,-72,-4,26,54,37,-38,-5,-6,4,56,-90,53,62,10,9,55,150,711158
-88,7,38,-13,-48,-44,-82,-218,-106,130,-115,-23,52,-62,-14,-22,39,57,69,-34,-69,-10,16,65,-116,-70,71,33,35,68,153,711159
-69,2,33,-18,-37,-43,-36,-253,-31,77,-14,16,14,133,38,3,31,52,55,-18,-36,2,17,44,-78,-41,44,38,41,62,115,711160
-63,-9,14,-20,-33,-47,-1,-119,45,34,-117,29,-25,30,27,-8,17,28,40,-32,-23,-12,8,23,-75,-34,26,14,25,41,21,711161
-64,-17,16,-5,-23,-20,17,-6,-92,-7,-50,-84,-5,-147,-37,-46,0,2,18,-65,-80,-46,-6,0,-122,-116,4,-18,-4,20,40,711162
-32,3,26,28,-4,0,16,-75,-55,135,-55,-85,13,41,-56,-64,-15,-11,-6,-66,-103,-44,-20,-19,-126,-141,-7,-25,-21,10,-29,711163
78,8,-12,15,-2,-10,97,107,35,191,-4,57,7,14,70,69,-43,-38,-92,62,214,28,-47,-108,139,348,-92,-86,-64,-52,-212,711164
78,-5,-32,-5,-18,-27,93,235,30,71,195,55,109,37,8,104,-31,-35,-115,93,301,66,-48,-105,199,501,-102,-83,-73,-50,-163,711165
37,-7,-24,-9,-30,-37,59,28,41,-35,1,11,78,-52,15,62,-28,-22,-63,43,203,28,-48,-70,96,375,-49,-55,-65,-42,-72,711166
-24,12,15,1,-24,-32,4,-64,59,92,-27,-28,-19,-64,-8,17,8,31,29,-6,40,0,-4,7,-31,96,43,3,-11,21,123,711167
-40,0,13,-18,-24,-28,-33,-177,37,143,-93,0,63,29,51,40,47,66,70,32,24,30,29,53,-41,35,75,34,43,65,50,711168
11,-20,13,-47,-18,-17,-41,-56,8,-161,-107,-21,-38,123,1,88,46,46,32,91,130,57,33,20,40,182,41,17,22,38,-64,711169
11,-19,20,-40,1,1,-45,-99,50,-162,-231,-86,-60,13,-32,28,-17,-13,-38,34,74,-14,-29,-49,-18,120,-23,-48,-42,-36,-79,711170
21,-13,15,-2,12,22,-10,-18,15,52,-246,-71,61,-150,-36,-17,-59,-56,-54,-8,3,-60,-70,-71,-76,39,-55,-75,-78,-73,-107,711171
66,5,4,16,20,24,56,80,25,108,-37,-11,28,27,-41,31,-53,-52,-61,42,110,-17,-66,-94,11,209,-64,-73,-82,-81,-81,711172
74,10,-7,4,14,22,90,99,-10,202,53,82,5,204,-47,66,-62,-70,-96,68,230,-4,-69,-130,93,398,-98,-99,-106,-113,-142,711173
121,10,-38,-10,10,7,152,5,-4,91,1,117,10,168,-42,144,-75,-76,-154,130,424,41,-74,-169,243,710,-134,-127,-131,-143,-253,711174
121,10,-44,-10,-10,-7,161,74,-85,141,193,94,-6,215,-38,173,-58,-57,-164,138,479,64,-77,-163,275,835,-134,-126,-132,-124,-233,711175
82,2,-33,-26,-17,-23,102,63,-113,-68,42,15,66,-11,33,110,-78,-71,-194,67,412,28,-108,-176,195,767,-154,-157,-166,-134,-226,711176
-6,-5,2,-13,-13,-15,-42,-56,0,-94,-76,-82,81,-109,-14,-30,-79,-51,-123,-75,99,-46,-102,-95,-68,315,-93,-112,-131,-91,-13,711177
-18,-13,34,-10,-7,8,-74,-137,3,-24,-17,-71,47,93,-25,-46,-29,-13,-37,-100,-21,-38,-54,-31,-130,96,-18,-41,-61,-19,44,711178
-13,-11,48,-8,0,23,-50,-22,111,-62,-48,25,83,-146,12,-27,6,22,25,-83,-30,-14,-8,10,-116,47,7,5,-4,21,129,711179
-37,-28,35,5,-1,3,-21,-28,201,101,17,-43,-46,-124,-23,-49,-4,5,29,-86,-58,-30,-11,9,-129,1,4,-7,1,21,72,711180
-33,-33,21,8,-6,-2,8,-69,175,23,166,-72,31,-143,-15,-63,-18,-4,-4,-92,-39,-14,-27,-27,-123,13,-20,-27,-18,-9,48,711181
-44,-32,21,-5,-14,-8,15,-94,48,168,189,-22,152,-237,57,-66,-26,-4,0,-106,-86,-29,-31,-20,-145,-48,-14,-27,-12,4,63,711182
-22,-23,15,1,-3,0,34,190,56,50,36,72,109,-57,60,-30,-24,3,4,-60,-27,-15,-23,-14,-77,38,-7,-14,-11,12,84,711183
-52,-36,-4,-16,-19,-19,-42,105,39,-163,-271,-26,102,-56,-11,-41,-11,-1,3,-56,-43,-27,-20,-6,-98,6,5,-16,-16,16,89,711184
16,-18,9,-3,14,5,17,43,47,-41,-215,70,96,-43,77,32,-12,-3,-18,15,109,7,-9,-35,34,241,-31,-31,-19,1,-46,711185
22,-31,-3,-5,-2,-10,29,18,11,-149,-54,-49,124,-159,-30,14,-54,-37,-58,-20,82,-30,-58,-73,-7,246,-70,-70,-81,-48,-89,711186
-36,-34,4,9,-13,-21,-13,-26,11,128,-85,-55,-125,-110,-40,-30,-23,-11,19,-49,-61,-58,-17,-7,-129,14,1,-24,-33,-1,120,711187
-51,-32,-3,9,-27,-30,-1,-85,47,168,51,71,-30,-78,-4,-36,-19,-31,13,-53,-100,-77,-21,-5,-144,-37,-4,-35,-31,-14,51,711188
-10,-5,6,24,-4,-10,44,-74,9,45,120,38,58,121,11,12,-13,-27,-12,-16,-21,-50,-20,-29,-88,77,-16,-46,-50,-36,-12,711189
-14,-15,-15,-8,-17,-21,22,9,-4,-52,38,-5,-188,22,-9,48,5,12,-6,34,48,-15,-8,-22,-53,168,-6,-36,-30,-16,-54,711190
16,-25,-6,-26,-4,-13,-9,-119,16,115,-33,72,58,87,25,90,58,67,51,84,80,28,57,38,-18,202,45,23,20,38,33,711191
84,-27,-25,-35,-2,-6,45,-96,-27,-49,106,146,-11,143,59,163,54,49,22,161,241,81,70,2,107,427,15,6,5,8,-34,711192
17,-11,16,-11,-4,1,-9,-88,-7,29,130,119,42,-5,83,67,47,45,42,58,69,22,40,34,-39,177,37,13,8,7,61,711193
-30,-34,-2,-16,-8,-14,-31,-207,-12,4,41,-34,78,-80,54,-7,-24,-30,-3,-22,-15,-44,-35,-18,-109,61,-13,-28,-35,-40,-21,711194
8,-33,-6,-21,-10,-5,4,-273,-28,-100,206,-44,78,112,-48,14,-63,-53,-61,-10,85,-38,-72,-73,-32,232,-64,-69,-80,-82,-79,711195
20,-35,-11,-26,-4,-2,-13,-57,8,-74,120,45,157,-51,-91,8,-25,-26,-33,-13,83,-12,-33,-44,-32,216,-33,-44,-45,-48,-14,711196
-28,-46,13,-17,-5,-3,-81,-62,19,68,-224,1,-50,-59,-64,-69,-17,-11,9,-101,-93,-44,-22,-4,-179,-62,3,-14,-18,-11,94,711197
-7,-44,6,-17,2,6,-65,34,-51,126,-151,-94,-56,-115,-54,-67,-55,-50,-40,-107,-54,-58,-58,-64,-131,9,-55,-52,-58,-56,38,711198
29,-37,18,2,15,12,-15,-56,1,-82,55,-35,-18,-12,-89,-39,-46,-44,-50,-68,23,-23,-58,-63,-63,127,-53,-57,-52,-47,-53,711199
-8,-32,21,12,-2,-7,2,-84,3,23,93,-78,66,-54,-52,-47,-5,3,15,-68,-28,-14,-18,-8,-95,25,0,-11,-9,5,1,711200
-6,-18,24,6,5,-3,37,-193,29,193,79,-56,-3,-49,50,-27,24,28,50,-49,-20,13,14,35,-81,-6,38,28,22,39,149,711201
-9,-22,24,12,7,-6,40,-278,-32,43,19,9,21,28,-62,-33,1,13,37,-56,-44,9,-5,14,-85,-23,21,17,0,18,126,711202
-6,-41,7,-4,-2,-12,20,67,-73,-102,84,-25,-38,88,17,-38,-26,-32,-12,-68,-24,-23,-32,-32,-75,10,-25,-25,-37,-30,-4,711203
42,-28,-5,-17,1,-1,37,50,-52,36,266,-39,6,-1,63,54,-13,-25,-35,15,160,38,-26,-55,63,289,-42,-33,-36,-36,-115,711204
93,-38,-25,-26,5,4,78,48,-24,55,324,33,-16,-6,56,106,-36,-40,-93,62,304,56,-37,-106,172,535,-90,-70,-75,-76,-124,711205
108,-29,-10,-29,8,17,86,-40,-51,6,102,70,24,131,-94,109,-29,-33,-109,71,310,49,-24,-105,158,583,-90,-81,-84,-80,-89,711206
25,-31,8,-23,-5,-10,-2,7,-41,-77,-156,26,22,56,-41,25,-18,-28,-62,-13,80,-16,-33,-52,-35,277,-47,-57,-51,-48,-43,711207
-35,-38,9,-5,-14,-31,-53,-38,65,105,-82,-6,182,-35,6,-48,-25,-25,-7,-77,-104,-64,-40,2,-177,10,-2,-38,-19,-15,104,711208
-67,-35,-8,11,-19,-32,-72,37,37,93,-212,-113,-18,-77,-23,-74,-19,-14,31,-96,-204,-76,-20,40,-238,-131,39,-6,4,9,142,711209
-91,-47,10,9,-18,-31,-97,-26,-17,29,-150,-101,8,101,-66,-117,-8,-1,40,-127,-324,-113,-3,50,-326,-306,70,3,21,17,280,711210
-133,-55,20,-1,-17,-36,-142,-69,139,4,0,-93,48,143,-62,-126,31,35,70,-147,-416,-112,27,78,-390,-461,101,31,49,38,350,711211
-175,-59,34,-6,-28,-31,-200,-42,90,-50,107,-42,37,121,-58,-154,46,52,128,-184,-521,-123,46,124,-467,-644,142,84,81,61,331,711212
-78,-41,26,4,15,1,-110,-131,52,-101,76,3,-103,23,-6,-77,42,39,109,-118,-362,-52,48,94,-308,-447,105,69,87,49,195,711213
-21,-41,3,6,12,2,-43,-166,66,83,-53,-16,-129,-58,33,-32,25,12,25,-75,-213,-18,39,27,-189,-258,31,33,45,-7,61,711214
-20,-36,9,2,10,12,-54,213,41,95,74,54,-123,30,13,-45,22,13,3,-102,-218,-39,29,12,-216,-287,23,31,25,-30,61,711215
-51,-44,26,-3,9,9,-120,123,-6,155,252,-86,-40,37,22,-111,39,34,37,-158,-340,-66,45,46,-319,-522,57,49,40,-15,185,711216
-164,-47,57,9,-8,-12,-229,-2,129,-11,22,-136,31,53,-21,-211,79,83,156,-248,-617,-106,83,154,-533,-990,162,124,115,64,378,711217
-195,-49,45,25,-17,-27,-240,-55,41,-8,-114,11,81,56,20,-220,103,109,239,-237,-693,-97,111,218,-560,-1183,210,185,176,110,398,711218
-178,-40,39,36,-2,-12,-205,-26,115,1,55,6,-39,115,-5,-202,117,116,261,-213,-662,-85,130,226,-492,-1196,222,218,205,124,375,711219
-175,-50,30,33,5,-9,-234,-51,81,11,36,-41,97,-61,-53,-229,76,79,223,-223,-689,-106,107,191,-504,-1241,194,176,176,90,313,711220
-156,-45,36,30,23,5,-241,-187,110,63,210,-60,144,-54,-114,-225,75,68,213,-211,-676,-96,105,184,-486,-1251,174,169,171,87,272,711221
-162,-51,24,25,4,-7,-253,-145,76,108,-12,-117,216,-192,60,-235,81,65,213,-221,-700,-94,112,185,-496,-1327,171,173,183,88,309,711222
-105,-57,10,15,10,1,-154,-229,38,74,-12,-22,-124,-269,81,-181,59,42,176,-163,-566,-74,104,133,-375,-1155,121,148,151,48,251,711223
58,-44,-40,5,26,27,110,-199,-134,-37,-44,29,-175,15,-30,-5,0,-42,-18,13,-67,12,45,-51,34,-375,-52,25,29,-81,-129,711224
86,-20,-28,12,30,22,167,-167,-39,-53,-231,-5,-152,72,5,46,4,-31,-53,48,67,35,48,-68,114,-153,-70,0,3,-91,-140,711225
43,-25,-30,14,26,12,127,-290,46,72,-160,46,-16,209,50,22,10,-3,-30,36,24,23,52,-34,64,-188,-38,6,9,-69,-40,711226
-44,-34,-11,28,13,-6,-31,-126,78,54,-79,83,99,22,-5,-108,-7,-3,4,-93,-265,-75,22,13,-185,-575,17,11,14,-46,136,711227
-83,-40,0,33,11,1,-128,-90,158,-14,152,26,214,-190,-75,-190,-7,-10,29,-178,-476,-133,18,37,-344,-888,42,21,44,-21,145,711228
-76,-34,6,38,16,20,-116,-142,-27,-65,-110,-43,102,-129,-25,-185,-6,-17,53,-170,-500,-119,38,60,-331,-897,48,30,72,-3,169,711229
-95,-32,11,38,-5,1,-104,-201,-47,73,-61,-4,81,-80,55,-181,32,14,121,-157,-530,-92,70,116,-335,-964,108,78,115,41,196,711230
-123,-34,4,33,-19,-41,-106,-181,56,104,16,79,-125,-127,56,-163,48,39,157,-133,-534,-88,87,151,-316,-985,151,114,155,86,174,711231
-127,-50,-1,22,-18,-26,-95,-250,121,112,-60,46,-64,-80,68,-141,48,38,141,-115,-501,-82,78,142,-288,-961,125,117,156,83,211,711232
-44,-43,-4,14,5,7,-22,98,160,126,104,-6,38,-38,4,-49,46,36,75,-20,-299,-6,69,85,-127,-698,74,85,127,56,121,711233
60,-26,-20,21,28,38,99,303,125,2,199,82,-55,59,-9,42,22,-5,-13,88,0,53,44,-7,97,-285,-12,20,71,-6,-81,711234
115,-11,-35,10,30,41,148,151,39,-34,34,77,-5,-73,56,87,-9,-35,-93,128,178,71,22,-73,218,7,-81,-36,-11,-61,-269,711235
140,3,-18,13,32,40,165,27,100,50,223,36,-116,165,86,106,-31,-38,-117,149,267,71,5,-95,259,132,-89,-56,-38,-74,-290,711236
36,-15,-3,-9,3,10,43,-1,191,-39,186,16,-61,143,81,17,-4,-1,-43,57,48,-1,4,-19,58,-215,-7,-14,-14,-32,-57,711237
-89,-19,1,12,-15,-7,-67,-67,112,-71,36,4,-101,-62,-10,-83,66,66,103,-35,-244,-34,81,96,-162,-697,100,80,77,62,245,711238
-89,-13,-10,34,1,-9,-84,84,161,14,-60,-13,22,-202,-67,-85,69,65,115,-42,-284,-41,86,104,-187,-793,119,94,86,71,227,711239
-78,-24,-9,33,4,2,-89,-122,-24,-10,-48,-86,127,-56,-9,-103,27,18,63,-53,-300,-58,43,65,-185,-814,78,51,52,33,129,711240
-54,-27,-7,24,6,24,-66,16,-137,-60,-12,-53,27,101,-16,-96,1,-9,30,-36,-274,-56,22,26,-146,-766,35,20,30,2,58,711241
-5,-5,-4,24,19,31,-11,130,6,2,3,58,49,-22,73,-16,32,31,37,49,-119,23,54,33,-14,-569,46,60,63,24,62,711242
62,2,-27,8,14,10,90,213,49,-17,-97,138,1,11,68,91,14,7,-14,154,143,95,43,-26,193,-192,-17,32,44,-16,-184,711243
314,12,-100,-37,36,24,387,203,-165,6,169,177,-199,188,2,333,-108,-151,-301,383,876,202,-75,-313,761,1005,-292,-164,-169,-225,-795,711244
476,33,-123,-68,53,57,535,258,-238,-36,310,202,-262,110,82,491,-176,-205,-498,501,1360,269,-157,-473,1085,1864,-443,-307,-320,-353,-982,711245
449,30,-114,-80,27,43,483,260,-218,9,169,185,-33,113,85,485,-188,-194,-561,462,1404,248,-191,-481,1059,2049,-461,-351,-369,-374,-824,711246
122,16,-14,-50,-14,5,93,87,-29,-164,-59,-44,132,65,-36,172,-60,-36,-250,130,562,78,-105,-163,334,837,-144,-152,-192,-149,-121,711247
-100,21,62,5,-10,-13,-160,33,49,-205,-133,-123,-98,32,-85,-80,53,83,76,-110,-181,-38,16,123,-220,-336,129,54,37,83,347,711248
-69,14,7,8,-16,-26,-49,175,93,-42,-107,8,-256,-72,-34,-39,25,45,37,-67,-96,-19,4,66,-96,-197,65,27,40,66,154,711249
-39,11,-21,24,-13,-38,27,126,68,91,59,-9,-174,-72,25,20,5,13,3,-10,42,15,2,32,34,-5,30,19,36,52,66,711250
-2,27,-24,11,-6,-36,83,97,22,-62,117,-12,-145,83,33,75,0,0,-40,61,217,60,-13,-6,180,257,-5,-3,27,42,-69,711251
0,23,-16,-11,0,-18,67,18,-3,-23,5,-26,-62,125,-34,74,4,-5,-31,65,214,59,-19,-9,191,285,-10,-6,33,38,-112,711252
41,11,-23,-35,-11,-11,90,209,70,-158,-207,-88,-21,-12,-66,102,-13,-20,-58,86,293,73,-17,-39,247,411,-42,-19,10,22,-197,711253
546,46,-158,-83,34,24,677,493,-168,-307,334,209,-164,158,119,641,-162,-215,-556,646,1728,374,-157,-514,1397,2640,-506,-341,-298,-290,-1319,711254
870,76,-232,-158,44,42,1027,619,-282,-217,376,442,-239,71,200,1024,-311,-368,-992,964,2867,544,-331,-899,2185,4561,-866,-621,-642,-604,-1863,711255
733,80,-171,-158,29,41,771,426,-171,-88,153,226,-123,-214,105,900,-321,-322,-919,764,2608,424,-364,-821,1847,4348,-776,-601,-678,-590,-1431,711256
224,45,-15,-116,-28,-7,115,102,-80,-33,-119,-137,-4,-301,-32,335,-156,-100,-437,197,1181,88,-232,-346,631,2227,-290,-318,-435,-277,-194,711257
-119,35,73,-45,-54,-61,-214,117,115,-20,-169,-224,127,-325,-57,-12,21,88,23,-85,110,-60,-58,64,-159,484,106,-28,-100,48,384,711258
-88,19,34,-42,-52,-75,-116,-46,-1,157,-112,-163,89,28,-19,33,6,59,10,-3,159,-14,-52,26,-62,485,63,-36,-67,49,139,711259
-52,34,46,-32,-32,-32,-97,152,-61,-50,-220,-82,95,53,-6,64,23,70,23,36,200,21,-30,26,-7,478,68,-8,-38,50,145,711260
-55,16,30,-47,-39,-37,-106,-5,-40,-199,-97,33,108,6,-33,70,32,58,34,48,184,16,-7,22,9,435,53,1,-24,48,126,711261
-38,27,26,-29,-18,-23,-58,33,17,-110,-186,-93,-79,-54,-15,88,32,44,37,69,203,33,0,24,48,462,53,4,-12,45,77,711262
20,36,7,-19,-5,-20,5,25,-26,-49,-183,-162,3,-39,-63,117,11,24,-16,98,286,52,-29,-11,121,592,9,-20,-23,16,-155,711263
248,38,-42,-46,7,-8,199,242,-109,-127,211,51,38,74,55,332,-84,-84,-243,297,862,150,-109,-232,603,1517,-204,-165,-161,-135,-611,711264
350,38,-82,-81,-8,-32,216,122,-90,-100,381,111,-21,180,21,460,-156,-154,-426,395,1268,201,-178,-390,879,2238,-352,-277,-304,-263,-810,711265
309,42,-66,-100,-11,-32,100,288,-61,-26,297,32,-41,116,0,441,-137,-125,-411,357,1280,195,-178,-355,842,2319,-324,-267,-301,-256,-610,711266
139,44,17,-84,-12,1,-81,109,-43,-131,123,-76,126,142,45,268,-53,-19,-198,170,824,120,-114,-144,444,1653,-117,-124,-174,-102,-226,711267
-25,14,53,-58,-20,-10,-91,7,-17,-125,-135,-159,90,29,-13,79,15,57,-16,4,304,29,-46,28,65,861,45,-17,-39,45,43,711268
15,27,46,-32,-13,-13,79,60,-43,16,-63,-92,68,-186,-17,103,2,24,-61,53,368,42,-60,-27,150,972,-6,-57,-34,30,-31,711269
-15,30,34,-22,-18,-21,43,166,-90,36,-91,-72,131,-344,-49,66,-19,1,-64,5,271,16,-60,-34,91,853,-24,-78,-44,30,-8,711270
7,32,10,-29,-22,-26,74,309,-94,-24,-43,-100,64,-193,-48,84,-45,-33,-100,36,341,32,-79,-81,158,982,-63,-111,-58,1,-67,711271
-41,29,19,-35,-21,-29,-4,166,-61,-114,-68,-117,152,46,-30,25,-56,-32,-71,-11,221,-5,-93,-45,70,818,-36,-97,-48,23,-1,711272
123,30,-47,-26,-6,-29,154,177,-149,-153,-108,-19,30,21,5,199,-99,-77,-175,173,634,85,-104,-156,415,1434,-146,-144,-102,-36,-329,711273
561,79,-174,-50,28,-15,665,410,-333,-3,165,190,-72,213,50,690,-188,-199,-560,658,1909,366,-192,-521,1409,3428,-502,-380,-351,-279,-1161,711274
733,105,-196,-86,27,-2,885,381,-323,-29,243,245,-130,211,89,953,-221,-250,-767,880,2627,493,-251,-696,1897,4635,-668,-508,-512,-415,-1421,711275
611,111,-147,-106,-12,-33,773,199,-199,-234,198,290,-220,7,154,893,-192,-182,-694,795,2510,449,-246,-608,1718,4573,-575,-473,-515,-361,-1103,711276
258,82,-54,-106,-66,-80,354,-50,-63,-211,94,121,-82,-79,-2,543,-91,-48,-376,441,1616,254,-174,-297,949,3270,-255,-293,-354,-152,-457,711277
125,80,14,-79,-53,-60,150,-155,-41,-120,-118,-57,107,119,2,366,-45,8,-196,297,1116,178,-132,-147,565,2479,-95,-201,-230,-10,-245,711278
