104,-24,-85,-12,19,19,149,-174,-43,-43,-26,109,-248,66,100,38,-33,-54,-129,101,94,39,-5,-96,271,-523,-96,-58,-30,-80,-228,758368
90,-25,-69,-23,27,29,118,-35,3,-15,123,129,-255,-14,-31,66,6,-7,-75,113,97,73,25,-44,260,-526,-52,-11,2,-39,-168,758369
64,-14,-48,-9,37,43,81,121,-33,-102,209,42,-259,168,-77,44,1,-4,-31,101,38,59,32,-27,208,-604,-23,6,14,-22,-216,758370
-15,-12,-38,1,9,28,0,-8,97,-26,67,90,-305,219,6,-44,21,11,50,27,-150,19,51,47,52,-889,38,45,32,25,-24,758371
-95,-4,-17,46,4,-9,-52,-149,-63,-119,-22,75,-139,99,55,-124,99,79,158,-28,-383,2,120,160,-133,-1292,150,126,108,111,193,758372
-72,-13,-37,53,1,-19,-56,-33,-30,-171,-271,-3,30,139,29,-109,78,67,122,-18,-372,-7,95,129,-122,-1290,130,112,98,103,121,758373
-2,-35,-70,5,9,-12,-86,-66,25,-131,-60,22,-140,101,20,-61,12,3,38,23,-202,-6,22,30,11,-1018,14,31,42,18,-57,758374
87,-25,-62,-5,28,20,-72,35,20,26,237,34,-57,2,-37,8,-13,-43,-39,98,22,34,6,-56,177,-664,-56,-20,-12,-46,-172,758375
84,-12,-54,-25,8,18,-75,-30,-69,109,215,55,-156,112,30,59,28,-4,-42,125,105,88,37,-37,217,-553,-27,-5,-3,-26,-141,758376
101,-7,-49,-16,16,30,41,106,-21,-89,373,182,-25,320,57,88,45,21,-28,149,167,115,48,-17,243,-479,-17,21,13,-19,-128,758377
99,-11,-52,-4,26,38,156,183,-23,-73,512,147,166,241,23,69,14,16,-37,122,171,96,18,-32,233,-450,-37,6,-7,-33,-147,758378
96,-6,-43,19,35,28,133,207,-64,-131,20,107,-81,77,58,28,-8,-14,-55,85,118,61,-11,-42,172,-505,-47,-24,-38,-43,-141,758379
76,-10,-59,8,23,10,92,-24,-45,140,-193,27,-203,120,46,30,-7,-15,-64,84,128,53,-10,-42,169,-496,-45,-27,-34,-41,-108,758380
112,4,-86,12,23,4,148,-3,-157,35,-18,19,-132,42,14,128,-11,-14,-106,178,328,109,-7,-90,339,-185,-82,-45,-42,-60,-280,758381
161,17,-106,-10,15,1,182,7,-155,21,161,94,-287,99,39,172,-62,-65,-199,209,498,113,-59,-180,460,157,-165,-117,-114,-127,-372,758382
130,1,-83,-37,-3,-5,117,134,-141,-9,78,83,-288,-55,-1,137,-46,-54,-183,151,407,87,-57,-159,370,66,-141,-106,-129,-119,-293,758383
77,6,-30,-31,-8,1,74,159,51,-112,36,105,-62,-18,59,75,-8,-14,-85,75,227,57,-17,-84,222,-194,-64,-49,-76,-65,-164,758384
17,2,-14,-1,-4,-4,37,93,55,24,43,133,49,-191,21,-14,-35,-34,-55,-3,43,-3,-37,-64,80,-463,-43,-43,-70,-50,-69,758385
12,-4,-19,12,-6,-11,65,105,18,58,83,96,31,-158,23,-12,-41,-35,-65,12,53,-9,-53,-67,87,-455,-54,-51,-81,-53,-61,758386
36,11,-19,26,-3,-1,98,23,-20,85,143,-12,24,-124,-52,22,-25,-24,-78,51,126,17,-47,-73,144,-361,-71,-47,-71,-45,-135,758387
56,5,-24,16,8,7,93,116,-6,138,61,30,-4,-220,-53,46,-14,-24,-72,75,166,28,-35,-71,184,-292,-73,-39,-62,-41,-127,758388
55,-3,-6,12,8,18,68,101,9,104,205,-26,64,-89,-56,42,-4,-7,-44,64,140,25,-17,-40,152,-334,-33,-15,-45,-25,-35,758389
94,-7,-14,-8,16,18,81,-23,48,-38,198,-61,25,-185,54,46,-25,-15,-54,65,147,26,-36,-51,156,-299,-36,-32,-54,-32,-71,758390
163,-13,-50,-24,13,14,145,120,3,-22,140,7,-128,-166,-24,105,-69,-77,-155,110,332,36,-82,-155,291,17,-142,-111,-115,-105,-312,758391
213,9,-66,-38,18,26,199,51,5,-168,69,57,-101,-125,45,174,-112,-133,-276,163,575,61,-128,-266,445,438,-249,-184,-185,-193,-462,758392
216,25,-51,-37,24,24,206,-37,-34,-59,-76,37,-38,53,41,216,-96,-114,-272,183,656,90,-117,-251,482,597,-235,-166,-193,-193,-451,758393
99,12,-47,-45,-15,-18,152,112,-96,-52,-89,10,-31,-6,4,146,-47,-52,-173,109,475,59,-82,-151,312,339,-135,-110,-153,-128,-215,758394
-31,2,-6,-21,-20,-18,94,92,-90,237,50,-38,52,141,-38,50,53,62,23,18,132,50,22,40,54,-222,62,31,-24,32,103,758395
4,2,-5,-4,1,-3,139,-20,-50,133,128,-66,33,99,-9,65,62,70,30,49,136,76,32,41,83,-235,52,30,2,53,63,758396
17,5,-20,-4,4,3,56,35,-19,-77,205,-72,68,-146,14,36,2,12,-40,8,121,32,-32,-22,66,-245,-20,-30,-34,-5,3,758397
-11,-8,-14,-24,-2,-6,-105,-260,8,-84,79,-123,67,-71,-33,-21,-38,-31,-74,-49,33,-18,-86,-50,5,-355,-45,-55,-69,-38,-27,758398
8,-15,13,-18,8,6,-114,-244,-3,-6,17,-64,-5,-104,75,-8,-13,-6,-39,-34,24,-6,-52,-22,-2,-392,-18,-18,-35,-5,19,758399
41,-12,-10,-19,9,-5,-1,-42,-75,-98,105,-21,-59,-76,31,25,-47,-34,-75,-7,122,7,-60,-75,90,-222,-70,-48,-49,-48,-156,758400
212,10,-70,-9,11,-4,298,366,-112,-25,164,75,-13,-56,-3,225,-108,-117,-264,189,668,101,-113,-258,516,640,-253,-171,-141,-183,-540,758401
338,25,-91,-40,21,12,461,235,-113,-138,116,132,132,-11,23,372,-125,-141,-368,334,1086,193,-127,-344,812,1359,-348,-231,-212,-258,-631,758402
290,27,-65,-64,9,11,379,164,-31,-214,36,94,7,40,131,336,-123,-128,-371,283,1024,154,-139,-331,719,1343,-321,-240,-249,-245,-520,758403
165,25,-41,-66,-7,-4,187,140,2,-150,139,12,-122,-25,108,186,-146,-120,-331,117,677,51,-182,-269,412,886,-234,-237,-265,-211,-340,758404
-27,21,12,-34,-22,-30,-73,100,101,-68,-123,-97,-60,72,-2,-4,-45,-2,-70,-58,109,-35,-87,-33,-18,-19,-2,-77,-134,-38,86,758405
-28,-1,10,-27,-25,-25,-77,27,-6,-12,-46,-84,-141,64,-50,-28,-42,-17,-37,-61,47,-44,-81,-44,-34,-158,-22,-72,-110,-33,26,758406
-42,5,21,-11,-20,-18,-86,-36,5,-86,-2,-121,-3,-53,4,-53,-26,-7,-1,-72,-39,-51,-70,-22,-81,-305,-9,-41,-97,-22,43,758407
-45,-1,8,-16,-24,-30,-67,-261,-42,-92,-43,-29,23,-5,-10,-39,-8,13,21,-44,-47,-29,-41,4,-70,-342,14,-11,-43,11,-9,758408
-11,4,0,-4,-12,-24,-30,-215,4,-43,-81,-36,20,114,-20,18,24,30,22,0,48,-6,-24,18,-4,-249,36,10,-18,18,15,758409
-5,15,0,-5,-6,-18,-5,-16,-15,-198,-96,23,84,-53,-10,26,10,15,-7,21,81,-2,-34,-13,45,-182,-2,-9,-34,-1,-55,758410
149,18,-39,-25,12,3,171,128,-106,24,-60,67,-51,-124,64,191,-46,-58,-155,181,512,96,-70,-154,385,503,-155,-103,-92,-102,-358,758411
323,39,-67,-44,36,30,361,218,-84,179,105,11,49,184,45,348,-132,-137,-349,326,1024,167,-150,-336,740,1344,-326,-224,-207,-236,-694,758412
332,34,-78,-80,15,19,392,211,-168,-26,330,12,-122,57,4,363,-160,-160,-409,320,1139,156,-187,-385,780,1619,-360,-277,-275,-280,-750,758413
181,27,-23,-61,1,-1,271,58,-59,46,-90,-151,43,-75,-75,226,-116,-103,-293,151,790,77,-160,-264,456,1156,-231,-213,-256,-204,-299,758414
-44,35,51,-10,-14,-16,25,-67,146,47,0,-96,197,-81,-44,3,-18,31,-40,-85,125,-24,-77,-3,-67,115,14,-54,-120,-18,232,758415
-84,4,27,-25,-32,-27,-59,-117,148,-100,-13,-41,-37,-90,-36,-48,-37,-3,-41,-117,-12,-59,-92,-19,-129,-84,4,-60,-95,-19,52,758416
-74,-13,28,-39,-25,-11,-121,-164,38,1,-111,-50,-20,-98,15,-15,-8,15,8,-86,4,-20,-69,37,-95,-104,61,-12,-25,33,60,758417
-49,-12,16,-38,-19,-23,-121,-167,-15,-51,-140,22,16,-78,-12,25,14,44,25,-38,60,16,-25,46,-30,-38,66,16,23,48,115,758418
-47,-3,1,-29,-24,-32,-104,-255,46,-34,-166,11,-8,-98,26,-39,-32,-12,-44,-82,8,-44,-54,-42,-70,-100,-40,-57,-55,-26,-9,758419
21,8,4,-15,-2,-13,-59,-16,52,-18,-35,176,147,-90,45,7,-36,-26,-98,-30,131,-13,-56,-80,27,77,-82,-96,-66,-40,-73,758420
237,26,-48,-30,24,14,179,276,-64,-7,290,165,70,24,96,237,-113,-113,-292,201,716,102,-118,-272,504,1025,-258,-204,-152,-164,-496,758421
393,40,-59,-70,41,40,364,495,-132,-13,468,222,142,51,125,434,-143,-156,-424,377,1249,211,-151,-375,885,1904,-356,-271,-233,-256,-762,758422
310,33,-47,-86,10,18,342,118,-81,-10,56,180,61,118,31,395,-106,-109,-347,317,1150,192,-132,-316,753,1824,-301,-236,-247,-232,-592,758423
130,50,-8,-39,-1,-9,199,26,-35,-37,162,-34,140,-65,61,215,-67,-44,-212,118,655,76,-108,-184,335,1103,-152,-152,-212,-141,-132,758424
-72,46,51,-6,-10,-35,-66,-272,51,4,40,-177,187,34,-2,8,35,87,49,-78,21,-21,-4,68,-137,80,79,18,-70,45,346,758425
-93,18,15,-15,-32,-55,-104,-242,-15,-11,14,-73,99,25,-69,5,78,105,131,-45,-39,6,52,122,-135,-75,128,74,10,108,271,758426
-70,23,19,-9,-11,-31,-73,-20,81,-123,51,-15,-58,177,-9,37,77,93,131,-5,-7,31,52,120,-74,-63,128,86,41,117,180,758427
-48,8,-1,-22,-6,-14,-70,-130,38,-123,38,-37,-148,52,-59,28,13,39,38,7,61,12,-14,36,-14,46,47,12,-12,38,55,758428
-24,5,5,0,-9,-23,-66,41,49,25,-121,-13,-103,11,-74,2,-15,5,7,-10,53,-12,-32,-10,-27,44,-2,-28,-42,-2,8,758429
17,0,16,-16,-6,-11,-30,238,41,80,5,32,8,-32,-6,55,15,24,14,41,151,43,1,5,59,175,11,-3,-12,21,103,758430
139,16,0,-30,15,13,132,154,12,-21,220,54,168,170,75,221,4,2,-88,201,535,142,-30,-77,358,769,-59,-41,-20,-35,-215,758431
231,22,-45,-46,9,5,262,215,-28,-47,84,59,-45,170,97,287,-94,-107,-300,246,820,134,-131,-260,550,1294,-254,-189,-164,-191,-436,758432
269,41,-53,-44,16,-3,327,151,64,34,244,79,-101,16,115,311,-146,-142,-361,251,943,124,-172,-325,605,1554,-314,-241,-226,-245,-459,758433
148,49,2,-16,15,-8,235,105,-10,-122,185,48,110,-23,73,207,-92,-67,-229,127,665,75,-114,-194,354,1173,-178,-161,-182,-148,-128,758434
-37,38,44,-3,-12,-23,47,108,-9,-127,-97,10,134,-14,58,19,-38,-9,-62,-60,163,-33,-67,-50,-32,418,-31,-72,-106,-50,97,758435
-58,18,21,-10,-16,-26,14,46,-36,-251,-45,-48,54,53,-23,-15,-53,-22,-40,-94,84,-56,-71,-38,-74,286,-34,-67,-88,-40,43,758436
-41,12,17,-20,-20,-37,-8,-122,22,-32,-162,-85,28,-47,-71,5,-15,7,-4,-64,84,-27,-44,-9,-50,251,-7,-30,-34,9,94,758437
-19,11,10,-15,-25,-30,-44,-119,-68,-46,-177,-116,-47,-205,-17,24,-6,5,-12,-55,102,-21,-38,-7,-30,273,-4,-29,-17,6,79,758438
-34,12,11,-17,-26,-22,-65,-131,3,-127,-94,-73,-44,-134,17,33,8,28,25,-47,67,-8,-21,15,-35,220,28,3,18,34,61,758439
-38,18,47,3,-14,-2,-53,-125,48,-110,-64,-83,138,-141,30,6,39,58,74,-65,-20,-7,13,53,-94,55,79,45,35,67,148,758440
29,37,43,13,7,14,81,-9,74,62,53,-10,134,-62,21,61,28,26,19,7,118,30,-4,9,34,284,15,11,21,29,0,758441
134,32,9,-4,13,14,209,25,14,-35,217,3,106,-84,-55,158,-40,-54,-157,98,435,66,-70,-133,273,808,-130,-99,-74,-87,-193,758442
93,31,-2,-5,9,10,119,27,-108,-1,-3,-46,-112,-131,2,123,-42,-35,-146,79,396,47,-69,-116,212,773,-112,-95,-90,-72,-134,758443
1,17,14,-22,-1,-1,-72,-155,-120,-63,-129,-80,-14,-66,4,50,-17,10,-38,6,177,7,-33,-13,38,431,-22,-29,-55,-15,94,758444
4,3,43,-25,16,18,-202,-352,-120,-179,-374,-61,1,-143,2,-24,-32,-10,-9,-72,5,-45,-42,0,-97,161,-12,-33,-52,-10,135,758445
27,12,38,-10,19,18,-143,-14,-76,-152,-181,-84,51,-159,0,18,-3,12,9,-21,53,-6,-30,20,-34,216,17,-9,-24,16,69,758446
16,21,32,5,-5,-4,-25,73,65,-80,-6,-45,-101,34,41,53,27,36,36,21,107,34,4,39,15,269,45,22,16,34,162,758447
-45,10,23,3,-21,-28,-14,242,26,-116,-83,-3,53,92,52,21,33,40,67,-12,12,13,27,53,-56,133,64,37,25,49,191,758448
-74,4,11,-1,-28,-39,-27,-7,13,-26,-82,-45,70,9,16,-11,15,30,42,-37,-31,-9,-15,34,-89,64,44,5,9,28,164,758449
-67,15,-1,6,-34,-48,10,9,84,86,-5,3,170,62,-22,16,12,18,2,-24,46,-5,-18,16,-34,146,11,2,9,3,106,758450
24,16,-5,-15,-11,-23,38,-186,-3,183,-70,17,178,163,-5,55,-23,-17,-76,18,173,23,-47,-57,78,396,-60,-42,-26,-51,-66,758451
107,13,3,-21,14,-3,50,-59,44,288,41,113,-7,154,42,127,-21,-18,-80,83,329,61,-59,-59,207,645,-59,-46,-19,-44,-77,758452
102,22,-6,-27,5,0,88,107,-72,34,29,109,-16,76,41,137,-6,0,-44,93,364,79,-27,-47,225,691,-44,-34,-16,-25,-138,758453
67,18,-11,-19,0,-4,86,106,-137,-25,-18,33,46,106,-27,102,-16,-4,-48,47,300,59,-26,-47,158,608,-32,-28,-30,-23,-81,758454
-7,7,7,-13,-14,-7,-4,-127,-98,-65,-125,-69,101,89,-101,20,-14,2,-13,-43,86,-10,-31,-14,-11,312,-6,-15,-23,-11,45,758455
-55,8,26,-2,-18,2,-87,-219,52,-94,-240,-17,113,-72,-56,-34,-6,2,10,-89,-64,-50,-28,28,-121,84,12,-3,-5,5,146,758456
-71,25,32,4,-13,-15,-162,-108,114,44,-263,-18,11,-170,-33,-20,13,25,45,-72,-71,-24,8,42,-95,54,37,16,31,25,159,758457
-70,10,24,-18,-18,-20,-257,21,123,61,-22,15,-80,-18,12,-23,-1,16,47,-73,-83,-31,6,38,-96,44,37,4,13,18,83,758458
-40,11,32,-22,-6,7,-251,-124,43,-20,64,25,145,26,0,7,30,52,90,-45,-71,3,33,86,-79,20,93,50,63,67,126,758459
24,6,24,-4,3,16,-31,-136,101,31,143,60,163,36,67,59,39,41,45,16,62,39,33,50,39,206,54,36,54,57,20,758460
123,8,-1,-4,12,14,207,49,-13,-126,111,45,-25,70,129,115,-14,-34,-99,80,306,59,-19,-80,213,602,-89,-53,-20,-50,-200,758461
155,21,-1,13,16,14,234,89,49,-124,-79,-3,22,1,15,143,-51,-52,-141,95,412,57,-64,-125,262,779,-131,-95,-57,-89,-260,758462
140,38,1,23,14,20,163,139,25,71,288,-18,49,-128,-61,127,-69,-58,-136,80,404,48,-71,-114,246,809,-113,-100,-68,-92,-219,758463
43,15,6,-1,-12,-14,15,-164,14,96,82,-16,77,4,-95,64,-18,-6,-45,19,217,31,-23,-21,87,526,-29,-46,-43,-31,-15,758464
-55,2,16,-20,-41,-43,-71,-27,-18,-44,17,-30,20,91,-50,14,57,66,59,-35,-15,9,35,80,-90,146,71,32,28,59,209,758465
-50,19,18,-10,-25,-25,-42,-158,8,-128,-203,8,-116,144,6,41,82,82,82,-8,-10,37,58,95,-57,130,100,65,80,84,141,758466
-51,13,18,-8,-13,-21,-48,-97,-58,77,-83,56,-8,-8,50,5,47,54,91,-46,-60,10,41,91,-93,48,94,57,72,70,111,758467
-1,21,26,-4,10,3,-22,75,-21,-77,-28,-40,39,34,27,23,32,40,77,-20,-23,14,34,82,-56,89,79,54,73,59,73,758468
25,19,18,-12,16,15,-8,17,-3,-116,151,42,32,-94,77,12,9,7,21,-17,7,8,-2,25,-31,156,23,4,33,22,-46,758469
8,6,4,-13,-1,-1,-13,-23,-6,204,81,9,-94,169,48,13,7,0,-6,-19,33,-3,3,-7,-23,184,-7,-17,16,5,-28,758470
33,9,-8,-8,-15,-18,77,90,-23,181,66,-41,-61,-26,23,50,-34,-31,-77,31,180,9,-19,-71,100,432,-75,-63,-38,-51,-144,758471
86,17,-15,-13,-5,-14,148,96,-46,-5,18,46,43,-59,18,126,-39,-34,-125,83,346,41,-44,-107,222,728,-105,-84,-51,-73,-211,758472
104,10,-27,-30,-12,-7,112,113,-89,-58,183,55,187,-28,63,137,-38,-36,-137,91,384,55,-50,-102,229,794,-105,-83,-61,-78,-206,758473
89,26,11,-18,2,16,7,129,20,-65,191,-40,27,-20,80,108,1,9,-70,71,282,56,-18,-37,150,647,-35,-42,-33,-30,-126,758474
1,25,27,-12,-6,10,-155,-65,39,-59,28,-46,-40,-145,34,-9,7,18,17,-49,-1,-28,-10,26,-63,224,19,1,-16,16,34,758475
-8,14,16,-19,-12,-6,-163,-80,-31,86,37,-62,17,-10,-23,-13,-5,4,12,-51,-8,-35,-11,9,-67,187,7,2,-11,11,74,758476
19,13,28,-25,-4,7,-38,131,-63,-10,87,57,29,124,6,32,9,5,32,10,79,11,0,14,30,303,12,18,10,6,49,758477
77,40,29,13,20,28,179,287,-36,36,-169,69,-32,44,55,76,14,5,14,46,183,32,14,-6,109,453,-5,-2,-2,-1,-29,758478
30,32,-1,13,-4,9,213,192,-67,61,-48,-22,37,-53,-70,37,-17,-26,-24,3,137,1,-20,-38,58,417,-31,-42,-44,-34,-70,758479
27,24,0,4,4,-10,129,32,52,47,166,-89,5,52,-47,54,-12,-10,-13,24,152,20,-5,-30,76,453,-18,-15,-33,-15,-73,758480
279,45,-74,-45,26,3,302,82,-51,55,102,135,-90,206,23,352,-62,-92,-238,324,911,195,-57,-237,684,1666,-228,-132,-100,-154,-629,758481
496,62,-146,-89,8,-1,509,285,-231,-29,258,190,-121,196,119,614,-164,-196,-557,538,1673,301,-185,-506,1208,2959,-483,-325,-273,-354,-1005,758482
507,63,-157,-110,-8,-32,477,369,-229,-132,362,134,-106,44,90,634,-218,-230,-655,520,1829,277,-254,-574,1244,3331,-539,-408,-384,-423,-1021,758483
277,32,-56,-113,-43,-51,200,389,-95,-91,105,127,-180,79,-16,410,-114,-107,-417,290,1260,160,-183,-335,721,2516,-308,-274,-313,-262,-436,758484
-115,25,103,-41,-43,-36,-181,-1,111,36,79,-54,27,-177,15,-21,32,68,42,-120,58,-45,-34,96,-197,639,104,-3,-90,50,361,758485
-113,37,91,-4,-23,-10,-128,-13,113,-11,-63,-81,220,-283,55,-46,28,64,104,-113,-72,-59,2,112,-221,383,121,36,-7,90,328,758486
-73,12,59,-24,-19,-12,-110,101,41,-76,-249,-60,179,-332,-15,-77,-31,-11,4,-128,-66,-90,-41,9,-198,400,19,-52,-62,11,161,758487
-44,12,77,-12,-6,1,-100,211,88,-86,63,-134,254,-157,-3,-61,-25,-6,12,-130,-83,-82,-36,1,-200,351,16,-33,-48,5,214,758488
-49,26,81,4,-2,5,-87,-70,73,-89,161,-85,71,-108,41,-59,-15,5,26,-112,-111,-70,-21,22,-184,306,31,-12,-13,20,158,758489
-1,13,36,-6,-5,-7,-16,-123,26,-35,-27,23,-45,5,49,15,-25,-21,-35,-25,58,-31,-37,-26,-30,551,-21,-44,-18,-12,-33,758490
389,45,-113,-48,11,-8,469,23,-73,-213,149,178,-48,220,52,490,-113,-154,-387,447,1278,227,-99,-380,949,2425,-373,-233,-145,-230,-906,758491
711,73,-227,-136,0,-23,832,243,-215,-235,539,336,-206,246,138,928,-220,-265,-766,821,2477,449,-215,-712,1798,4424,-676,-447,-350,-481,-1522,758492
830,99,-230,-181,-7,-13,879,203,-205,-236,176,367,-136,260,184,1116,-255,-282,-941,953,3019,534,-288,-822,2098,5449,-783,-555,-490,-573,-1609,758493
448,72,-95,-182,-59,-41,371,86,-72,-205,52,221,-32,87,118,700,-187,-149,-691,477,2040,271,-266,-535,1192,4118,-488,-436,-487,-412,-704,758494
-234,16,115,-79,-85,-78,-384,-160,151,-227,-318,-235,-27,-214,-45,-78,55,142,100,-263,-77,-117,-35,172,-443,788,200,6,-137,105,668,758495
-206,37,113,-13,-45,-50,-238,-132,93,19,-295,-182,97,-188,-77,-106,76,136,199,-226,-228,-93,6,201,-439,430,212,64,-8,167,537,758496
-171,40,90,9,-33,-38,-112,-240,19,-112,-243,-81,100,-150,-100,-135,-2,43,107,-227,-232,-127,-51,85,-394,402,99,-2,-50,70,292,758497
-118,35,74,5,-24,-10,-59,-286,-45,-94,-91,-122,87,-155,-146,-126,-46,-17,36,-207,-169,-131,-91,3,-316,479,28,-47,-86,6,149,758498
-117,17,79,-12,-21,4,-123,-265,64,-40,-39,-153,62,-140,-144,-77,15,50,112,-162,-158,-67,-29,93,-286,412,118,32,-9,72,252,758499
-53,16,46,-33,-19,-14,-72,-109,-29,-17,-58,-98,2,-2,-55,51,57,64,143,-15,54,33,35,101,-78,679,107,86,60,91,45,758500
567,65,-134,-67,33,20,672,421,-195,-44,143,271,-17,63,111,734,-125,-184,-480,670,1877,388,-128,-498,1378,3547,-494,-281,-187,-315,-1253,758501
941,88,-260,-144,22,18,1106,781,-254,112,535,374,-234,256,191,1146,-356,-397,-1097,1016,3191,539,-380,-1014,2257,5869,-977,-682,-578,-717,-1992,758502
870,92,-217,-168,-10,-13,938,655,-332,-11,578,362,-52,122,164,1087,-365,-364,-1096,888,3147,465,-427,-955,2068,6031,-912,-685,-668,-705,-1677,758503
354,74,-55,-142,-64,-50,269,323,-140,-14,2,32,41,-78,-81,528,-228,-174,-659,283,1746,138,-338,-514,852,4042,-465,-461,-553,-416,-496,758504
-257,46,130,-45,-85,-68,-418,-213,77,48,-247,-244,127,-334,-198,-129,-6,92,40,-331,-91,-179,-128,117,-520,1145,150,-54,-204,40,608,758505
-235,34,138,-13,-63,-46,-354,-130,115,115,-13,-159,175,-285,-121,-136,11,84,120,-285,-245,-162,-88,136,-511,795,155,-6,-71,91,479,758506
-170,15,108,-26,-45,-35,-305,-200,154,113,-86,-173,214,-308,-133,-128,-25,33,86,-252,-230,-174,-84,83,-457,769,86,-22,-62,54,321,758507
-117,9,97,-25,-19,-22,-250,-49,75,255,13,-132,160,-270,-87,-106,-20,12,85,-207,-178,-140,-62,67,-370,804,61,-6,-35,52,202,758508
-115,22,94,-21,-20,-10,-236,61,-5,49,-254,-126,189,-88,-66,-83,3,34,121,-175,-180,-106,-29,91,-340,756,95,36,20,89,206,758509
-75,40,83,10,-4,-2,-165,-148,77,-125,-175,-92,129,-201,-27,-46,8,42,117,-120,-123,-59,-13,95,-260,810,85,46,41,87,129,758510
140,52,-3,5,14,2,140,53,-107,-170,66,-89,136,-40,-14,192,-58,-56,-104,124,504,58,-63,-120,253,1764,-130,-89,-46,-56,-312,758511
294,54,-48,-38,13,16,338,215,-117,-87,309,-19,18,45,-49,360,-151,-152,-351,270,1036,122,-174,-347,626,2665,-327,-252,-199,-230,-682,758512
392,50,-54,-70,7,19,415,481,-104,-100,368,19,-64,-141,6,480,-180,-177,-493,351,1385,182,-239,-448,854,3301,-427,-328,-293,-317,-772,758513
178,35,-2,-79,-36,-24,127,169,1,-8,67,-29,-80,-205,-6,292,-102,-68,-298,138,889,82,-170,-234,398,2591,-212,-216,-249,-196,-240,758514
-171,34,86,-20,-58,-66,-291,-32,53,-90,-253,-127,198,-242,-123,-72,50,110,132,-209,-172,-82,-13,160,-416,876,170,55,-39,101,550,758515
-126,43,82,-1,-38,-50,-200,61,111,-23,-185,-97,111,-137,-41,-31,81,123,196,-121,-144,-24,32,180,-308,814,193,108,52,153,388,758516
-95,36,75,1,-17,-20,-164,-81,107,127,-83,-64,183,-76,13,-13,60,100,164,-99,-114,-17,23,146,-263,827,164,83,42,127,273,758517
-123,8,79,-3,-18,-33,-191,40,-29,124,-95,-93,204,-179,-74,-50,61,91,181,-125,-187,-33,34,144,-306,677,143,98,46,118,272,758518
-91,6,69,-2,-13,-27,-131,60,28,132,-122,-49,10,-66,-111,-51,40,56,144,-112,-137,-53,29,93,-256,749,83,71,26,74,257,758519
-58,34,57,14,5,3,-108,118,-17,22,-41,-97,-74,87,-94,-46,1,6,83,-101,-108,-66,-16,49,-214,808,28,17,7,26,112,758520
155,34,-22,-39,11,11,117,193,-134,123,168,54,54,229,-17,227,-78,-75,-148,161,569,79,-87,-160,338,1866,-161,-112,-69,-110,-439,758521
216,27,-52,-90,-20,-18,214,96,-264,89,287,123,63,270,3,362,-97,-89,-246,276,930,155,-99,-240,571,2500,-226,-156,-133,-179,-570,758522
113,42,-10,-54,-18,-33,94,-31,-54,-118,93,32,121,449,-55,256,-71,-54,-181,157,688,85,-91,-163,327,2169,-146,-126,-132,-135,-313,758523
-4,38,29,-30,-19,-31,-107,-37,4,-51,-214,-22,118,49,14,93,-53,-38,-115,-24,299,-27,-100,-80,4,1603,-67,-92,-110,-80,-12,758524
-139,16,61,-42,-35,-45,-284,-7,92,136,-227,-126,76,74,-28,-23,49,77,108,-116,-109,-46,13,123,-269,930,113,54,30,77,278,758525
-135,1,77,-43,-34,-32,-259,52,106,176,-191,-194,183,173,-47,-24,101,128,206,-87,-193,-24,86,194,-284,729,190,127,115,159,386,758526
-106,4,71,-20,-12,-11,-162,-93,48,-13,-49,-152,273,-16,-65,-25,72,95,161,-73,-187,-31,67,145,-243,742,140,108,122,132,245,758527
-58,9,66,16,16,21,-150,-42,-43,-19,-51,-117,137,-118,-99,-83,-5,17,81,-134,-221,-98,-28,60,-258,718,45,21,45,43,85,758528
-58,16,47,30,8,0,-134,86,45,56,-153,-121,-17,45,-69,-81,-4,21,106,-128,-233,-92,-7,79,-254,675,60,37,48,49,121,758529
-60,20,51,45,2,-9,-78,-175,46,-11,-117,-118,-79,116,-107,-49,37,67,158,-85,-226,-46,30,128,-227,650,136,90,93,100,171,758530
-74,35,62,67,14,2,-26,44,-69,-83,30,48,-102,29,-43,-1,50,74,154,-53,-167,-24,37,129,-174,698,131,99,112,105,170,758531
-102,36,61,51,2,-4,-33,148,-37,-144,11,24,-2,16,-51,-16,46,69,137,-52,-172,-20,58,110,-177,662,109,92,92,94,182,758532
-178,19,79,48,-9,-12,-111,-46,13,6,1,-102,-77,-16,-60,-95,70,99,188,-118,-374,-57,73,173,-337,315,172,124,113,135,378,758533
-141,7,64,33,-6,0,-112,-148,50,38,-163,-33,65,-135,-50,-126,13,34,137,-137,-384,-99,26,111,-324,290,95,71,83,83,228,758534
-19,17,47,14,17,24,-18,-24,14,-28,-68,-25,70,61,-27,-43,-1,3,66,-46,-141,-36,7,38,-129,635,37,28,48,32,32,758535
-13,10,32,7,16,2,16,37,-21,-130,-21,-38,-2,101,-22,-3,37,44,108,-14,-97,7,43,85,-81,680,95,66,73,72,105,758536
-42,4,30,16,2,-6,31,90,5,-134,126,-122,-56,-13,-10,-12,68,69,134,-33,-157,0,69,106,-139,560,116,103,79,98,157,758537
-88,6,44,44,-4,-10,-11,-34,63,-146,188,-111,40,-202,-30,-73,45,49,131,-76,-264,-33,63,99,-234,380,93,87,80,82,223,758538
-39,9,38,52,11,0,-14,41,78,-28,74,-67,-52,111,21,-61,19,12,84,-48,-186,-14,41,53,-143,500,38,56,61,41,112,758539
-42,0,29,25,2,1,-111,70,-21,-120,-63,-60,-17,-39,-77,-99,-23,-20,40,-83,-218,-59,-18,18,-181,457,2,7,7,-9,145,758540
-150,-9,64,25,-6,-4,-274,29,68,79,8,-107,75,-204,-113,-197,8,48,170,-185,-515,-118,20,143,-421,-31,131,90,66,94,357,758541
-202,-22,65,18,-16,-19,-304,-140,69,-24,-19,-26,102,-96,-130,-220,67,89,255,-201,-655,-115,85,222,-488,-287,204,166,137,165,386,758542
-283,-24,96,31,-21,-12,-333,-232,81,-13,-192,-55,-33,-65,-70,-293,144,149,390,-258,-925,-136,152,339,-661,-765,321,258,234,255,577,758543
-163,2,71,70,14,22,-140,-94,23,25,26,-27,-153,13,49,-184,112,123,326,-146,-698,-76,151,273,-441,-482,245,235,248,218,344,758544
26,-8,-10,55,16,20,85,39,-78,-48,24,52,-145,118,66,-27,-25,-25,56,14,-151,-27,16,10,-30,400,-12,46,90,10,-125,758545
-2,-18,-24,39,11,9,38,65,-89,-59,-3,20,-171,132,-12,-69,-55,-57,-1,-47,-170,-66,-33,-32,-84,423,-43,-5,12,-44,-80,758546
-15,11,3,50,22,12,2,-80,-46,-29,199,70,-135,119,-40,-27,23,18,72,-6,-153,-7,37,44,-65,433,38,51,72,33,65,758547
-48,5,-5,28,-4,-20,3,-394,25,-19,150,87,-58,213,-8,1,75,57,87,26,-113,37,91,87,-27,480,78,83,106,80,117,758548
-52,14,-6,19,-5,-11,-5,-159,21,-58,-124,0,-124,239,-34,23,80,87,107,38,-96,47,116,117,-17,468,98,102,115,101,185,758549
-50,10,4,11,9,0,-46,-70,22,-138,-158,-23,-30,61,-15,-26,41,43,112,-14,-177,2,73,93,-81,374,69,80,83,69,170,758550
-210,-12,60,11,-6,8,-256,-151,45,-293,-171,22,60,71,-75,-237,69,83,250,-220,-685,-112,75,220,-493,-420,210,157,129,159,531,758551
-358,-29,112,49,-1,11,-436,-166,131,-289,-393,-121,-42,-126,-163,-412,154,176,471,-360,-1224,-193,163,433,-870,-1332,406,298,260,313,825,758552
-460,-35,155,94,7,14,-566,-257,156,-103,-468,-189,-21,-147,-250,-586,180,192,592,-519,-1687,-290,214,530,-1192,-2157,493,365,332,366,994,758553
-312,-37,87,101,15,26,-343,-20,110,96,-182,-98,30,-22,-125,-455,127,110,467,-352,-1329,-206,189,366,-830,-1722,322,298,313,271,617,758554
39,-15,-7,48,41,60,79,281,-66,220,222,82,-56,157,13,-47,-2,-43,74,57,-226,11,73,-12,27,-15,-33,63,136,8,-153,758555
49,-6,4,27,46,61,34,-45,-74,164,92,67,104,218,41,-3,8,-27,25,57,-119,19,63,-23,64,192,-35,36,80,-20,-123,758556
21,-11,-14,21,20,29,-46,-183,22,133,107,22,-63,-5,15,-1,26,3,31,48,-122,17,76,9,25,208,-5,46,74,12,-6,758557
-52,-15,-25,5,-16,-13,-202,-113,110,102,119,21,-49,50,13,-22,67,59,112,40,-201,36,100,112,-38,80,97,117,135,87,115,758558
-28,-16,-20,-17,1,-6,-282,87,4,115,-26,35,-35,23,-4,-14,49,39,75,50,-151,31,69,77,4,162,69,91,115,65,2,758559
-62,-27,19,-21,7,30,-335,-6,64,144,-151,70,-161,-55,66,-79,40,42,83,-28,-286,-19,54,95,-120,-53,88,77,92,65,152,758560
-400,-62,112,32,-33,15,-543,-505,207,96,-221,-203,-4,-156,-53,-493,124,152,406,-452,-1347,-251,128,391,-964,-1745,381,262,217,259,919,758561
-552,-59,167,118,-7,25,-531,-450,206,194,-241,-228,203,-191,-124,-733,193,209,651,-638,-2023,-369,222,580,-1419,-2927,548,403,361,408,1188,758562
-524,-42,163,161,29,50,-424,-251,270,164,-319,-103,92,-60,-95,-711,222,225,671,-568,-2030,-318,280,581,-1340,-3075,533,435,427,418,1099,758563
-244,-24,70,139,51,65,-96,-157,190,-14,72,15,169,-70,10,-389,168,145,477,-226,-1265,-119,252,377,-660,-2006,325,335,394,297,407,758564
145,-8,-68,71,67,72,324,58,34,-137,222,124,215,47,110,33,-1,-49,10,175,-62,78,82,-53,239,-118,-86,48,160,-15,-391,758565
124,-24,-75,34,40,45,229,44,-17,-123,135,103,19,89,22,11,-55,-97,-85,121,22,35,8,-104,218,99,-130,-23,34,-87,-346,758566
91,-13,-54,32,24,44,160,56,-23,145,235,75,-123,108,10,22,-21,-48,-39,116,17,43,14,-63,194,126,-68,12,37,-47,-159,758567
55,-10,-35,24,11,36,120,117,32,162,-35,135,-50,103,-13,16,10,-18,-20,111,-20,43,34,-18,147,89,-15,34,50,-19,-82,758568
25,-19,-24,15,13,21,70,92,-3,312,39,67,46,-73,-93,-10,20,0,6,72,-97,31,38,11,61,-15,8,31,59,-1,-74,758569
-28,-31,-7,8,10,16,-2,246,-127,151,163,-11,51,-123,-71,-80,4,-9,23,-6,-226,-21,47,17,-59,-189,12,28,37,-3,30,758570
-268,-50,77,36,-1,18,-311,114,57,242,7,-123,-8,-355,-35,-373,75,88,254,-301,-977,-176,103,247,-671,-1364,238,159,108,147,574,758571
-491,-65,139,82,-21,9,-562,-186,174,331,-184,-238,140,-117,-44,-650,166,177,559,-535,-1748,-302,207,497,-1211,-2681,462,330,273,329,983,758572
-557,-67,160,135,4,15,-633,-195,140,295,-274,-145,445,19,-43,-765,221,214,702,-613,-2122,-342,278,608,-1418,-3395,578,419,397,433,1109,758573
-289,-37,75,138,47,41,-308,-93,18,325,-35,-3,96,127,3,-441,192,140,515,-263,-1420,-146,253,423,-761,-2430,389,343,410,339,461,758574
118,-25,-83,49,46,49,171,-62,-39,124,250,107,-179,266,116,40,2,-61,-27,188,-66,74,77,-54,273,-292,-79,34,152,-10,-373,758575
90,-31,-53,37,47,52,112,-8,-26,-4,146,-22,-174,76,112,15,-10,-43,-31,111,-63,44,64,-48,196,-206,-73,30,82,-37,-221,758576
102,-20,-44,46,42,52,162,246,-86,104,184,-37,-82,106,63,-1,-28,-55,-65,79,-40,13,25,-73,175,-128,-92,0,45,-63,-207,758577
93,-6,-46,48,37,41,223,121,50,137,133,96,-144,145,59,-12,-36,-56,-88,46,-75,-3,-2,-62,131,-135,-74,-15,29,-59,-127,758578
40,-14,-46,46,23,6,240,161,-4,-31,208,55,-70,62,50,-64,-41,-64,-79,-8,-166,-30,-19,-56,33,-256,-60,-26,9,-47,-156,758579
-4,-13,-20,56,21,10,198,47,-11,24,89,61,-47,-66,-5,-114,-36,-38,-52,-57,-257,-63,-5,-33,-59,-384,-38,-14,9,-34,0,758580
-433,-51,94,73,-24,-13,-424,-536,121,-133,-137,-209,1,-111,-131,-570,102,133,384,-490,-1452,-283,129,379,-1014,-2292,367,241,175,246,915,758581
-644,-73,162,112,-21,-1,-769,-425,313,-45,-524,-260,129,-291,-73,-791,272,281,781,-663,-2236,-344,303,724,-1524,-3732,682,506,445,516,1368,758582
-556,-91,113,96,-9,13,-642,-381,273,32,-612,-258,42,-203,-48,-723,249,239,719,-559,-2130,-301,301,638,-1349,-3698,602,482,478,473,1096,758583
-301,-81,29,91,19,24,-264,-206,126,34,-81,-116,72,157,-54,-440,181,145,504,-234,-1428,-131,254,413,-725,-2720,385,365,414,332,473,758584
121,-43,-99,44,44,49,257,157,-13,-50,60,151,-145,283,18,30,34,-43,23,208,-134,99,112,-25,256,-708,-45,94,177,15,-379,758585
156,-16,-85,43,51,49,264,174,-40,-88,28,156,-208,159,38,58,1,-65,-98,194,64,98,54,-97,307,-331,-110,14,52,-82,-362,758586
83,-21,-47,33,34,37,141,263,-4,61,-18,32,-58,155,67,0,13,-36,-71,121,-47,66,46,-53,170,-462,-61,13,23,-55,-174,758587
59,-8,-39,21,22,36,131,82,119,-50,-147,57,-124,82,77,18,35,3,-17,150,-13,87,75,-14,181,-425,-17,45,36,-15,-79,758588
96,-16,-59,11,24,32,160,141,102,25,155,116,-97,-79,99,48,-1,-40,-84,166,121,87,34,-76,268,-194,-82,-12,-22,-66,-131,758589
44,-27,-44,-11,13,35,66,176,-47,89,108,137,127,-113,31,-7,-13,-45,-72,88,-10,23,18,-65,135,-345,-67,-27,-36,-61,-84,758590
-140,-49,6,-2,-11,9,-183,48,114,206,-196,-124,-1,-46,20,-215,47,42,130,-120,-569,-75,82,130,-312,-1222,131,99,45,74,305,758591
-316,-52,42,39,-19,-7,-361,-218,150,235,-403,-106,-11,-177,33,-395,126,127,351,-297,-1119,-147,167,335,-701,-2121,325,249,179,234,680,758592
-409,-67,64,69,-8,-3,-442,-270,105,190,144,-76,42,16,-17,-520,164,155,474,-394,-1485,-221,218,421,-927,-2756,414,313,266,303,837,758593
-266,-57,29,82,21,26,-249,-244,68,-37,275,21,127,17,-8,-380,131,105,373,-234,-1163,-132,184,315,-610,-2341,302,269,281,246,401,758594
56,-38,-64,52,49,46,161,-95,-25,51,167,157,-150,105,52,-18,11,-41,12,97,-188,43,71,-10,148,-807,-15,63,134,24,-316,758595
50,-37,-76,28,26,22,129,160,-37,-20,93,147,-266,45,58,-29,-18,-70,-91,59,-109,5,30,-68,136,-602,-81,2,51,-58,-228,758596
87,-29,-72,21,31,24,149,156,-20,-48,-9,223,-165,102,-10,-6,-32,-74,-113,80,-4,12,26,-91,190,-397,-119,-27,29,-83,-277,758597
119,-11,-60,10,48,46,226,136,-2,-27,-113,126,-119,286,60,45,-28,-60,-125,111,100,29,24,-89,252,-193,-103,-30,14,-66,-270,758598
37,-23,-54,11,18,25,199,34,17,-101,43,102,-82,70,53,14,-11,-43,-101,69,-3,-3,17,-58,151,-324,-61,-24,13,-45,-113,758599
-18,-23,-41,7,-1,6,156,-15,-51,-127,1,51,2,-18,-6,-12,18,-10,-37,27,-103,-13,49,-3,51,-472,0,26,29,-1,53,758600
-513,-49,95,71,-34,-32,-539,-578,139,-53,-520,-205,-110,-144,-68,-592,175,200,472,-542,-1618,-307,188,475,-1174,-2852,477,301,218,312,1116,758601
-811,-70,186,151,-20,-29,-1029,-640,310,-2,-752,-376,14,-126,-51,-980,339,374,932,-855,-2787,-471,356,866,-1962,-4893,852,595,509,625,1722,758602
-668,-103,122,123,-5,-18,-918,-387,175,50,-465,-197,239,-186,-53,-855,291,286,846,-673,-2515,-372,337,749,-1619,-4678,720,559,539,557,1377,758603
-288,-103,8,70,16,9,-452,-140,70,14,-196,23,130,28,45,-429,197,149,523,-205,-1424,-108,276,412,-686,-3139,392,385,449,333,418,758604
196,-61,-117,3,52,51,190,241,-90,133,314,305,-139,196,126,131,38,-43,-31,324,108,191,131,-82,471,-743,-78,77,185,-25,-465,758605
199,-40,-120,16,47,39,327,117,-120,135,349,332,-142,57,92,127,-17,-85,-147,270,248,166,59,-156,471,-407,-160,-20,26,-117,-396,758606
148,-20,-98,39,47,38,313,60,-124,135,-16,198,-140,65,101,52,-33,-84,-153,176,152,99,21,-143,325,-513,-146,-40,-54,-134,-358,758607
124,-14,-82,22,32,34,272,19,-140,163,25,119,-94,6,133,52,-33,-70,-131,153,155,91,23,-123,297,-494,-129,-36,-61,-127,-337,758608
100,-30,-78,5,14,17,202,34,-68,36,156,53,28,-44,105,9,-54,-101,-169,109,123,43,-15,-157,240,-499,-150,-63,-96,-151,-337,758609
70,-19,-41,18,36,42,110,170,-37,144,-114,35,24,-69,152,-36,-21,-57,-110,53,-1,27,5,-94,133,-669,-85,-37,-82,-102,-125,758610
-328,-50,83,48,3,9,-413,-225,275,160,-305,-141,-39,-222,-53,-486,107,117,316,-396,-1214,-219,135,323,-824,-2568,320,210,99,176,797,758611
-617,-88,138,104,-19,-9,-711,-562,250,194,-251,-296,138,-209,-113,-833,205,224,649,-692,-2185,-387,233,612,-1501,-4192,596,406,314,406,1241,758612
-579,-86,114,130,4,2,-601,-426,241,80,-282,-223,-25,-21,-53,-772,230,236,725,-603,-2166,-323,285,633,-1369,-4323,608,479,436,465,1107,758613
-302,-56,14,131,29,22,-184,-238,71,-89,-53,-39,-143,182,13,-414,169,120,472,-229,-1331,-115,242,383,-637,-3123,358,354,410,311,401,758614
152,-43,-152,51,36,28,377,-20,-114,-27,165,270,-143,11,96,100,-16,-101,-108,272,100,126,65,-131,467,-808,-152,8,148,-68,-584,758615
121,-37,-130,21,9,24,277,52,-80,25,160,241,-280,-34,59,80,-25,-95,-173,205,144,71,38,-148,391,-615,-169,-30,51,-115,-410,758616
89,-37,-91,6,22,31,190,-35,-92,89,-31,221,-196,56,59,46,-7,-57,-113,158,47,55,48,-77,279,-701,-90,-10,72,-63,-259,758617
153,-22,-79,3,44,50,265,188,-139,8,3,139,-43,236,118,95,0,-51,-145,194,166,68,40,-105,359,-465,-104,-30,43,-76,-322,758618
140,5,-68,24,34,33,286,122,-106,-8,192,121,5,24,124,68,9,-27,-125,166,127,47,52,-87,286,-486,-91,-28,37,-62,-259,758619
58,-12,-81,17,0,-13,253,-61,12,16,145,52,67,91,74,34,13,-22,-96,115,33,27,51,-60,189,-598,-59,-19,35,-39,-188,758620
-324,-32,57,66,-13,-14,-255,-172,229,123,-276,-85,10,23,-37,-375,127,135,280,-300,-1054,-182,145,291,-694,-2343,300,195,159,189,683,758621
-577,-73,129,81,-17,-2,-609,-286,239,-25,-227,-125,30,-125,-28,-688,231,240,627,-563,-1925,-296,259,579,-1294,-3862,571,401,341,411,1166,758622
-356,-63,75,97,29,39,-324,-79,146,-103,95,-103,-15,-6,35,-494,173,150,482,-347,-1477,-164,225,417,-862,-3327,397,326,322,307,597,758623
-64,-38,-35,78,57,56,72,-61,2,-143,47,0,-73,58,54,-208,46,-11,145,-49,-635,-29,92,84,-193,-2072,74,124,163,62,-38,758624
161,-21,-96,44,78,69,265,46,-140,-83,-24,82,-47,-103,31,4,-60,-124,-127,139,42,77,-8,-165,281,-977,-154,-39,-9,-132,-406,758625
160,-32,-79,0,47,61,145,-46,-115,-13,126,103,-7,-63,81,6,-79,-127,-173,105,109,59,-25,-180,272,-839,-174,-86,-79,-163,-373,758626
120,-45,-86,-31,19,24,93,53,25,-104,48,104,-91,37,115,1,-56,-99,-157,91,131,58,-7,-142,242,-827,-141,-67,-81,-140,-321,758627
101,-27,-90,-18,3,8,107,47,-40,98,100,66,-73,60,111,26,-14,-51,-87,111,155,92,37,-94,244,-793,-89,-20,-57,-90,-229,758628
111,-26,-90,-14,-3,-1,159,-28,-57,26,74,161,-122,63,122,77,2,-39,-91,150,253,134,25,-101,315,-623,-84,-15,-58,-87,-190,758629
132,-8,-68,-5,13,10,167,25,-72,-3,98,170,-140,200,94,109,-5,-31,-107,172,335,140,-9,-100,367,-477,-77,-22,-66,-79,-229,758630
259,4,-98,-18,25,11,261,155,-192,141,248,215,30,199,132,251,-36,-68,-232,306,709,212,-43,-195,653,145,-179,-82,-92,-139,-494,758631
390,16,-131,-44,25,17,399,205,-204,182,309,222,44,156,141,411,-94,-129,-434,441,1172,278,-101,-353,964,947,-330,-212,-200,-260,-737,758632
412,23,-155,-79,2,-1,488,70,-128,85,193,155,-120,124,145,469,-156,-167,-532,471,1376,264,-168,-452,1072,1416,-431,-289,-294,-338,-840,758633
246,19,-95,-64,-17,-19,297,-83,-14,17,58,63,-21,-20,-1,273,-126,-112,-384,251,896,128,-153,-312,624,802,-286,-226,-271,-257,-397,758634
0,0,-21,-2,-11,-29,-43,-45,29,-68,-303,-118,-213,-65,-78,-50,-37,-26,-100,-45,40,-63,-80,-43,-31,-466,-46,-72,-129,-79,37,758635
23,8,-21,11,-11,-10,-13,168,-24,14,-200,-47,30,-83,-87,-55,-49,-46,-93,-16,-6,-81,-77,-55,-14,-518,-57,-74,-78,-55,-51,758636
3,-12,-26,-22,-27,-26,-3,46,11,-173,-123,-136,129,-3,-15,-15,-25,-23,-71,20,-9,-63,-53,-33,13,-521,-39,-54,-27,-22,-90,758637
1,-5,-28,-26,-16,-23,3,-104,-61,-240,150,-52,82,-18,4,22,-5,-8,-60,52,22,-41,-30,-24,47,-477,-23,-38,-12,-8,-58,758638
26,1,-14,-11,-3,5,7,-85,-22,-17,-22,-70,111,-59,9,31,-2,-3,-39,60,12,-28,-29,0,45,-480,-7,-20,3,8,90,758639
77,-14,-31,-18,-6,8,43,182,24,100,-47,-62,91,73,32,47,-31,-40,-84,79,89,-14,-65,-64,112,-359,-58,-54,-15,-29,-114,758640
473,26,-124,-49,39,40,558,765,-171,-52,274,256,-30,241,141,493,-146,-183,-463,520,1279,238,-154,-427,1054,1487,-418,-266,-188,-281,-996,758641
601,53,-171,-82,30,19,729,502,-228,-189,271,261,-232,301,74,663,-246,-273,-726,628,1887,312,-267,-660,1416,2545,-625,-452,-410,-475,-1297,758642
485,60,-140,-78,6,-1,609,251,-143,-33,222,118,-243,185,70,575,-212,-214,-638,497,1718,265,-248,-560,1173,2345,-510,-409,-433,-410,-1020,758643
220,46,-74,-57,-30,-31,327,29,-5,121,47,-48,-159,120,-6,312,-126,-103,-400,202,1046,131,-183,-311,584,1341,-273,-288,-356,-261,-367,758644
-90,21,5,-26,-59,-72,-47,-162,86,109,3,-137,-94,61,-115,4,20,59,-20,-87,175,3,-42,17,-73,-74,46,-51,-165,-11,184,758645
-92,22,17,-24,-49,-56,-115,-157,13,64,-180,-188,-146,-145,-15,-3,55,84,54,-63,75,32,3,65,-88,-312,94,14,-71,54,244,758646
-36,2,3,-35,-36,-31,-95,-305,-118,-235,-74,-109,-104,24,-14,29,26,53,22,-24,160,54,-10,21,-11,-224,44,-9,-68,11,88,758647
-3,-7,12,-37,-13,4,-101,-338,-155,-191,96,-129,-71,51,-48,3,-19,5,-30,-56,166,23,-49,-46,-15,-229,-27,-59,-110,-45,-7,758648
4,4,28,-9,2,26,-98,-234,-118,-199,92,-66,59,-37,-52,-21,-31,-21,-47,-83,121,4,-56,-65,-39,-289,-48,-69,-123,-63,-50,758649
15,-2,13,-19,-5,5,-58,-158,81,-147,104,-49,-83,-24,121,0,-30,-26,-55,-55,154,14,-68,-65,-2,-253,-49,-69,-102,-57,-85,758650
155,6,-53,-53,-12,0,170,-206,-18,-158,165,100,-111,148,103,194,-55,-66,-182,146,621,117,-95,-192,396,499,-163,-128,-119,-128,-365,758651
284,23,-78,-62,2,2,331,167,-99,-216,82,101,-22,161,71,359,-93,-107,-315,294,1055,199,-125,-303,704,1238,-265,-192,-180,-217,-569,758652
324,40,-80,-68,-4,0,349,405,-14,-89,142,8,-309,-124,14,376,-137,-133,-407,301,1157,180,-177,-356,740,1513,-328,-262,-252,-268,-668,758653
194,18,-44,-68,-24,-10,166,291,20,-72,-21,-140,-157,-219,-64,188,-158,-133,-366,109,771,24,-206,-305,396,1040,-279,-282,-292,-255,-397,758654
6,15,39,-32,-25,-6,-42,92,24,47,134,-91,247,-241,-29,7,-49,-12,-92,-59,167,-67,-94,-60,-39,115,-46,-115,-130,-68,39,758655
36,22,32,-25,-9,0,5,-107,-10,90,203,35,279,-194,-24,36,-47,-27,-91,3,165,-56,-102,-64,24,148,-51,-105,-91,-46,-60,758656
-15,18,33,-14,-9,-22,-73,-84,34,54,-55,-30,118,-103,15,-16,-42,-29,-57,-36,5,-95,-97,-27,-76,-68,-8,-84,-76,-23,26,758657
-49,-6,32,-16,-31,-33,-122,41,110,3,-117,-81,9,-63,-46,-29,-22,-3,12,-34,-72,-94,-51,15,-125,-203,30,-32,-22,25,62,758658
-8,-9,18,-20,-21,-15,-90,-165,-32,22,-78,-84,7,-11,-78,18,-15,4,8,11,1,-63,-29,3,-47,-104,7,-19,-6,21,55,758659
6,8,19,-7,-6,1,-72,-194,3,13,30,-114,11,19,15,11,-8,3,0,4,-9,-60,-29,-2,-47,-148,5,-28,-16,7,72,758660
47,15,-14,-24,-17,-10,13,245,-35,75,54,-52,-57,-105,31,79,-10,-7,-52,59,167,-15,-43,-48,87,84,-37,-63,-27,-19,-36,758661
37,11,-6,-20,-11,-22,51,67,-74,34,64,-41,-72,10,6,90,-19,5,-52,61,219,17,-46,-48,108,148,-30,-51,-38,-12,-41,758662
-3,9,4,-23,-20,-34,-23,-114,-45,0,134,-80,-26,-74,-36,60,9,36,-4,24,166,33,-9,-11,58,36,6,-26,-19,24,79,758663
-6,10,-2,-41,-19,-29,-133,-5,-106,99,-77,33,29,-47,8,51,2,15,-21,1,180,45,-4,-29,59,50,-13,-38,-39,3,24,758664
-51,10,9,-32,-23,-23,-262,-207,-16,82,-228,-9,32,-87,41,4,-5,-5,3,-52,92,26,-14,-15,-21,-114,11,-29,-36,-6,30,758665
-61,4,9,-42,-24,-24,-301,-98,120,139,-42,-122,-37,2,5,6,17,31,56,-64,63,30,12,26,-52,-220,47,17,-2,29,36,758666
2,-5,15,-27,-2,-2,-83,149,28,198,171,-24,-64,-33,11,48,28,47,33,-28,141,63,15,16,14,-122,32,10,6,17,27,758667
-18,-16,-6,-15,-17,-28,66,227,-25,-91,-4,16,10,-106,-1,30,3,21,-37,-54,98,36,-40,-18,-23,-154,12,-25,-16,-6,9,758668
-25,2,-12,1,-21,-31,98,-54,-26,-28,-2,-77,-56,9,-56,11,-9,13,-3,-63,78,29,-38,1,-42,-191,25,-6,-10,-1,-36,758669
-12,9,-15,16,-20,-23,90,-134,23,-153,87,-124,3,144,-83,-10,-27,-11,-36,-76,87,9,-39,-43,-49,-183,-41,-38,-53,-54,-69,758670
-152,4,33,34,-23,-23,-115,-139,-74,-184,-130,-115,236,-31,-81,-199,1,24,79,-255,-383,-112,-10,63,-425,-894,53,15,-21,13,279,758671
-194,-2,59,32,-10,-14,-224,-198,-51,-68,96,-53,173,-95,-106,-249,36,52,171,-273,-578,-146,24,135,-533,-1234,133,73,57,74,351,758672
-207,-22,43,23,-23,-30,-297,-143,-33,-168,-160,-9,176,-124,-61,-214,84,99,254,-223,-621,-103,72,220,-508,-1338,211,146,148,159,346,758673
-65,-19,-9,-6,-7,-22,-171,-14,13,-105,-196,-20,20,-9,38,-48,88,72,182,-23,-266,-1,86,152,-174,-815,145,125,159,129,80,758674
64,-5,-20,-43,0,-9,18,128,-25,-24,0,39,97,190,-15,85,27,9,2,102,139,44,35,-25,124,-179,-24,15,59,-10,-93,758675
48,-19,-10,-35,-6,-2,100,29,100,47,130,38,-21,99,11,104,2,4,-22,114,172,36,11,-41,137,-63,-39,-18,14,-23,-112,758676
25,0,-8,11,-1,-6,146,98,11,-147,237,56,-39,117,51,62,-36,-30,-53,92,126,-4,-28,-67,94,-72,-59,-55,-27,-42,-94,758677
11,5,-14,20,-12,-29,122,-23,-115,-70,156,41,116,-37,32,32,-74,-71,-101,60,125,-35,-74,-112,68,-56,-106,-103,-65,-85,-140,758678
9,10,-10,13,-8,-16,85,-103,-40,109,78,7,112,25,2,19,-58,-57,-70,45,86,-34,-58,-78,37,-101,-72,-81,-57,-58,-144,758679
-23,22,17,23,10,6,-6,-61,-41,-30,52,-33,-69,-18,-51,-52,-15,-5,20,-17,-95,-53,-21,22,-108,-387,11,-26,-18,1,22,758680
-227,-25,72,14,-9,-3,-288,-250,-6,-122,-149,-233,104,-72,-102,-291,55,64,235,-280,-749,-186,41,228,-608,-1445,210,109,76,156,508,758681
-373,-33,121,49,-5,8,-428,-270,146,141,-366,-201,100,-52,-82,-448,139,146,456,-424,-1242,-238,126,409,-946,-2318,394,248,222,296,782,758682
-367,-45,86,74,-1,1,-340,-256,161,257,-273,-138,-53,-73,-16,-470,128,125,454,-413,-1272,-219,142,380,-912,-2450,363,242,252,274,638,758683
-165,-17,45,90,38,29,-26,79,-23,193,150,-42,-123,-197,-69,-277,58,27,231,-230,-768,-109,84,169,-469,-1726,144,123,171,127,103,758684
56,9,-1,81,50,53,284,346,-81,73,217,46,92,116,22,-38,-46,-81,-39,-21,-101,-3,-19,-68,34,-690,-94,-29,39,-54,-241,758685
59,3,-4,53,34,38,241,319,-4,-95,144,38,94,80,-30,8,-26,-45,-51,11,23,31,-27,-45,88,-490,-57,-23,26,-46,-208,758686
47,-11,-30,7,7,20,81,258,-31,-102,169,83,63,-5,-78,4,-34,-63,-67,7,51,28,-39,-69,96,-405,-86,-41,9,-63,-220,758687
50,-12,-25,-5,7,14,-6,342,10,-137,80,94,-71,86,17,10,-25,-49,-57,12,76,23,-38,-45,95,-349,-75,-26,9,-57,-191,758688
36,-11,-7,-8,22,24,-16,154,15,-64,101,120,7,67,55,14,-1,-8,-25,2,50,28,-1,-5,68,-378,-36,-6,20,-32,-88,758689
-8,-39,-29,-59,-7,10,-61,16,25,-134,184,-48,-66,-112,-83,-1,0,4,-21,-19,-2,13,13,-1,17,-419,-26,3,23,-28,-5,758690
-100,-16,-4,-36,-13,-5,-170,-74,32,-115,-169,-110,-160,-96,-61,-78,59,60,87,-96,-251,-21,50,91,-191,-823,71,65,59,41,191,758691
-196,-11,31,1,-22,-19,-290,-83,111,-118,-274,17,-94,-131,-54,-155,133,126,246,-159,-544,-41,119,224,-400,-1340,197,167,148,155,432,758692
-172,-25,20,-3,-25,-26,-293,-98,86,-90,-165,11,19,93,22,-99,189,171,285,-77,-503,18,178,273,-326,-1338,254,229,219,192,415,758693
-2,-21,4,-27,12,1,-29,31,-23,117,-39,147,3,173,151,75,167,138,183,135,-72,142,188,182,47,-726,164,194,201,142,129,758694
128,11,-17,1,27,24,226,2,-32,188,163,155,85,190,113,101,0,-18,-50,159,215,101,14,-51,218,-228,-53,5,9,-46,-176,758695
125,24,-34,23,30,14,215,-61,-96,97,198,-25,-1,98,30,26,-92,-96,-140,79,187,21,-87,-142,145,-199,-140,-101,-116,-136,-246,758696
89,12,-29,2,19,22,122,95,-27,151,147,24,-21,147,10,19,-52,-65,-104,64,153,26,-62,-98,98,-257,-87,-71,-109,-105,-152,758697
41,0,8,-4,14,33,31,-72,42,207,-55,8,-19,-52,10,-33,-38,-39,-72,4,12,-11,-60,-49,-19,-477,-52,-62,-85,-76,-75,758698
28,-17,18,-3,22,44,-8,-50,66,26,-309,13,-89,56,-28,-60,-73,-70,-99,-28,-22,-44,-84,-80,-46,-519,-76,-88,-107,-91,-182,758699
-9,-15,20,9,35,31,-82,-6,-58,-1,-422,-36,-57,107,-87,-110,-59,-53,-33,-78,-131,-66,-50,-30,-129,-689,-29,-51,-95,-54,-2,758700
-155,-9,54,15,9,-2,-216,-56,45,39,-181,-104,92,-28,19,-214,56,69,177,-188,-515,-87,48,175,-400,-1313,171,95,51,108,448,758701
-200,-3,60,36,-5,-10,-241,-50,164,163,-125,-91,30,-61,35,-238,103,114,273,-205,-689,-85,103,262,-490,-1627,258,180,152,201,509,758702
-205,-30,52,38,-8,-3,-250,-63,42,161,-196,30,161,3,10,-281,77,77,265,-230,-789,-125,84,241,-511,-1765,240,176,165,192,457,758703
-102,-35,28,44,14,16,-141,60,27,64,43,-5,-17,0,-34,-213,26,13,178,-153,-592,-98,60,146,-318,-1474,137,119,147,124,221,758704
61,-11,16,42,42,47,90,222,139,79,327,11,-44,30,29,-79,-45,-66,2,-28,-185,-42,2,-14,6,-812,-38,1,54,-8,-120,758705
57,7,11,49,39,48,182,74,57,-87,225,97,165,192,37,-55,-34,-59,-40,-28,-138,-48,-9,-40,16,-675,-59,-16,15,-41,-102,758706
2,21,1,55,25,23,109,-17,96,-3,-23,44,146,67,58,-57,-10,-29,-19,-40,-193,-53,11,5,-28,-737,-9,3,30,-23,1,758707
5,0,-18,33,15,9,38,-25,10,106,61,49,32,11,-40,-35,-17,-26,-21,-28,-162,-42,6,11,1,-674,-12,-3,27,-19,-26,758708
10,0,-2,18,8,10,17,-6,-21,113,-35,37,112,108,36,-38,-1,-14,-10,-19,-161,-49,18,10,-7,-665,-3,6,33,-14,-30,758709
9,5,-12,23,-3,-3,63,30,-21,73,42,54,63,59,-25,-16,14,3,-3,6,-121,-32,39,17,14,-612,14,24,49,-15,-12,758710
-67,-3,7,38,1,-7,0,131,45,28,125,-12,38,-112,-10,-115,1,4,37,-93,-353,-99,28,40,-188,-950,35,19,22,-6,114,758711
-146,-6,54,57,29,35,-106,-59,145,-32,-54,-125,13,-84,37,-279,-1,-6,108,-247,-713,-188,14,92,-475,-1524,76,36,22,18,250,758712
-142,-20,52,58,39,58,-106,-106,116,-44,-182,-74,193,-62,-51,-322,-25,-34,86,-278,-790,-202,0,74,-533,-1708,54,16,16,-10,268,758713
-61,-23,3,48,21,28,-18,180,28,117,-164,118,-59,94,12,-181,-12,-23,61,-125,-481,-78,30,40,-275,-1328,25,40,44,-13,114,758714
11,-17,-37,9,0,5,36,114,25,-109,-5,133,-177,235,74,16,34,19,54,40,-80,82,73,37,21,-788,38,85,58,4,57,758715
-41,-19,-18,-1,-3,5,-67,1,64,-137,53,56,-29,149,68,8,102,86,123,7,-141,115,119,124,-58,-967,121,142,89,59,189,758716
-2,-15,-13,1,13,24,-60,-92,48,30,-52,173,-93,-21,-97,9,82,70,98,3,-71,116,103,87,-25,-909,95,122,59,35,107,758717
-28,-14,1,-5,20,18,-110,21,-9,60,-86,138,-93,28,-38,-50,70,61,118,-50,-138,97,92,96,-95,-1040,93,120,34,23,156,758718
-73,-6,8,4,6,4,-151,160,-1,52,-185,126,-139,-26,113,-69,109,103,168,-64,-222,103,117,146,-157,-1208,152,154,78,65,198,758719
-103,-5,0,-3,-16,-20,-173,22,28,40,-119,153,-96,11,92,-62,123,126,195,-59,-244,108,136,183,-154,-1237,183,179,112,106,185,758720
-148,-21,19,2,-4,-11,-253,-187,63,-72,128,53,33,64,-44,-149,101,100,197,-145,-440,27,120,182,-282,-1477,181,158,102,103,322,758721
-164,-33,41,19,15,19,-251,-130,73,2,253,-8,-53,-65,-40,-204,93,88,210,-191,-630,-46,116,204,-388,-1713,191,163,137,105,391,758722
-93,-22,49,50,40,55,-128,183,58,91,153,12,-12,-134,-40,-224,30,16,131,-197,-632,-104,57,126,-358,-1661,114,110,107,47,293,758723
-65,-28,39,47,32,58,-58,1,70,-43,21,-42,-95,-59,-50,-230,-10,-14,85,-182,-633,-147,19,82,-329,-1598,63,81,96,13,170,758724
-96,-28,33,45,28,43,-36,-72,-58,7,-55,8,-95,-158,-3,-218,52,45,136,-171,-733,-157,75,157,-371,-1708,133,126,149,73,254,758725
-133,-21,8,55,14,14,-21,-125,-34,204,-200,52,41,-18,79,-209,79,61,170,-152,-788,-150,107,192,-389,-1792,160,149,181,98,296,758726
-187,-8,24,67,8,0,-126,-131,232,145,-313,22,108,-84,37,-260,74,54,205,-201,-924,-197,96,212,-475,-2002,189,162,205,113,366,758727
-155,-16,36,62,22,20,-178,-16,195,45,-274,56,112,-110,51,-227,78,57,193,-167,-886,-192,99,194,-430,-1950,172,162,213,105,299,758728
-121,-39,25,34,22,33,-172,115,159,105,-167,64,60,8,45,-194,78,59,164,-125,-830,-167,108,180,-387,-1871,145,143,210,80,332,758729
-107,-32,20,52,18,17,-123,88,28,421,-296,112,109,131,6,-205,87,56,177,-127,-841,-148,117,189,-394,-1930,155,159,208,82,308,758730
37,-7,-8,74,55,46,90,266,72,431,57,77,21,207,-23,-63,44,-8,50,10,-434,-53,91,68,-95,-1362,26,89,143,-15,-71,758731
124,-17,-58,44,46,44,229,291,2,205,160,104,-155,-13,33,26,-42,-81,-135,78,-85,-10,7,-101,130,-811,-138,-45,7,-145,-283,758732
139,-16,-66,17,39,38,272,-25,-126,166,136,90,-90,-37,56,36,-96,-132,-237,66,66,-19,-64,-208,188,-545,-221,-130,-96,-229,-335,758733
32,-14,-18,15,19,35,100,58,-36,-33,75,53,-3,88,9,-76,-69,-80,-151,-73,-142,-50,-44,-131,-46,-904,-134,-96,-101,-181,-105,758734
-161,-23,37,33,9,18,-211,10,60,-30,-169,-37,-17,-165,-11,-247,67,61,138,-257,-671,-65,81,140,-477,-1852,136,105,40,22,338,758735
-189,-29,44,38,18,13,-270,10,54,24,-264,-43,65,-2,79,-265,113,96,241,-267,-738,-3,130,220,-530,-2131,217,188,115,88,377,758736
-148,-44,7,16,2,3,-219,-14,53,16,-244,-38,81,-50,83,-231,100,81,222,-232,-592,48,129,175,-423,-2035,162,188,111,53,278,758737
-100,-29,-4,26,18,22,-151,-135,-31,-65,-162,51,5,15,50,-178,119,91,226,-174,-471,112,149,176,-302,-1912,161,200,118,62,248,758738
-85,-36,-10,21,10,15,-88,20,-19,-149,-12,77,-75,51,48,-150,108,73,176,-153,-381,123,123,134,-220,-1804,121,166,93,37,112,758739
-36,-34,-27,18,3,3,31,21,79,-71,135,163,17,-69,66,-77,69,28,71,-74,-175,141,92,39,-52,-1479,33,104,53,-24,-50,758740
313,14,-96,25,53,46,481,35,-78,7,238,317,-42,-95,117,299,-40,-107,-252,338,807,308,2,-266,759,140,-281,-80,-59,-226,-793,758741
654,54,-205,-44,57,56,837,379,-305,-91,291,337,-6,-38,123,677,-216,-298,-707,691,1914,416,-178,-656,1572,2112,-664,-382,-317,-522,-1484,758742
631,60,-181,-94,32,39,749,325,-192,-129,264,388,-160,128,126,714,-218,-260,-732,694,1997,371,-220,-624,1562,2479,-623,-407,-378,-513,-1323,758743
280,37,-66,-90,-17,4,307,69,-37,-88,3,294,20,150,112,400,-78,-74,-384,363,1060,146,-117,-253,776,1199,-238,-201,-234,-245,-346,758744
-181,-11,38,-46,-61,-46,-197,10,87,-103,-276,56,12,92,-65,-99,86,108,89,-81,-306,-147,40,183,-253,-882,165,49,3,89,534,758745
-142,-12,25,-8,-37,-32,-108,81,40,-56,-45,51,-57,157,-12,-76,77,88,105,4,-313,-127,72,148,-163,-929,130,60,74,117,346,758746
-97,10,21,2,-20,-24,-49,48,-26,-128,-181,45,35,133,24,-23,51,58,106,71,-233,-102,47,124,-47,-785,105,75,98,112,206,758747
-78,13,21,-5,-9,1,-119,-93,-70,-91,-167,-20,-103,116,-14,-64,6,-4,89,40,-288,-154,3,78,-64,-846,56,38,74,70,135,758748
-36,9,1,5,-2,11,-205,-6,-65,-77,-190,-4,-96,108,-8,-73,-19,-29,12,32,-293,-165,-33,31,-72,-846,15,-24,44,41,113,758749
43,20,2,16,17,15,-145,164,-22,197,-162,110,-115,17,108,57,8,-16,-13,157,-39,-57,-11,15,133,-496,1,-15,66,52,-16,758750
343,14,-83,-44,25,32,249,239,-119,22,160,129,-263,148,138,387,-89,-144,-315,478,881,137,-101,-283,843,941,-277,-191,-74,-148,-707,758751
607,39,-155,-73,38,52,738,405,-242,-94,305,112,-257,264,138,669,-203,-255,-643,716,1781,290,-220,-574,1446,2413,-567,-393,-288,-379,-1188,758752
590,75,-147,-49,35,45,862,425,-99,77,305,181,-283,264,101,633,-271,-306,-738,624,1916,257,-299,-661,1395,2719,-653,-488,-444,-489,-1186,758753
268,67,-42,-23,12,19,443,184,-55,-4,175,31,-37,-188,-14,284,-224,-197,-511,215,1115,68,-282,-423,633,1527,-412,-382,-441,-363,-468,758754
-96,25,52,-8,-22,-12,-97,111,116,-24,-106,-155,62,-298,-40,-84,-38,19,-25,-145,70,-32,-98,15,-187,-230,27,-71,-198,-21,246,758755
-89,10,53,-24,-30,-13,-172,-6,34,19,-467,-92,70,-95,-121,-72,36,68,85,-126,42,76,-14,75,-185,-480,90,31,-96,49,265,758756
-75,13,52,-7,-7,3,-165,-55,-22,140,-73,-197,214,-33,-11,-44,75,100,131,-104,64,155,41,110,-149,-588,123,87,-39,75,287,758757
-40,19,34,8,4,28,-95,-111,31,111,147,-103,-43,-32,-14,-9,99,103,145,-62,144,198,73,108,-66,-556,116,111,-14,77,197,758758
-39,12,30,8,9,39,-101,-230,93,15,167,-113,23,-44,-62,-34,79,80,140,-87,99,185,59,94,-83,-632,102,103,-21,56,266,758759
-15,-9,7,-18,0,33,-67,-37,44,-32,71,-101,135,-52,-24,-3,33,38,67,-43,167,155,1,33,12,-500,32,56,-37,0,92,758760
361,14,-96,-50,29,46,373,79,-108,56,-99,182,-166,120,70,394,-114,-139,-351,389,1227,312,-126,-351,897,1290,-340,-192,-189,-258,-837,758761
588,39,-167,-97,15,19,634,13,-295,-149,125,217,-393,78,79,695,-219,-246,-668,666,2043,401,-233,-612,1504,2788,-599,-392,-360,-454,-1158,758762
539,58,-122,-128,-11,-4,580,12,-247,-111,297,153,-98,126,70,726,-185,-185,-644,663,2040,359,-224,-544,1449,3009,-526,-386,-361,-398,-877,758763
271,55,-47,-102,-43,-33,231,188,-38,-19,84,88,104,-109,141,432,-104,-73,-383,383,1256,150,-175,-285,803,1972,-255,-252,-277,-195,-281,758764
-28,21,21,-74,-58,-52,-198,-7,96,37,-126,-79,-43,-165,23,59,-41,9,-83,34,241,-90,-118,-7,51,483,8,-100,-139,14,202,758765
-3,15,12,-62,-40,-45,-178,-139,30,62,-132,-71,-69,-10,-45,67,-55,-13,-56,81,214,-96,-99,-17,111,452,-24,-102,-79,19,62,758766
35,10,17,-64,-32,-33,-48,-78,-39,36,-46,-64,6,58,-54,121,-17,8,-34,153,272,-62,-55,-9,193,550,-14,-69,-28,55,66,758767
31,38,32,-15,-14,-17,110,51,44,60,4,-62,48,24,-38,122,-3,18,-35,161,234,-49,-46,-2,174,496,8,-62,-7,76,121,758768
21,48,5,9,-18,-30,198,27,47,-92,17,-153,-71,28,-48,102,-20,-8,-37,147,216,-54,-64,-17,170,478,-4,-72,-26,61,-42,758769
33,48,8,33,-12,-20,183,-10,-5,-151,3,-82,68,97,-49,69,-53,-43,-51,127,212,-64,-89,-42,152,459,-49,-93,-47,32,-87,758770
110,34,-10,-2,-5,-8,218,31,-71,20,139,0,288,58,-39,152,-87,-75,-131,191,459,-11,-116,-123,330,824,-121,-137,-81,-17,-198,758771
103,38,8,-21,1,-22,132,-12,-48,130,103,5,170,71,21,170,-60,-25,-85,191,483,34,-83,-82,325,840,-69,-91,-70,13,-144,758772
48,36,21,-19,1,-24,23,64,76,72,187,-28,62,-59,-29,134,-21,7,-15,130,372,49,-50,-22,225,620,-8,-50,-48,63,-35,758773
0,20,13,-31,-22,-22,-60,-39,56,46,46,-144,85,-105,-59,66,-36,-6,-28,47,264,22,-84,-43,111,421,-23,-74,-83,34,-21,758774
-2,18,16,-21,-11,-8,-51,-74,15,2,-16,-144,71,-20,-32,78,4,17,-14,56,307,85,-47,-28,116,396,5,-42,-76,41,9,758775
-10,3,6,-33,-14,-14,-32,86,-29,-64,81,-28,11,-115,-5,74,4,18,-20,36,358,129,-33,-29,118,396,2,-39,-95,12,-38,758776
-21,12,17,-20,-12,-5,-42,44,6,-140,36,-34,-122,-184,34,32,-21,10,-13,-19,314,125,-47,-43,67,274,-30,-48,-123,-25,-39,758777
47,24,5,-7,1,-2,30,75,77,17,-14,-55,35,-110,34,72,-24,-16,-55,15,429,146,-41,-82,158,435,-73,-59,-143,-44,-98,758778
72,27,-1,-15,-3,-16,80,212,100,-27,112,43,136,-180,27,112,-7,5,-39,48,494,182,-22,-70,226,549,-54,-34,-115,-35,-125,758779
100,30,-9,-16,-10,-6,165,164,16,16,270,92,111,-19,62,161,-13,-5,-66,88,575,190,-34,-82,304,692,-54,-48,-102,-51,-186,758780
0,16,6,-4,-22,-17,70,121,-35,114,18,-69,54,9,-9,40,-19,-10,-39,-29,269,70,-46,-43,84,320,-17,-46,-107,-35,3,758781
-157,-3,34,16,-30,-38,-145,42,-35,-14,-172,-146,217,-16,-77,-158,10,20,85,-187,-231,-85,-13,64,-259,-409,65,5,-50,35,210,758782
-143,2,28,11,-19,-27,-166,-56,-39,-240,-189,-129,118,-15,-63,-112,43,51,144,-104,-250,-66,24,123,-201,-448,97,49,42,97,187,758783
-8,4,-11,-13,-13,-20,3,-63,-11,-93,-142,7,99,79,-17,69,27,22,57,100,122,28,6,34,143,147,3,19,56,68,-37,758784
176,21,-37,-30,14,6,197,-57,1,-204,-110,93,86,28,60,274,-23,-27,-94,300,623,127,-46,-107,543,979,-122,-67,8,-11,-319,758785
186,13,-40,-47,6,1,162,90,27,-51,18,26,60,-130,-27,257,-69,-68,-179,276,673,87,-99,-152,540,1140,-157,-123,-59,-51,-358,758786
206,17,-29,-35,14,7,171,219,-236,-54,131,17,-11,-136,-64,240,-94,-78,-202,262,681,66,-123,-176,526,1226,-181,-163,-103,-67,-399,758787
169,22,-42,-46,-8,-12,164,-19,-97,-128,151,-31,46,-60,-42,230,-77,-47,-160,253,643,66,-92,-139,482,1205,-133,-135,-93,-35,-225,758788
112,16,-46,-54,-22,-40,167,-88,-36,-147,79,43,-134,-98,-2,251,-21,3,-89,265,618,90,-36,-75,457,1154,-63,-68,-43,36,-150,758789
54,23,-19,-46,-23,-35,145,-97,95,-219,20,12,-129,-116,35,222,3,34,-38,222,513,82,-26,-18,367,1008,-8,-43,-28,79,-161,758790
-120,25,39,-13,-37,-40,-85,-166,121,-126,-346,-42,57,13,-18,21,67,117,160,19,-18,-6,21,182,-54,162,195,77,63,210,289,758791
-282,10,75,3,-52,-59,-357,-197,160,-156,-374,-44,82,72,-104,-156,132,180,350,-141,-511,-76,98,335,-415,-706,344,195,169,318,567,758792
-278,-5,86,-1,-44,-40,-421,-326,72,-67,-287,-127,93,59,-60,-160,181,208,431,-132,-599,-44,166,386,-432,-956,388,269,243,370,585,758793
-113,2,43,-9,-4,-17,-219,-283,-70,-102,11,-142,75,33,-2,-36,125,120,285,-1,-242,32,120,224,-121,-460,224,178,183,262,145,758794
160,18,-26,-15,27,5,151,-76,-89,-27,247,54,-42,174,35,186,-19,-39,-67,221,512,141,-19,-101,450,732,-97,-56,-8,3,-384,758795
181,28,-35,-39,6,-8,206,-53,-133,-84,289,113,-53,60,75,234,-44,-37,-138,229,693,158,-57,-147,521,1043,-122,-94,-80,-44,-338,758796
97,18,-29,-61,-13,-29,152,66,-126,-39,203,78,-28,173,75,192,-17,-22,-120,162,598,135,-55,-124,408,927,-102,-89,-102,-40,-253,758797
102,20,-28,-55,-14,-36,154,264,13,30,145,73,-56,133,19,199,-50,-49,-181,145,646,123,-77,-179,422,1044,-151,-132,-144,-87,-345,758798
112,9,-37,-49,-16,-46,85,54,20,7,61,11,-52,-9,-66,166,-103,-97,-231,107,663,75,-126,-226,391,1100,-201,-181,-199,-138,-385,758799
125,22,-15,-20,3,-24,50,73,-11,-64,164,-40,53,-26,-44,168,-74,-64,-167,102,614,78,-100,-165,355,1046,-133,-140,-155,-88,-230,758800
-105,-9,34,-17,-35,-42,-168,-46,136,-17,84,-73,18,-65,-1,-25,27,73,100,-85,2,-12,-3,99,-110,105,111,37,-11,102,310,758801
-238,-9,95,21,-21,-18,-299,-233,183,163,29,-124,129,-65,52,-206,105,147,309,-228,-547,-90,75,272,-478,-802,282,171,111,242,537,758802
-196,-5,58,30,0,-14,-228,-152,136,-77,-154,-202,43,7,-32,-216,54,78,241,-210,-540,-115,43,180,-425,-839,189,106,87,175,252,758803
6,22,3,28,28,10,42,3,110,-52,4,-58,-92,21,45,18,12,-12,43,35,53,20,14,-22,79,57,-18,-15,13,41,-105,758804
236,35,-39,-7,39,27,297,129,-57,74,145,27,-56,92,35,287,-63,-93,-187,287,757,162,-49,-227,613,1199,-214,-148,-104,-104,-499,758805
222,29,-30,-12,21,20,265,270,-116,9,139,3,-65,-114,-54,252,-118,-122,-263,233,774,120,-144,-251,559,1299,-239,-197,-184,-145,-503,758806
224,24,-42,-8,17,15,260,57,-169,57,302,-24,-16,-11,0,249,-135,-126,-293,223,796,108,-168,-258,558,1393,-250,-218,-223,-154,-474,758807
179,25,-28,-13,17,4,217,31,-7,86,119,20,145,-48,-6,245,-92,-73,-224,212,761,133,-109,-188,513,1352,-179,-168,-187,-95,-338,758808
133,24,-9,-21,8,-13,203,92,-13,19,-68,49,176,-159,-41,225,-76,-43,-175,195,712,135,-94,-156,477,1297,-146,-137,-169,-66,-224,758809
100,9,3,-53,-11,3,163,23,-127,-16,56,-65,139,-130,-75,184,-91,-51,-175,139,624,89,-113,-167,390,1187,-144,-152,-186,-69,-185,758810
-86,-13,46,-41,-26,-16,-92,-121,-106,-54,-38,-123,-57,-166,0,-38,-35,6,-1,-85,50,-43,-75,1,-59,330,24,-53,-121,34,222,758811
-199,-11,66,-15,-27,-25,-318,-164,44,2,-91,-117,171,-221,-25,-179,27,63,180,-212,-385,-111,-8,164,-361,-398,181,63,2,162,396,758812
-172,-1,78,14,-13,7,-364,-170,59,-106,38,-49,140,-312,-22,-187,62,93,259,-210,-489,-91,44,229,-389,-631,235,125,94,221,408,758813
-6,15,20,31,13,10,-116,-304,145,-18,24,56,-13,-55,9,6,65,61,173,-2,-79,30,60,136,2,-34,135,112,108,170,35,758814
169,10,-45,-8,5,-9,147,27,7,-51,232,86,-5,176,45,214,-44,-42,-109,181,508,80,-46,-113,455,945,-114,-68,-29,-22,-357,758815
163,12,-56,-16,-12,-23,174,156,70,-101,53,34,-108,227,-58,203,-85,-70,-203,151,552,25,-93,-187,473,1128,-181,-154,-97,-80,-349,758816
161,19,-39,-5,-1,-10,160,24,-60,-40,-6,83,-65,75,-51,194,-78,-67,-195,137,532,8,-91,-164,439,1165,-145,-147,-105,-71,-290,758817
132,13,-40,-16,-13,-27,150,171,-44,-29,48,4,44,37,22,188,-91,-61,-190,115,499,-12,-112,-154,398,1167,-127,-151,-112,-80,-248,758818
139,40,-30,-11,-12,-15,213,178,-80,81,15,56,-15,76,37,225,-72,-35,-171,161,550,6,-99,-137,426,1268,-116,-129,-91,-63,-193,758819
105,41,-3,-10,-10,-14,168,90,-119,134,52,-49,-229,-75,16,181,-46,-23,-123,115,447,-5,-74,-101,315,1118,-87,-103,-84,-34,-93,758820
-115,12,43,-5,-31,-29,-134,18,-72,-24,58,-157,26,-51,-123,-121,-49,-11,15,-191,-220,-174,-86,29,-264,77,37,-63,-82,32,266,758821
-259,-9,89,26,-35,-30,-325,61,127,135,-25,-210,155,-102,-105,-293,1,61,200,-348,-722,-236,-30,187,-641,-812,204,53,24,160,535,758822
-212,-3,71,43,-15,-8,-292,80,140,147,4,-171,84,-39,-68,-227,71,107,271,-254,-644,-128,65,222,-535,-832,239,142,108,217,476,758823
-78,-10,5,23,-3,-23,-100,104,-48,53,231,-83,21,107,-104,-55,28,55,132,-88,-194,-5,41,87,-172,-242,85,69,65,105,97,758824
109,12,-60,3,0,-22,172,-41,-199,26,217,1,26,38,24,185,-30,-13,-73,139,466,153,-18,-111,322,747,-94,-32,-41,-41,-310,758825
94,29,-37,2,8,-2,126,-78,-171,-134,-79,53,6,-119,57,192,-2,16,-49,123,473,165,1,-65,281,763,-45,-4,-50,-24,-191,758826
68,7,-46,-29,-12,-16,7,-285,-63,-69,54,96,-69,-125,23,161,-13,-5,-96,75,451,130,-18,-98,231,729,-70,-49,-96,-51,-218,758827
81,-7,-30,-68,-18,-11,-103,-78,-39,-53,131,78,29,0,75,177,31,37,-43,95,484,179,27,-59,250,760,-26,-12,-75,-24,-128,758828
76,-13,3,-72,-18,-14,-104,103,-57,73,106,61,84,142,72,169,44,53,-2,88,453,183,33,-23,230,696,4,20,-51,-3,-62,758829
44,-7,13,-51,-15,-5,7,-17,42,-43,53,74,65,-62,-5,108,2,26,-34,18,346,125,-12,-39,135,564,-12,-7,-84,-29,-55,758830
-21,-1,11,-16,-14,0,19,5,67,33,-32,76,-88,-158,-61,16,-3,23,-9,-61,141,50,-15,-16,-9,276,-6,-7,-84,-21,25,758831
-103,-12,29,-4,-19,-13,-135,-186,85,84,8,-12,-10,-252,-49,-77,11,50,66,-144,-138,-22,2,64,-197,-138,79,35,-33,44,198,758832
-96,-23,29,1,-15,-13,-152,-39,-24,54,108,-85,100,-171,45,-82,9,47,71,-143,-206,-52,-10,70,-198,-205,83,36,-6,53,232,758833
-11,-7,1,4,7,-8,-26,183,-7,-86,133,-40,-18,179,-25,15,-14,-2,-4,-46,2,-28,-23,-4,9,162,-8,0,-1,3,-1,758834
54,9,-15,0,8,1,64,-82,-110,-120,-14,10,-122,86,-59,85,-39,-39,-69,19,156,-38,-31,-69,153,502,-87,-47,-12,-40,-93,758835
72,31,-1,32,30,26,90,-131,-133,-46,201,22,-107,0,24,73,-49,-45,-90,25,100,-101,-33,-75,150,540,-88,-70,-7,-38,-79,758836
54,19,4,15,13,4,56,75,35,-112,-34,16,-141,-81,-61,25,-93,-80,-115,-25,4,-179,-91,-91,76,518,-92,-107,-29,-48,-97,758837
19,9,17,7,4,3,13,-8,101,-155,-178,-20,6,-20,-103,-17,-95,-73,-99,-61,-112,-213,-106,-70,3,406,-71,-106,-24,-28,-50,758838
14,-10,1,-12,-8,-7,33,73,-90,-69,-99,6,-38,124,-26,5,-73,-62,-90,-42,-106,-203,-80,-62,8,426,-75,-103,-19,-22,1,758839
40,16,4,0,-2,-10,93,-47,-72,-8,-135,83,-113,79,-17,66,-34,-37,-65,30,9,-126,-23,-59,87,556,-60,-71,3,-2,-44,758840
101,30,-19,-4,13,-15,173,87,-97,-67,118,13,11,26,46,165,-37,-28,-108,102,278,-28,-36,-103,233,831,-98,-95,-24,-37,-170,758841
53,19,-26,-13,-8,-32,113,211,-21,-80,161,65,-48,117,37,113,-36,-11,-83,39,227,-9,-40,-64,121,673,-67,-76,-41,-36,-116,758842
51,23,-17,-4,5,-5,73,91,30,21,72,50,-134,-36,23,101,-22,-11,-69,25,265,30,-31,-72,97,634,-61,-57,-67,-41,-167,758843
31,14,2,-10,12,3,8,-137,-2,76,-212,-65,-70,-1,-30,79,11,21,-24,-3,237,77,14,-27,30,484,-17,-11,-68,-24,-110,758844
-5,0,12,-22,1,-6,-52,-208,-57,11,-99,-145,-12,32,-96,17,15,40,-7,-59,151,73,11,-13,-72,260,7,5,-82,-27,-4,758845
-5,3,38,-14,14,17,-27,-117,29,-1,86,-115,61,221,-4,-4,23,39,25,-91,101,85,11,-1,-124,107,31,20,-73,-21,95,758846
-11,4,20,-4,4,-4,16,159,57,-62,33,-91,-6,103,14,-11,30,30,33,-93,106,107,10,-5,-130,50,25,28,-80,-28,120,758847
-19,5,25,18,1,-11,33,-39,10,29,78,-92,-1,6,-26,2,40,40,31,-89,121,109,15,-3,-127,25,19,39,-71,-36,-1,758848
5,7,19,5,7,10,31,103,10,75,119,-1,-6,14,-26,32,6,23,-19,-68,202,113,4,-34,-67,126,-22,19,-82,-58,-26,758849
-9,-7,-8,-26,-11,-14,-41,-93,-58,180,-2,17,-97,-57,-43,35,5,14,-30,-66,194,103,4,-33,-53,143,-17,13,-84,-63,23,758850
59,18,0,-6,7,5,1,-126,40,-74,81,27,-175,-152,-14,109,0,7,-87,14,365,141,1,-78,111,438,-63,-25,-83,-94,-113,758851
145,33,-28,-19,13,9,133,70,9,-51,204,-6,-211,23,-20,220,-30,-38,-181,124,632,160,-34,-167,337,942,-151,-89,-117,-144,-309,758852
146,18,-52,-46,-8,-29,122,201,-164,-104,-159,47,-34,66,45,246,-42,-47,-211,158,698,148,-36,-185,408,1184,-172,-98,-125,-162,-380,758853
53,17,-17,-50,-20,-28,-83,28,-151,19,-80,86,161,-133,18,159,-31,-20,-145,58,425,43,-31,-106,215,885,-107,-80,-93,-103,-23,758854
-56,14,45,-31,-18,-5,-296,15,-7,14,-63,4,-8,-73,-70,21,-17,16,-22,-76,-34,-94,-26,20,-88,300,8,-29,-10,-2,209,758855
-50,-7,36,-49,-21,-7,-256,56,23,14,-174,-24,-86,16,-12,25,-13,8,6,-37,-138,-147,-26,34,-65,276,10,-18,59,40,110,758856
13,19,46,-9,9,18,-12,-50,28,115,-44,52,77,-23,-4,83,19,30,25,47,-95,-140,15,64,34,428,42,1,129,95,73,758857
-2,24,34,19,-4,-9,83,-72,-9,17,24,95,69,-33,-22,66,9,23,19,35,-161,-171,16,56,-19,372,35,-12,121,79,82,758858
-9,22,14,9,-4,-17,78,-155,-61,-65,134,-62,103,34,-27,53,-6,2,-15,32,-172,-195,-6,18,-29,379,-7,-42,92,55,45,758859
-20,18,2,-1,-9,-19,41,1,7,50,-55,-67,30,-39,-18,17,-50,-33,-48,1,-173,-204,-50,-13,-63,379,-49,-64,48,16,8,758860
109,34,-12,-9,23,0,126,53,18,-43,-21,62,52,-99,6,141,-65,-65,-129,121,214,-72,-71,-106,186,851,-115,-99,1,-44,-333,758861
241,31,-49,-55,11,-5,227,-47,-13,-138,86,179,-5,131,-23,316,-102,-101,-290,254,753,75,-106,-252,510,1589,-244,-180,-114,-159,-479,758862
183,18,-48,-69,-26,-34,150,-51,-117,63,-99,95,-89,24,-21,300,-66,-53,-248,201,770,131,-72,-216,433,1540,-200,-143,-140,-141,-252,758863
67,27,4,-49,-27,-36,22,29,-66,-24,23,-32,-61,55,-16,193,7,40,-98,68,512,138,-17,-70,159,1020,-42,-40,-95,-50,-63,758864
-98,16,28,-21,-41,-51,-125,44,-26,36,42,-45,-184,-192,-22,-3,63,98,74,-115,71,77,39,77,-212,215,104,70,-39,41,190,758865
-94,21,22,-3,-22,-35,-87,-280,-18,-92,-97,45,-98,-216,13,3,106,132,148,-104,59,123,100,112,-201,73,146,116,14,78,239,758866
-91,21,36,-15,-15,-26,-114,-122,174,4,-118,-35,-41,-45,56,16,140,152,162,-96,76,166,137,139,-198,-8,161,149,36,78,261,758867
-65,12,43,-16,-2,-11,-123,100,129,163,-42,42,-148,35,19,-14,71,77,72,-120,91,129,66,52,-200,-11,65,71,-25,1,126,758868
-26,15,44,3,18,12,-128,13,11,168,-41,-31,-4,-26,-17,-66,-20,-11,-12,-171,65,59,-15,-39,-214,-26,-30,-6,-94,-84,-73,758869
2,14,16,13,19,1,-74,19,-71,8,40,-74,94,63,19,-50,-24,-31,-20,-147,118,60,-23,-56,-138,52,-56,-12,-91,-104,-77,758870
107,26,4,17,34,19,135,111,-42,-114,241,-18,86,194,66,78,-59,-68,-136,-16,429,110,-41,-158,133,584,-152,-76,-120,-164,-325,758871
179,36,-34,4,22,9,298,125,-152,-74,-106,-44,-60,178,78,157,-130,-134,-290,49,658,88,-120,-287,315,1081,-275,-185,-204,-259,-437,758872
198,37,-41,-8,16,5,342,131,-76,-78,-9,49,-186,81,23,195,-150,-144,-350,95,749,62,-164,-326,396,1351,-300,-231,-226,-272,-437,758873
110,37,7,-4,5,6,245,226,-43,35,107,-60,-62,-71,2,132,-106,-86,-233,32,480,-15,-113,-192,206,1065,-171,-157,-147,-172,-195,758874
-63,17,37,-5,-17,-11,63,172,27,-10,-218,-29,175,-239,-35,-45,-35,-19,-37,-112,-90,-163,-47,-8,-180,316,1,-45,-32,-30,104,758875
-68,9,35,14,-10,-10,35,3,42,55,-134,-22,56,-104,-39,-57,-27,-30,-2,-91,-242,-220,-26,19,-208,206,11,-30,31,10,130,758876
-34,17,30,15,-10,-3,-21,-27,34,54,-101,-58,107,-19,-23,-17,-51,-32,-19,-32,-248,-234,-26,24,-136,307,-4,-46,68,25,126,758877
-50,6,33,-14,-13,-2,-107,-70,-133,66,-58,-109,30,-138,-51,-23,-33,-14,17,-6,-305,-247,-30,63,-144,245,27,-13,118,66,195,758878
-43,14,51,-8,-7,10,-76,50,-97,-41,55,-102,61,-129,-57,-8,-11,8,36,4,-319,-223,-12,78,-136,234,50,0,134,97,170,758879
-55,-7,37,-25,-15,-4,-72,-181,47,-114,-67,3,24,-45,-42,-33,-15,6,22,-19,-332,-206,-7,55,-169,177,31,-14,105,78,155,758880
85,20,-23,-15,9,2,128,26,-4,-18,-72,112,60,114,58,125,-21,-27,-88,134,132,-66,-6,-73,154,756,-89,-50,43,-9,-147,758881
234,53,-51,-6,28,17,312,322,-140,-129,-18,97,-59,79,64,306,-42,-53,-209,272,665,81,-30,-189,489,1481,-205,-114,-55,-111,-399,758882
171,38,-41,-17,-5,-3,227,166,-164,29,145,19,61,16,32,228,-58,-75,-222,159,627,84,-67,-185,362,1385,-194,-139,-137,-150,-313,758883
25,29,12,-8,-21,-11,20,-21,-129,-33,-103,-16,33,-208,-17,45,-48,-41,-105,-50,259,23,-63,-88,0,739,-79,-75,-129,-92,5,758884
-107,8,50,-5,-21,-12,-145,90,31,34,76,-58,40,-114,-19,-98,6,23,61,-201,-104,-9,-16,40,-302,52,60,29,-54,-8,272,758885
-101,-1,48,-14,-15,-16,-141,-3,94,119,223,-53,-44,45,7,-120,9,22,63,-213,-109,11,-4,22,-300,-45,37,29,-47,-27,229,758886
-67,16,58,13,0,4,-67,-37,47,104,81,-30,-99,-25,-67,-99,40,49,108,-177,-76,54,43,56,-258,-77,54,68,-5,0,183,758887
-65,15,22,12,-7,-19,-4,-181,-116,-139,-94,-55,-125,-11,-76,-93,16,16,67,-189,-50,48,8,23,-241,-70,32,35,-24,-29,80,758888
-58,22,13,22,2,-11,19,-254,-10,-296,-127,-57,-104,169,-72,-57,54,46,84,-157,-24,71,35,59,-206,-52,88,70,10,9,127,758889
-61,15,9,9,-4,-21,-54,-173,5,-154,-125,-99,-225,83,-46,3,92,81,121,-74,54,125,85,95,-118,44,121,121,73,51,150,758890
56,16,-11,-23,0,-22,37,110,-66,-85,-110,-47,107,56,15,142,47,32,-3,73,380,166,57,-29,165,579,-32,35,27,-41,-100,758891
178,26,-22,-32,16,2,175,462,-149,-203,-104,44,14,199,54,229,-7,-31,-134,168,664,174,-3,-151,374,1104,-155,-58,-54,-138,-312,758892
182,23,-21,-32,11,-2,222,361,-164,-34,-118,72,-31,227,-17,249,-33,-51,-215,176,729,135,-42,-187,406,1303,-182,-114,-96,-156,-360,758893
64,1,2,-51,-24,-13,130,205,-126,0,-202,-3,73,86,3,119,-50,-48,-166,58,419,-1,-70,-138,161,961,-124,-122,-112,-123,-188,758894
-77,2,44,-22,-22,-11,-35,16,86,144,-127,-83,-91,-99,10,-77,-20,-6,-15,-97,-133,-137,-32,4,-216,214,18,-39,-25,-9,138,758895
-54,25,57,2,11,9,-61,21,111,176,169,-7,93,-95,30,-58,11,18,43,-53,-229,-147,5,70,-220,127,60,3,48,49,195,758896
-52,5,32,-14,-9,-17,-109,19,119,3,142,-89,36,-14,23,-8,20,22,46,8,-200,-141,18,69,-153,210,48,14,82,67,134,758897
-65,-17,31,-36,-22,-23,-173,-240,73,-48,84,-88,4,33,52,-20,26,26,69,3,-271,-154,27,89,-194,113,60,37,107,92,170,758898
-68,-15,49,-23,-4,-7,-202,-8,145,18,77,-92,76,-35,23,-69,7,4,55,-33,-338,-174,17,82,-238,14,60,21,95,79,116,758899
-21,-2,37,-13,12,13,-134,92,105,-32,-49,-40,237,58,8,-32,1,-13,17,10,-233,-133,10,50,-138,151,29,-4,76,54,19,758900
201,2,-44,-44,10,13,165,234,-25,1,163,102,31,159,79,258,-30,-59,-159,272,480,60,-14,-143,419,1207,-155,-88,8,-68,-401,758901
351,38,-67,-56,29,24,380,172,-127,-27,327,169,-28,46,78,434,-63,-97,-325,405,1035,194,-66,-293,775,2061,-288,-176,-111,-184,-618,758902
268,34,-42,-67,12,-6,331,97,-78,-75,185,170,-19,13,90,350,-95,-100,-339,283,988,164,-111,-284,631,1977,-274,-208,-181,-210,-472,758903
63,25,5,-68,-16,-20,95,-160,-52,-5,-28,35,36,-128,70,122,-76,-73,-214,40,521,41,-123,-169,215,1271,-156,-159,-191,-153,-199,758904
-136,15,60,-40,-19,-8,-192,-182,67,-96,-102,31,224,-104,-76,-115,-32,-3,8,-203,-111,-75,-54,25,-279,252,22,-35,-101,-21,186,758905
-97,-5,59,-18,-6,9,-204,72,41,-26,-163,-67,150,-83,-87,-116,-23,-14,24,-201,-126,-51,-37,9,-250,183,15,-25,-71,-26,141,758906
-65,2,72,3,15,29,-130,23,85,-1,-148,-106,134,0,-61,-107,-16,0,43,-189,-130,-30,-27,18,-241,126,38,-2,-31,-11,160,758907
-52,3,56,14,9,29,-6,7,64,-77,-104,-146,40,86,-69,-86,-15,5,49,-161,-101,-10,-18,35,-194,136,48,16,-6,6,120,758908
-42,-3,33,15,-4,5,-4,-165,41,-81,-61,-177,-49,-255,-65,-114,-30,-31,17,-184,-109,-42,-29,-14,-204,139,-21,-26,-39,-42,113,758909
-2,7,27,25,11,-5,-63,118,15,-150,-113,-64,127,-193,-29,-109,-43,-58,-17,-162,-79,-63,-41,-50,-160,210,-62,-55,-49,-69,8,758910
124,16,-14,-10,8,-9,46,-24,63,-82,66,47,63,92,-14,82,-52,-68,-94,27,316,45,-48,-110,174,822,-113,-66,-43,-87,-201,758911
181,14,-44,-47,-14,-11,149,92,-9,75,231,106,132,129,29,215,-38,-62,-131,149,600,129,-31,-147,394,1294,-150,-82,-53,-100,-301,758912
204,31,-36,-56,3,-6,192,-46,-21,-12,249,108,86,171,3,256,-26,-41,-159,191,693,140,-29,-146,440,1477,-147,-98,-66,-99,-374,758913
78,8,6,-47,-14,-8,48,-145,12,52,118,41,-28,19,7,109,3,9,-78,50,318,44,-17,-47,129,963,-34,-55,-49,-35,28,758914
-93,-6,45,-8,-27,-30,-98,12,4,122,-22,-84,7,-195,18,-54,58,73,94,-75,-156,-41,38,117,-218,201,126,51,40,83,300,758915
-92,1,45,8,-18,-32,-68,-147,46,-11,-122,-164,130,-65,-22,-41,53,67,120,-40,-166,-42,31,121,-200,138,123,63,74,89,170,758916
-80,-5,23,6,-23,-41,-112,-115,-8,59,51,-106,162,41,25,-28,52,50,100,-12,-155,-35,36,95,-179,140,90,51,70,77,122,758917
-66,-2,18,-8,-25,-22,-138,-4,-63,11,91,-94,-125,-60,37,-11,57,48,96,15,-122,-12,64,87,-136,181,86,52,79,80,58,758918
-35,8,39,11,-6,-2,-117,-113,-5,90,-28,3,-88,144,70,4,54,56,98,33,-84,10,59,91,-100,208,103,77,84,78,77,758919
-27,-5,17,-1,-11,-18,-90,-72,16,-11,1,-2,71,7,-18,-6,-1,3,35,17,-38,-17,16,26,-73,272,34,29,26,24,-61,758920
45,6,17,-5,-5,3,-5,-105,-19,-106,-122,68,-67,-16,-113,33,-36,-46,-48,46,117,6,-14,-51,47,554,-52,-37,-31,-46,-103,758921
97,7,14,-20,9,22,57,119,-61,-88,-120,14,87,-65,-50,85,-42,-54,-92,72,255,31,-28,-91,145,804,-88,-64,-49,-68,-176,758922
79,-1,13,-30,9,3,50,153,1,-89,102,36,150,-52,-34,69,-52,-52,-90,30,210,7,-44,-80,119,785,-77,-64,-49,-66,-170,758923
34,-7,6,-26,-18,-11,-9,11,31,-163,179,-61,162,21,-109,22,-46,-30,-51,-25,96,-20,-58,-39,30,652,-38,-46,-32,-46,5,758924
-10,17,45,14,8,-5,-84,-51,126,-239,-131,-37,146,182,26,-49,-10,3,36,-97,-105,-59,-23,40,-126,340,38,4,23,20,185,758925
-59,2,34,9,-14,-17,-149,-69,45,17,-146,-73,149,53,-20,-45,22,24,82,-106,-183,-55,10,79,-156,222,69,39,64,66,153,758926
-64,-4,21,-8,-24,-23,-177,-64,8,78,-44,-13,181,-213,-2,-48,5,14,67,-117,-195,-53,0,65,-147,215,48,30,67,54,136,758927
-34,11,28,0,-2,-1,-175,99,63,43,75,39,49,-239,63,-49,-5,-6,58,-105,-175,-47,12,41,-101,256,32,19,69,40,96,758928
-57,-13,24,-7,-17,-10,-163,-49,50,-19,287,-28,158,-49,34,-36,40,43,109,-81,-190,-24,47,94,-96,226,90,64,117,90,183,758929
-33,16,26,32,8,3,-21,51,122,-6,196,-33,157,183,39,-26,45,55,104,-57,-167,-23,50,91,-84,257,79,63,117,86,144,758930
28,13,-21,16,1,-14,103,-28,-28,-59,-120,32,99,16,-44,47,7,11,17,19,33,12,17,12,75,566,13,16,77,46,-43,758931
116,4,-32,-20,1,-9,165,-13,-59,-70,-6,154,57,-195,-14,140,-15,-33,-94,111,312,71,-10,-84,268,988,-75,-46,12,-38,-191,758932
121,13,-6,-33,4,10,139,-210,72,25,109,17,43,-136,-2,149,-19,-33,-88,107,337,84,-14,-71,250,1012,-61,-51,-22,-36,-139,758933
31,21,18,-18,-11,-7,86,-131,127,-51,-71,83,-28,86,21,81,24,30,7,45,152,71,23,25,78,679,23,2,7,25,10,758934
-60,8,33,1,-17,-33,18,-141,53,-56,-112,14,153,-42,45,-72,4,8,46,-77,-106,-13,3,41,-151,216,35,13,-21,21,98,758935
-46,19,48,23,-2,-9,-7,-22,19,8,-122,-80,307,-173,-1,-105,-23,-18,26,-88,-114,-22,-25,10,-173,107,17,3,-57,-14,95,758936
-34,13,37,19,5,0,-53,10,32,-179,-8,-41,179,-68,-43,-80,-13,-11,24,-44,-45,21,-18,-2,-132,124,9,9,-62,-29,64,758937
-16,10,17,7,1,-1,-46,23,115,-75,-130,-11,-53,27,-24,-33,-13,-15,19,5,63,68,-23,-15,-44,254,8,10,-57,-43,34,758938
-35,0,2,1,-14,-17,-55,-78,112,62,-270,-12,-165,-7,-47,-10,35,20,51,31,90,95,24,22,-35,236,42,39,-32,-19,131,758939
-39,5,11,4,-11,-12,-52,-34,-79,5,16,-123,-142,66,-70,11,53,56,74,26,77,100,52,47,-35,205,63,61,-6,8,60,758940
-56,7,20,5,-3,-4,-43,-73,-30,-10,196,-82,-238,78,-36,-6,43,57,87,3,6,65,53,67,-52,197,69,66,12,21,89,758941
-20,-6,20,-11,-1,21,-37,-37,28,-27,-211,-53,-66,-19,-60,-40,-26,-26,2,-26,-9,5,-17,-11,-44,288,-5,-1,-18,-37,-19,758942
50,1,47,2,39,70,-38,132,25,-56,-195,-37,129,-155,-66,-65,-81,-81,-75,-65,-37,-57,-89,-73,-57,365,-74,-56,-53,-86,-98,758943
27,-16,39,17,34,51,-53,187,82,44,53,-12,67,-102,2,-72,-68,-63,-38,-97,-122,-86,-62,-27,-95,313,-36,-39,-11,-44,46,758944
10,5,41,44,14,14,-28,-29,86,130,-77,-9,115,190,61,-55,-25,-22,25,-82,-172,-86,-18,37,-102,278,20,4,58,29,72,758945
-8,2,29,27,-12,-8,5,93,98,-17,119,-42,85,227,19,-76,-38,-38,24,-99,-231,-118,-39,34,-121,255,13,8,65,46,15,758946
-9,0,17,23,-12,-3,19,47,69,-39,24,25,75,158,19,-110,-84,-87,-40,-136,-263,-172,-79,-25,-138,266,-36,-50,24,-4,-26,758947
-36,2,24,28,-3,1,-36,-147,-25,19,-118,-14,31,0,-27,-100,-17,-23,35,-117,-325,-152,1,41,-156,176,27,6,88,60,129,758948
-39,16,24,18,-1,-1,-54,113,-85,97,-27,8,128,-96,-32,-30,40,41,90,-54,-262,-96,66,98,-80,252,82,60,151,113,153,758949
-47,4,31,-17,-4,15,-128,138,-3,21,125,68,94,-43,14,-25,41,52,87,-48,-263,-88,50,110,-95,222,94,57,142,121,157,758950
-113,-18,31,-31,-16,6,-245,-86,131,30,-67,100,14,99,58,-88,70,101,188,-107,-449,-102,57,201,-247,-92,198,120,186,193,299,758951
-151,-18,61,8,-3,1,-232,-213,150,68,88,144,72,90,-1,-133,99,117,249,-130,-584,-89,87,255,-339,-385,256,178,220,229,366,758952
-188,-27,46,32,-12,-19,-232,-24,171,33,-35,-9,158,-44,-75,-205,77,91,253,-186,-713,-118,104,243,-446,-670,221,183,185,197,389,758953
-94,-18,27,44,12,9,-169,33,81,-48,-59,36,-98,-92,-39,-143,63,64,197,-106,-489,-36,106,167,-275,-463,147,142,142,138,219,758954
59,9,11,49,36,31,-3,58,-47,40,148,87,104,36,52,40,37,22,81,75,11,107,85,48,68,169,33,77,69,40,-50,758955
25,-7,-18,5,8,9,9,-39,-25,-71,-132,30,-23,-32,49,11,1,1,29,51,91,124,36,3,54,184,1,45,-22,-22,-110,758956
-2,4,14,20,22,21,28,65,-44,42,-193,-42,-85,25,8,-41,9,6,39,3,31,120,22,12,-36,3,18,45,-65,-31,-9,758957
-15,18,18,57,35,18,20,119,10,96,-165,-5,-18,95,-4,-60,27,17,52,-29,5,125,45,24,-70,-96,38,53,-72,-28,30,758958
-16,13,12,31,24,9,-64,-135,47,41,-77,22,61,-22,15,-46,31,25,62,-17,29,133,64,26,-50,-89,41,67,-52,-30,44,758959
-42,8,28,31,14,19,-184,65,31,1,-124,60,-48,-14,58,-64,47,47,98,-37,-41,107,52,67,-94,-195,77,97,-16,-7,142,758960
-253,-37,75,27,-20,-3,-500,-99,118,-6,-190,-107,81,-41,-70,-300,63,90,255,-282,-666,-61,77,226,-556,-1096,232,169,58,104,520,758961
-444,-61,110,41,-38,-29,-636,-377,196,54,-11,-191,102,59,-107,-494,147,174,494,-451,-1329,-186,179,445,-954,-2107,450,316,252,296,892,758962
-386,-47,90,84,-12,-21,-357,-242,171,29,24,-140,27,68,-66,-435,174,195,507,-366,-1343,-172,217,450,-852,-2112,439,345,345,338,853,758963
-172,-18,32,102,23,11,-61,-70,185,89,32,-35,35,-57,-43,-261,96,89,273,-193,-921,-137,140,257,-458,-1392,232,205,290,196,302,758964
82,6,-30,70,47,32,179,-46,-6,67,-69,31,-76,-132,19,12,15,-11,16,69,-223,-32,56,40,108,-203,16,53,191,63,-121,758965
64,7,-37,48,34,18,139,-45,-22,-15,-40,96,-71,72,19,24,9,-1,7,68,-180,-51,44,47,115,-44,22,48,172,62,-141,758966
28,-2,-46,34,13,3,96,-91,-28,-134,-48,49,-8,167,3,2,-21,-36,-39,41,-189,-95,18,6,85,28,-21,10,127,23,-130,758967
-6,-9,-36,32,13,4,45,70,-41,-20,60,-23,75,34,-23,-57,-41,-44,-45,-24,-293,-148,-9,-3,-21,-64,-24,-10,78,25,28,758968
21,-3,-24,50,27,19,89,-7,-54,124,83,46,-140,-136,28,-87,-65,-77,-67,-46,-301,-165,-28,-36,-47,-57,-63,-47,43,-10,-55,758969
17,-11,3,58,29,38,78,114,12,44,206,20,-83,-152,79,-141,-88,-102,-71,-110,-389,-200,-45,-46,-137,-173,-64,-63,12,-27,-5,758970
-183,-12,65,80,17,30,-161,-39,103,86,133,-82,-159,-213,41,-339,7,17,156,-301,-937,-271,38,172,-581,-1097,166,85,110,127,398,758971
-365,-23,84,94,-10,-3,-331,-372,111,5,128,-125,-82,-46,-54,-471,91,116,356,-414,-1345,-281,124,355,-888,-1875,338,210,235,266,698,758972
-372,-15,76,111,0,6,-315,-103,214,139,16,-95,-91,-36,-92,-457,116,139,432,-375,-1370,-226,156,398,-864,-2078,376,284,301,293,720,758973
-179,-3,7,104,20,5,-101,-73,204,63,156,-44,-89,144,-16,-258,96,82,302,-158,-842,-68,138,248,-430,-1433,232,238,264,202,274,758974
58,7,-45,46,43,30,107,-128,-65,-67,-37,9,37,396,-16,10,58,33,83,100,-87,128,104,41,109,-382,33,117,124,46,-119,758975
86,-23,-56,-1,28,28,45,65,-111,-16,-61,86,-42,174,-76,22,29,0,-4,97,94,157,76,-30,175,-187,-25,67,7,-29,-133,758976
64,-2,-22,10,46,42,-2,11,-75,1,-29,-8,-113,-32,-47,-33,26,9,10,27,33,154,68,-9,85,-338,4,75,-22,-34,-16,758977
64,7,-14,32,52,49,51,118,-36,65,9,54,131,61,-16,-19,25,12,6,31,76,165,58,-13,112,-301,10,67,-38,-36,-41,758978
62,-11,-35,28,34,33,159,15,-95,29,-133,101,192,94,57,8,29,12,1,55,140,168,48,-20,156,-223,6,53,-34,-42,-58,758979
37,1,-18,45,32,28,208,12,-13,107,-213,52,46,-11,110,-18,33,21,22,29,82,149,56,0,111,-281,21,68,-28,-21,8,758980
-110,2,28,64,24,19,41,-30,78,84,-163,-13,25,-129,75,-169,85,90,158,-113,-361,33,87,153,-217,-884,168,145,66,86,293,758981
-215,-10,31,87,9,-6,-114,-123,105,223,-82,-37,-94,-28,47,-255,132,140,285,-192,-712,-55,131,280,-415,-1392,275,233,174,179,467,758982
-201,-9,8,84,-1,-20,-141,-238,38,132,60,-20,-123,47,36,-244,104,103,252,-165,-740,-90,116,240,-370,-1364,231,200,204,157,329,758983
-61,-15,-11,58,22,13,-26,-95,40,25,225,70,10,50,37,-129,32,12,90,-45,-442,-74,58,86,-113,-823,64,87,151,68,14,758984
51,-27,-45,14,19,33,105,159,38,83,374,14,-112,38,-2,-22,-19,-49,-66,54,-124,-35,14,-51,139,-240,-72,-13,75,-27,-249,758985
60,-12,-33,11,22,18,150,292,-18,-11,125,65,-76,-188,29,-5,-26,-43,-68,74,-79,-35,15,-33,147,-124,-59,-19,72,-21,-147,758986
51,7,-19,38,35,28,158,110,9,3,26,45,-84,-17,41,6,-15,-18,-30,72,-114,-50,24,10,117,-108,-19,-4,85,17,-45,758987
48,-11,-32,32,21,19,132,-28,-24,91,-26,-4,-80,-34,53,-25,-64,-68,-79,40,-121,-87,-40,-50,85,-55,-71,-44,27,-35,-164,758988
48,-2,-15,30,32,30,98,154,40,93,-89,1,53,97,94,-40,-76,-75,-91,22,-154,-110,-66,-45,39,-77,-57,-52,-1,-24,-160,758989
39,-9,-9,3,16,20,61,-39,67,74,-69,70,-121,37,42,-10,-35,-32,-50,35,-122,-62,-24,-13,43,-58,-18,-22,20,13,-130,758990
-59,-28,10,4,2,23,-74,16,-22,251,-76,-29,46,-274,-34,-129,-9,-5,22,-77,-370,-112,14,46,-172,-470,25,14,29,34,86,758991
-129,-15,34,25,21,22,-175,17,-99,309,-121,-81,114,-112,-47,-219,24,37,116,-155,-611,-133,51,134,-354,-925,113,82,90,90,299,758992
-130,-2,30,42,22,23,-151,-107,-70,98,-147,-73,-21,-21,-8,-222,38,27,149,-154,-614,-108,53,125,-347,-1011,116,97,97,94,259,758993
-47,2,6,34,37,22,-34,1,-78,34,-275,-52,-20,-19,-37,-130,14,10,77,-61,-359,-37,25,67,-149,-706,61,70,66,51,56,758994
27,6,-32,8,29,21,71,-48,50,-3,-85,3,-140,71,-45,-8,8,15,-5,42,-33,66,22,-8,77,-276,-6,43,26,12,-116,758995
42,3,-37,4,23,15,55,90,-90,40,21,40,-216,37,-26,1,0,-11,-42,34,53,96,31,-50,127,-171,-39,16,-33,-39,-111,758996
68,-6,-40,-1,30,23,100,114,-131,75,-33,58,-137,-147,24,15,-23,-38,-79,40,166,117,5,-86,186,-40,-70,-25,-75,-80,-166,758997
64,-3,-30,-3,12,15,149,33,-126,-96,158,123,258,-23,-23,22,-21,-20,-86,38,202,109,-13,-86,186,-1,-68,-21,-94,-82,-149,758998
42,7,-12,12,15,16,123,125,-105,-70,375,114,88,-90,8,-2,-18,-9,-48,9,137,86,-13,-53,136,-97,-53,-11,-82,-56,-154,758999
6,-10,-1,-12,13,18,64,-16,-101,-15,181,10,-138,21,21,-17,34,29,19,-7,39,89,29,21,77,-241,28,47,-18,7,71,759000
-40,-5,3,0,1,9,12,77,-41,76,-61,-55,138,37,38,-52,81,74,93,-40,-134,60,74,92,-38,-487,101,98,58,71,197,759001
-84,-12,-10,10,-13,-20,-34,-149,7,40,128,36,-52,27,39,-96,70,59,115,-70,-267,-6,73,111,-111,-636,95,101,65,76,233,759002
-72,-11,-9,8,-10,-26,-118,-67,159,-19,-26,-13,-105,226,90,-55,70,65,130,-17,-235,1,89,127,-65,-574,122,113,103,96,206,759003
-45,-10,-9,4,5,-23,-104,37,34,51,-234,17,-135,185,87,-40,40,35,72,11,-190,-11,61,75,-21,-462,74,78,92,65,44,759004
3,-22,-30,-8,1,-11,5,118,-56,57,-14,-16,-90,-164,-34,-1,-4,-10,-42,46,-74,-14,8,-24,74,-235,-30,3,31,-8,-48,759005
28,-9,-32,-2,17,15,49,-26,30,-65,-29,47,-93,-104,-23,-6,-23,-28,-71,44,-64,-36,-1,-47,67,-174,-54,-38,-7,-39,8,759006
46,-7,-21,-2,22,26,65,106,41,132,-18,20,-218,112,-18,-6,-24,-32,-60,64,-52,-44,-12,-33,78,-133,-36,-34,-13,-30,-94,759007
26,1,-5,9,19,17,86,62,117,37,26,88,21,249,15,-7,-22,-16,-45,62,-57,-56,-32,-8,65,-122,-13,-20,-6,-18,-111,759008
-3,16,-6,27,14,7,84,-104,77,-4,-46,50,-123,297,5,-22,-26,-26,-45,45,-81,-58,-28,-9,33,-169,-10,-25,-12,-18,-35,759009
-34,12,-15,20,-6,-23,22,-142,-142,40,-193,21,-122,173,-58,-15,1,3,-15,40,-100,-30,7,19,13,-224,26,1,3,13,40,759010
-49,-6,-13,8,-14,-33,-21,-33,-127,86,49,-41,15,94,-40,-40,9,-10,-10,23,-132,-37,16,18,-20,-292,16,4,-9,6,63,759011
-22,-12,1,8,6,4,-52,-153,-7,64,-80,-144,-47,13,-13,-82,-10,-25,0,-23,-181,-65,3,5,-57,-370,-7,-10,-34,-12,-8,759012
1,-22,8,6,16,19,-49,143,-62,98,86,64,-132,188,66,-89,-15,-31,-13,-38,-169,-61,-6,-21,-62,-353,-27,-30,-40,-36,3,759013
15,-18,0,0,8,18,-24,71,-126,93,220,10,-150,46,58,-79,-41,-47,-48,-24,-77,-41,-26,-58,-5,-234,-62,-38,-53,-65,-4,759014
32,-12,-13,-1,10,17,15,-9,-36,-60,209,16,-143,-9,21,16,10,3,-11,23,51,46,14,-21,110,-72,-15,6,-7,-15,-54,759015
14,1,-7,5,-5,7,66,-71,98,-51,225,127,-15,111,57,58,58,46,39,38,100,97,56,31,145,-22,35,57,32,28,-67,759016
21,-4,-14,-6,-15,1,77,-144,43,108,72,84,2,95,-6,47,31,32,2,10,111,79,36,5,138,-15,15,37,9,6,-70,759017
4,-10,-12,-9,-10,2,14,-251,-49,32,88,-67,36,16,62,-24,0,6,-24,-54,8,21,-2,-12,45,-154,-7,10,-27,-21,-33,759018
-5,4,-7,3,8,6,25,90,10,30,116,0,26,39,44,-37,-10,-7,-39,-62,-22,9,-17,-23,32,-160,-12,-4,-34,-18,-75,759019
19,-4,-27,-8,0,-1,58,52,7,92,162,41,104,-58,54,-6,-4,-23,-48,-19,21,20,-19,-17,91,-56,7,-8,-18,0,-100,759020
111,-6,-47,-11,11,6,167,17,9,-45,240,-6,-17,-190,26,56,-68,-95,-176,50,239,27,-64,-146,250,282,-150,-107,-104,-113,-305,759021
117,16,-21,4,17,18,166,97,48,3,250,-20,-86,-68,100,81,-58,-71,-196,87,312,41,-58,-164,274,424,-183,-118,-130,-129,-319,759022
74,25,-18,-8,-2,-3,93,89,-79,-3,151,77,104,23,61,103,-5,-19,-114,115,297,57,2,-99,264,395,-91,-57,-81,-60,-203,759023
30,13,-16,-45,-16,-8,7,27,-127,-38,-212,65,28,68,-54,83,28,22,-16,104,171,43,30,-12,163,204,4,1,-43,6,-70,759024
-22,-10,14,-51,2,21,-104,10,-34,-197,-139,3,-22,-99,-28,-11,34,27,27,34,-56,-18,30,25,-21,-139,36,17,-32,13,52,759025
-37,-14,14,-30,6,22,-127,-219,-96,58,-105,-57,-110,-213,-1,-48,8,5,-1,2,-110,-43,8,1,-72,-239,-5,-13,-50,-25,62,759026
-24,-5,11,-21,6,0,-69,-33,-156,76,90,16,-23,-20,25,20,60,58,67,66,-64,11,54,64,-21,-219,75,57,17,44,77,759027
-3,6,-17,-9,-5,-15,13,211,-56,-53,-139,66,-10,151,27,81,71,71,69,136,62,65,63,67,84,-71,70,72,40,46,29,759028
-13,-12,-36,-36,-16,-26,-20,-124,18,-40,-222,65,8,34,37,64,49,52,49,119,65,59,40,38,79,-65,44,49,26,31,-18,759029
12,-27,-18,-45,-5,-13,-46,-148,51,-9,-105,23,-5,-93,6,82,54,56,45,135,106,68,42,27,109,-11,36,45,33,23,-21,759030
121,-12,-23,-47,7,14,77,93,-148,-11,4,75,52,67,39,161,-10,-21,-100,203,386,97,-1,-105,330,437,-94,-52,-54,-78,-222,759031
180,12,-42,-29,17,28,159,191,-56,-113,76,12,-72,-26,58,181,-89,-97,-229,207,543,69,-77,-222,422,768,-208,-153,-160,-175,-432,759032
179,13,-35,-27,17,35,153,203,-50,-87,-261,-26,96,-169,46,167,-100,-111,-265,173,564,59,-118,-235,406,878,-229,-185,-194,-190,-436,759033
81,17,-14,-34,11,20,62,56,-21,-144,-89,24,258,-136,-57,99,-52,-60,-165,86,358,31,-82,-130,230,595,-127,-119,-147,-112,-190,759034
-39,-12,-7,-44,-23,-15,-70,-65,58,-143,147,-102,68,-174,-55,-30,-28,-26,-62,-64,11,-40,-67,-41,-29,102,-28,-60,-84,-47,7,759035
-39,13,18,4,-12,-5,-28,-12,116,66,233,-79,39,83,4,-9,32,36,35,-57,-36,-6,-2,33,-24,1,50,19,16,42,141,759036
-60,-1,-9,-11,-27,-23,26,-161,45,41,52,90,-68,39,2,10,36,38,38,-46,-4,9,9,28,9,42,34,22,41,48,38,759037
-41,-1,-12,-38,-20,-25,9,-74,71,-79,-109,36,-80,-132,-58,-8,18,18,20,-55,-4,-4,2,2,1,47,-10,12,25,22,14,759038
-13,3,-14,-19,-9,-3,-9,-1,14,-238,-163,-58,-212,-40,-62,0,14,4,-2,-51,12,3,10,-22,15,71,-34,-9,15,8,0,759039
16,10,-19,-5,3,-2,16,-119,-12,-216,30,-75,-46,59,-73,14,-23,-22,-55,-30,74,3,-18,-68,57,197,-77,-56,-24,-31,-22,759040
83,24,-18,1,16,-4,119,20,-51,92,52,13,-41,69,28,65,-49,-51,-100,42,212,15,-57,-101,160,420,-99,-78,-48,-52,-204,759041
168,32,-34,-10,19,9,212,277,-114,127,-206,80,78,-184,6,149,-104,-103,-210,125,478,50,-111,-199,330,860,-184,-156,-123,-131,-429,759042
163,19,-20,-22,20,38,97,91,-72,79,-311,42,-43,-71,-47,123,-99,-100,-207,104,436,20,-113,-195,268,817,-185,-164,-164,-142,-302,759043
91,4,-13,-26,11,21,2,128,-52,64,-132,35,-111,131,1,73,-52,-47,-108,67,295,16,-53,-110,147,575,-96,-99,-144,-83,-55,759044
-49,4,10,-13,-21,-22,-99,23,-72,132,31,45,69,140,12,-6,22,30,48,9,5,-2,19,34,-73,77,54,9,-56,15,187,759045
-61,1,11,-10,-20,-28,-78,112,-65,118,77,-59,70,90,32,25,58,55,84,52,14,26,38,57,-50,45,80,41,-15,46,97,759046
-53,-3,12,-13,-14,-7,-92,-119,-78,-73,-34,-28,-27,-69,1,13,57,60,75,42,0,21,49,40,-60,-17,63,22,-17,34,100,759047
-12,5,14,-26,-8,2,-74,-63,-16,29,120,64,109,-240,-22,37,38,28,13,65,66,37,22,0,6,69,16,-12,-28,1,-28,759048
-13,4,25,-33,-17,9,-85,61,-14,-45,115,-18,113,-126,-79,47,44,38,40,80,65,42,14,25,27,62,28,27,-7,13,-9,759049
-8,15,10,-14,-6,6,-21,50,-23,-96,106,3,4,223,-53,49,27,25,46,77,83,41,2,24,67,99,19,32,-12,8,-40,759050
66,26,-10,-5,13,-1,79,-110,-18,-130,-63,54,8,241,7,114,-14,-7,-29,125,262,64,-30,-53,213,390,-52,-22,-45,-36,-152,759051
148,24,-22,-26,6,0,144,137,-41,-205,-5,72,22,-34,37,216,-37,-28,-112,215,514,118,-57,-125,408,819,-117,-61,-73,-83,-252,759052
132,-1,-44,-56,-23,-21,121,-10,-81,-92,175,35,-30,-55,53,227,-34,-28,-163,206,574,118,-55,-144,433,960,-136,-84,-88,-102,-246,759053
46,-10,-23,-44,-34,-17,-8,-77,-72,-96,-69,-60,116,-38,70,109,-21,-11,-102,73,307,30,-40,-75,197,603,-69,-66,-83,-66,-108,759054
-31,-8,7,-11,-31,-19,-90,83,-1,199,-234,69,25,-164,10,-14,-17,-7,-25,-47,19,-37,-36,-3,-16,201,-6,-40,-41,-23,27,759055
-56,-2,6,0,-28,-31,-49,58,70,20,-46,-42,31,-26,-52,-20,7,24,14,-56,-42,-29,-18,30,-56,100,23,-10,17,22,54,759056
-54,-3,-3,-1,-28,-24,-6,140,59,-145,-132,64,101,123,56,21,13,36,33,-14,3,-11,-1,34,7,184,22,20,51,48,38,759057
-34,5,3,8,-16,-17,-17,102,11,-153,-68,-87,-91,24,57,26,15,31,44,-14,8,0,14,43,11,196,15,30,67,47,55,759058
-34,-2,-4,-7,-16,-23,-71,-6,4,-66,27,-172,-98,-33,12,-14,-16,-4,-1,-57,-37,-24,-12,1,-41,163,-14,-1,22,12,63,759059
-61,2,10,8,-14,-29,-101,-51,74,-145,139,-94,26,8,-80,-43,-4,8,26,-73,-109,-44,1,22,-125,24,0,4,31,25,98,759060
-51,-3,4,5,-19,-24,-72,-92,11,-90,127,-44,54,167,-38,2,2,11,30,-14,-44,-8,2,21,-70,79,18,19,32,37,10,759061
18,2,-4,-13,-4,4,23,86,-31,-116,126,-9,183,114,10,68,-16,-15,-30,53,140,30,-21,-42,58,330,-32,-33,-14,2,-71,759062
12,1,-6,-14,-6,11,40,57,-101,-36,-6,-93,177,-39,-98,43,-14,-21,-58,44,125,13,-37,-45,13,294,-48,-45,-52,-15,-92,759063
0,16,24,-15,-1,26,-10,97,-125,-45,22,-137,36,-68,-40,7,18,15,3,19,22,8,2,7,-68,88,-2,-8,-34,10,94,759064
-8,8,15,-3,-14,-1,-52,-86,-102,-231,-121,-16,-42,35,-30,-17,12,21,43,1,-40,-14,8,33,-116,-34,25,2,-25,18,54,759065
-23,7,10,3,-8,-1,-59,-65,-16,-47,-20,2,-17,97,0,-2,5,18,33,8,-27,-7,-8,14,-89,-16,29,9,-28,7,37,759066
-40,-4,12,-13,-3,4,-75,66,-50,-11,33,1,214,18,-16,-15,1,1,11,-2,-28,-12,-24,-5,-85,-39,12,-2,-33,-1,34,759067
-24,-23,9,-30,-20,-8,-95,-2,-129,41,-8,-82,175,-19,-37,-16,10,5,16,6,-32,-8,1,7,-76,-39,12,-2,-30,4,53,759068
-19,-21,7,-20,-23,-10,-71,50,-86,4,-85,7,-66,0,-28,5,25,17,40,31,1,24,35,18,-43,-25,23,12,-9,3,73,759069
-6,-10,-9,-2,-12,-13,1,40,-72,-29,-135,-126,145,74,37,17,8,3,10,48,42,30,10,-15,2,57,-8,4,-18,-21,-12,759070
26,17,-22,2,-8,-14,79,96,-51,-45,-122,-138,-65,114,25,75,17,3,-20,90,159,59,-10,-31,96,246,-18,-6,-18,-25,-74,759071
-14,13,-13,8,-27,-25,19,-43,84,-13,-189,33,-146,47,-16,78,60,55,54,69,84,57,36,59,50,131,69,54,43,41,30,759072
-38,-5,-39,-20,-33,-53,-62,-161,-43,-205,130,32,69,87,-2,84,59,68,66,82,91,61,42,72,71,145,78,68,71,65,-4,759073
-23,5,-36,-24,-30,-36,-169,-1,-74,-16,43,22,122,-15,-13,77,35,35,19,65,93,53,27,19,78,183,29,21,34,32,-58,759074
-19,11,10,-12,-13,-7,-266,26,24,-45,-140,103,147,28,-2,22,10,-2,-2,15,20,-2,-3,13,16,108,22,-7,4,14,11,759075
-25,-23,30,-36,-10,0,-245,49,-4,-86,41,39,30,62,-11,30,49,46,87,28,-4,21,47,86,-2,58,74,62,76,79,145,759076
-26,-26,13,-31,-15,-15,-88,-98,75,-60,184,-49,114,112,28,33,57,44,95,24,-10,23,64,83,2,57,58,63,83,74,66,759077
-20,-2,16,14,1,6,54,-33,133,156,69,-89,-44,-3,48,-8,19,-4,24,-23,-60,-18,26,31,-57,5,11,0,32,21,-29,759078
7,14,16,29,23,23,38,-21,96,183,-89,-76,143,-60,-54,-41,-27,-35,-35,-50,-63,-36,-21,-17,-88,0,-29,-34,-8,-18,-29,759079
44,22,3,26,20,18,-32,98,66,201,61,-32,213,-29,9,-16,-63,-67,-85,-21,36,-42,-60,-78,-17,154,-94,-76,-45,-66,-206,759080
119,21,-23,-10,21,18,-24,57,-48,74,120,-3,44,139,35,116,-60,-83,-160,107,344,38,-72,-135,219,664,-139,-104,-77,-99,-302,759081
124,-2,-48,-48,-7,-1,-7,-81,-133,-1,-40,-10,-30,124,-13,156,-64,-79,-172,149,459,66,-74,-152,289,850,-132,-112,-92,-105,-347,759082
120,11,-26,-31,-10,14,176,-3,-100,-225,25,43,-102,5,12,146,-36,-34,-139,132,409,74,-56,-109,234,796,-103,-84,-89,-76,-276,759083
20,21,-6,16,-12,2,234,-104,79,-119,196,57,122,-45,18,62,-1,5,-68,45,175,24,-20,-35,30,429,-45,-35,-63,-33,-56,759084
-65,14,4,40,-17,-22,138,-188,32,156,-86,-125,115,8,-14,-25,9,12,16,-41,-41,-11,-17,32,-124,84,18,-1,-25,12,31,759085
-16,36,20,49,-1,-4,113,-13,-10,154,-9,-159,95,155,-64,-8,16,0,42,-3,7,15,0,44,-55,121,32,34,14,28,1,759086
-20,7,0,19,-15,-12,27,-114,104,-40,-69,-155,11,-121,-28,-29,-10,-10,19,-15,-18,-7,-21,21,-63,96,-7,1,-3,-4,2,759087
8,6,27,1,8,16,-7,-223,19,-7,-171,-114,-279,-160,-13,3,1,7,24,0,-1,12,4,23,-43,106,17,9,11,15,46,759088
32,11,27,13,16,35,12,65,-59,-64,57,-79,-1,-41,-18,-7,-10,-7,-6,-19,-35,-14,-3,3,-56,73,-11,-14,-1,2,12,759089
33,5,-1,19,6,25,72,-44,22,131,178,-46,69,-156,12,-60,-73,-76,-75,-52,-55,-61,-65,-60,-82,74,-78,-81,-55,-72,-78,759090
111,21,-15,25,12,36,201,111,140,4,330,-12,-112,-110,29,42,-88,-91,-139,36,200,-4,-89,-129,120,462,-136,-120,-71,-104,-308,759091
144,10,-53,-25,-16,2,259,257,-67,88,246,83,-35,-24,85,129,-93,-97,-201,114,446,58,-103,-184,291,875,-187,-148,-111,-138,-351,759092
112,14,-43,-33,-17,-7,256,-117,-46,43,173,-13,-42,-7,7,130,-84,-76,-180,97,433,53,-82,-158,259,866,-166,-132,-114,-125,-256,759093
68,18,3,-15,1,2,234,-13,39,64,67,-58,-46,118,11,76,-54,-48,-111,37,263,10,-52,-101,120,626,-96,-95,-93,-84,-84,759094
-26,21,30,24,8,4,104,1,-24,7,-25,-226,-13,87,-11,-68,-27,-16,-17,-89,-89,-68,-38,-1,-151,75,-6,-38,-57,-13,73,759095
-14,10,6,26,24,1,34,86,-47,-162,-201,-146,-61,-182,-46,-106,-81,-64,-77,-110,-140,-113,-89,-54,-175,23,-68,-96,-98,-63,-12,759096
-14,-1,1,12,15,-6,-42,44,-4,-135,-43,-77,-90,-65,-64,-81,-40,-35,-27,-87,-135,-81,-66,-17,-154,14,-26,-58,-50,-27,20,759097
-1,-10,6,1,-5,-7,-25,21,5,-30,38,74,-178,196,-11,-1,-2,6,19,-12,-7,-14,-24,10,-38,174,24,-15,-3,21,36,759098
-29,-22,-3,-16,-29,-10,-39,-154,-49,-28,-85,46,-36,26,-67,-35,-4,3,34,-44,-72,-40,-22,37,-87,58,21,-12,-13,6,87,759099
-1,-18,1,-25,-11,8,12,27,-2,-90,-299,103,-1,-30,-92,-28,-19,-28,-1,-43,-38,-43,-22,-7,-52,108,-34,-31,-40,-26,-11,759100
71,-1,-9,-31,6,21,74,125,-24,0,-238,98,-11,34,-24,59,-2,-22,-49,38,163,26,-15,-44,101,416,-50,-38,-28,-33,-57,759101
94,4,-25,-36,3,2,67,103,-7,-155,-85,93,32,91,-27,99,3,-8,-73,86,271,52,-15,-55,176,579,-56,-42,-23,-42,-79,759102
51,-9,-32,-47,-29,-34,-27,-1,11,-48,20,49,-58,44,51,101,-3,8,-39,76,249,65,-3,-15,161,570,-21,-16,-11,-21,-54,759103
3,-15,-3,-36,-26,-27,-80,-42,-41,-51,180,47,14,145,121,109,58,66,61,84,175,89,45,76,114,436,72,58,66,61,76,759104
-30,-2,24,-3,-12,-13,-35,55,185,9,192,82,104,-3,105,27,42,42,47,12,26,27,28,56,-6,233,47,34,45,47,76,759105
-17,16,15,22,-4,-10,43,146,154,-61,-57,50,77,-47,-19,-15,-8,-13,-22,-31,-3,-18,-31,-2,-27,203,-23,-20,-10,4,-14,759106
-28,14,9,39,-8,-10,40,60,103,-80,99,33,40,-334,-38,-58,-55,-49,-53,-73,-53,-53,-66,-38,-67,160,-65,-58,-32,-38,-33,759107
-51,-1,11,16,-14,-13,2,-134,115,-165,197,5,33,-97,43,-82,-43,-49,-26,-93,-111,-68,-40,-27,-117,70,-36,-46,-12,-27,21,759108
-25,1,11,9,-1,-4,5,79,26,-19,132,47,56,20,17,-47,-15,-17,9,-58,-82,-39,-3,-1,-95,98,-10,-7,14,-1,21,759109
-13,23,22,18,10,8,28,65,-12,150,-84,43,8,2,-20,-21,16,14,21,-23,-44,-3,18,27,-54,143,25,17,48,29,41,759110
112,19,-27,-10,11,4,190,-20,-15,12,96,113,29,94,-52,149,-7,-32,-91,146,363,82,-21,-86,267,773,-97,-46,4,-57,-324,759111
278,25,-70,-41,13,10,375,206,-138,-21,224,106,-133,264,56,336,-81,-115,-284,305,889,169,-97,-267,646,1633,-269,-164,-97,-177,-628,759112
338,42,-73,-42,22,16,408,261,-156,-19,305,148,-245,143,40,398,-107,-130,-370,343,1091,174,-126,-329,752,2018,-320,-229,-183,-225,-583,759113
155,16,-20,-41,-11,-11,208,103,15,-19,161,-21,-111,62,11,197,-76,-69,-236,126,624,57,-108,-183,326,1376,-185,-165,-176,-161,-178,759114
-86,15,55,14,-23,-16,-7,-26,79,-109,63,-148,9,-3,5,-72,22,49,65,-120,-130,-60,-13,86,-249,160,73,10,-42,35,317,759115
-83,16,22,27,-23,-23,6,-115,-11,37,-290,-116,-2,-134,53,-102,-26,-16,24,-140,-173,-84,-53,25,-254,50,23,-31,-75,-4,162,759116
-57,15,16,25,-10,-17,-78,-148,94,-22,38,-177,77,-188,-42,-97,-29,-23,-4,-114,-154,-80,-49,1,-211,59,11,-40,-79,-17,122,759117
-45,-10,19,-2,-17,-11,-139,76,-9,115,71,-66,147,-180,-68,-48,-11,-6,23,-75,-96,-43,-28,14,-136,110,34,-9,-44,0,67,759118
-50,-6,27,-6,-7,-13,-102,162,-64,157,127,53,-21,-33,10,-16,30,38,89,-45,-102,-11,7,77,-119,63,78,35,15,48,82,759119
-14,-5,14,-3,-16,-8,-3,95,-46,166,2,29,-53,35,39,-10,8,17,48,-22,-39,-4,-8,46,-60,146,49,22,1,14,30,759120
348,35,-77,-16,35,33,473,240,-97,-13,-24,105,-145,104,72,364,-96,-131,-300,343,975,192,-96,-309,760,1734,-310,-196,-143,-232,-743,759121
638,52,-154,-73,47,34,814,180,-185,-40,193,259,-149,241,95,686,-233,-291,-714,614,1942,321,-249,-664,1438,3409,-663,-442,-382,-503,-1373,759122
571,50,-142,-104,19,0,678,308,-243,-49,359,279,75,31,152,637,-274,-297,-785,513,1943,267,-311,-686,1327,3600,-676,-499,-475,-543,-1267,759123
185,52,-14,-72,-25,-29,148,-94,14,-28,105,2,81,-244,58,220,-182,-153,-469,65,894,20,-257,-355,414,2112,-332,-327,-385,-340,-415,759124
-298,5,119,-35,-60,-53,-479,-297,199,-81,-208,-248,120,-188,-98,-292,20,90,115,-440,-609,-240,-60,180,-714,-271,199,31,-81,63,686,759125
-328,-14,124,-18,-48,-36,-507,-274,220,-221,-192,-166,119,-153,-73,-323,96,148,269,-437,-877,-224,39,287,-802,-797,294,144,91,179,737,759126
-293,-22,92,-5,-41,-37,-422,-185,99,-36,-155,-193,-37,-68,-108,-277,102,130,268,-370,-852,-173,63,281,-716,-833,273,178,157,178,607,759127
-269,-8,99,25,-11,4,-375,-79,43,-35,-79,-217,-57,24,-97,-297,105,123,299,-362,-888,-170,82,284,-731,-982,263,199,190,171,558,759128
-253,-21,82,31,0,9,-323,-293,86,-59,-47,-147,23,-206,-31,-304,89,105,268,-361,-891,-171,86,249,-705,-1034,234,174,181,146,503,759129
-181,-22,65,22,1,2,-219,-208,105,-91,-8,6,-38,-234,-42,-198,98,97,222,-242,-681,-101,98,207,-510,-779,200,160,204,147,343,759130
121,6,-27,12,29,20,127,228,-4,-82,120,158,-105,-81,87,122,-15,-43,-97,89,201,66,15,-96,187,583,-108,-26,66,-74,-295,759131
298,20,-98,-10,25,12,330,183,-27,64,163,147,-29,74,62,311,-112,-151,-361,255,822,140,-93,-336,602,1625,-342,-199,-124,-268,-639,759132
309,39,-70,-3,20,19,363,529,-43,165,-28,138,-6,138,84,347,-112,-140,-370,261,942,161,-120,-332,638,1873,-322,-210,-183,-288,-612,759133
44,19,13,1,-10,-15,102,222,-28,46,70,80,33,-37,-40,89,-43,-23,-132,-7,274,11,-74,-85,56,902,-85,-74,-111,-124,-3,759134
-283,-21,73,-6,-56,-55,-249,-365,46,10,-68,-115,67,-129,-147,-240,73,116,220,-327,-662,-157,53,221,-650,-632,223,135,62,115,601,759135
-205,-19,60,4,-22,-19,-189,-431,105,78,51,-44,171,-96,46,-225,67,79,201,-273,-633,-135,47,181,-562,-662,178,120,85,95,400,759136
-175,3,81,31,5,0,-240,-72,-47,204,-109,-135,-19,29,-42,-261,58,60,192,-305,-717,-159,46,170,-609,-849,176,104,84,85,467,759137
-157,-13,45,17,-4,-18,-250,-47,-51,20,-276,-20,184,44,-115,-241,38,44,176,-245,-650,-139,28,146,-521,-792,141,93,85,65,349,759138
-146,-29,30,5,-14,-16,-197,40,168,-41,-351,-38,31,-10,-82,-183,48,56,190,-182,-545,-94,42,152,-414,-677,150,113,98,64,317,759139
-95,-11,33,25,8,6,-91,59,40,-79,-340,-59,-91,-85,-5,-100,91,93,214,-98,-419,-28,90,167,-273,-535,169,148,144,98,274,759140
329,5,-84,-9,46,35,427,346,-109,-82,95,188,-87,-152,95,326,-78,-111,-246,327,773,184,-52,-265,677,1352,-279,-132,-45,-199,-701,759141
544,29,-159,-59,32,33,679,441,-216,-39,395,210,-215,-118,87,544,-222,-249,-601,493,1524,252,-200,-570,1152,2692,-578,-366,-291,-466,-1114,759142
427,44,-114,-64,15,7,490,358,-109,147,205,199,-161,4,67,444,-208,-215,-572,342,1361,178,-217,-521,933,2563,-502,-362,-344,-443,-838,759143
99,33,-8,-34,-17,-26,35,57,32,129,-231,25,-104,-18,-6,101,-123,-88,-273,-16,476,-22,-168,-216,179,1271,-190,-199,-246,-234,-98,759144
-189,13,87,-8,-30,-25,-328,0,148,167,-280,-90,-73,-58,-47,-166,62,109,174,-239,-401,-105,28,193,-439,-189,205,96,24,104,582,759145
-151,-5,65,-17,-20,-20,-283,-142,77,146,-239,-7,150,-85,42,-112,101,127,219,-131,-369,-31,81,210,-349,-242,211,139,120,158,407,759146
-115,7,55,6,-1,-5,-195,-77,8,99,-186,-54,77,93,56,-80,81,93,185,-85,-297,-14,66,166,-269,-173,173,115,127,140,287,759147
-107,6,25,14,-7,-23,-119,240,50,51,-63,21,120,121,11,-71,42,53,128,-68,-229,-19,37,107,-198,-81,107,61,88,90,197,759148
-115,4,36,25,-10,-26,-119,83,156,162,-10,78,103,27,11,-72,52,67,117,-75,-234,-14,44,105,-200,-111,112,71,79,93,249,759149
-110,1,42,29,1,-20,-160,-77,93,45,88,11,-40,-82,-10,-75,75,71,150,-84,-284,-22,70,120,-232,-218,126,88,98,108,239,759150
-49,-25,5,3,-1,-19,-113,43,-34,11,-37,6,12,186,-34,-38,41,38,96,-36,-145,-3,56,62,-108,-15,56,52,78,62,172,759151
36,-7,17,2,27,16,-2,119,-5,92,-287,-3,105,131,-37,25,11,-3,8,18,42,16,14,-8,30,309,-8,4,23,-1,13,759152
3,7,34,17,16,23,6,92,75,-37,-523,-30,-86,-51,-43,-23,2,-11,16,-39,-68,-16,-14,8,-59,173,5,9,10,1,32,759153
-28,6,25,23,1,8,6,-111,75,11,-235,-50,-269,112,-10,-56,17,14,65,-56,-148,-27,2,50,-118,16,52,40,34,30,81,759154
-4,1,-5,17,-3,-12,66,6,-8,-6,15,113,-229,199,62,-17,19,22,68,-6,-52,2,24,38,-46,152,40,51,51,33,61,759155
-38,5,2,17,-7,-9,17,-29,-117,49,55,28,77,78,2,-42,15,13,70,-38,-117,-32,11,43,-91,75,46,34,46,21,33,759156
-31,14,33,17,9,19,-61,145,-19,46,61,-30,-26,-176,-23,-73,1,8,65,-71,-175,-44,-3,38,-136,-5,45,27,34,20,127,759157
-55,10,42,16,10,11,-143,58,91,-5,60,-2,18,-203,-37,-74,48,61,143,-76,-272,-32,50,125,-196,-183,119,94,106,93,264,759158
-80,0,19,-2,-18,-18,-138,-24,53,82,-98,-21,95,-18,16,-54,82,71,165,-55,-276,-24,87,138,-168,-190,136,114,136,113,182,759159
-109,-16,21,0,-21,-23,-108,-60,26,81,-10,-50,41,82,28,-92,63,67,159,-87,-345,-49,69,132,-221,-295,143,102,117,102,184,759160
-243,-30,48,16,-38,-30,-192,-238,100,40,-88,-74,-53,-85,-80,-241,65,103,257,-234,-717,-132,87,221,-531,-927,226,160,138,158,489,759161
-321,-16,98,71,-7,2,-261,-140,203,-26,-73,-41,67,-54,-51,-324,126,153,388,-305,-1004,-154,151,336,-711,-1458,335,241,228,248,779,759162
-269,-8,86,80,18,21,-247,-155,174,141,-198,-106,-24,-112,-101,-293,116,113,366,-235,-912,-129,149,291,-602,-1413,279,218,237,225,601,759163
-96,-21,25,52,23,14,-124,-7,0,41,-91,-112,-35,-164,-157,-137,41,35,198,-66,-471,-40,85,128,-234,-775,122,126,163,109,164,759164
81,-23,-52,12,15,5,50,34,-74,-93,72,107,-14,-116,-41,73,-4,-26,0,142,122,82,35,-55,212,133,-47,14,68,-15,-208,759165
49,-41,-51,-28,-7,-7,20,-74,-60,-101,17,130,-222,11,-20,69,-10,-21,-29,123,153,67,15,-67,183,222,-49,-16,8,-37,-141,759166
32,-21,-26,-33,-1,8,36,122,-33,129,-158,93,-98,217,34,65,16,0,13,107,135,61,38,-27,147,188,-1,25,4,-5,-118,759167
13,-12,-14,-9,-3,-13,38,147,-45,135,109,128,111,11,33,40,14,9,37,84,80,49,35,-1,103,129,12,34,7,6,-37,759168
28,-17,-23,-9,-13,-31,45,170,51,101,-2,37,-16,74,42,53,-2,-25,-10,91,147,53,-4,-39,145,242,-27,-8,-21,-27,-110,759169
-1,-18,-15,-14,-6,-10,-30,203,70,-103,-174,-34,-20,173,12,6,-17,-20,-5,42,67,5,-11,-33,65,138,-20,-7,-34,-28,-20,759170
-208,-26,42,8,-4,-13,-293,-69,66,-6,-284,-134,200,-275,-72,-222,69,78,218,-180,-567,-109,75,192,-435,-863,189,125,71,129,506,759171
-257,-23,88,46,12,4,-353,-363,123,-13,-54,-152,133,-178,-98,-295,134,140,352,-219,-839,-114,162,301,-583,-1368,299,210,169,225,589,759172
-231,-39,64,36,8,9,-329,-155,121,-105,-52,-83,146,-84,-14,-302,116,115,349,-200,-842,-102,155,285,-542,-1413,277,208,187,214,484,759173
-65,-22,17,29,34,38,-172,20,-11,-36,-43,-57,49,-126,13,-126,72,49,196,-43,-437,-13,102,144,-189,-815,136,135,165,131,105,759174
116,-16,-51,-4,29,33,58,67,-94,84,160,133,-40,91,36,97,-12,-48,-28,161,184,75,14,-68,278,200,-66,-5,68,-10,-259,759175
72,-1,-24,-4,13,11,66,0,-89,165,271,131,-8,173,0,110,22,-2,18,136,189,72,42,-13,245,248,-2,25,84,27,-72,759176
42,5,-38,-6,-2,3,93,-14,-47,-52,13,120,134,43,87,102,8,-2,-11,122,178,62,34,-12,228,304,-10,11,70,23,-109,759177
46,4,-29,5,15,15,87,-55,53,-163,-104,10,-37,-10,40,52,-15,-27,-44,71,111,17,7,-27,167,274,-40,-9,33,0,-83,759178
81,13,-16,8,26,20,105,52,-23,-16,261,-34,49,67,58,100,-14,-23,-52,105,210,45,17,-52,228,436,-45,-9,43,12,-80,759179
62,7,-19,4,9,8,70,-123,-40,108,397,61,-20,133,53,94,-7,-7,-32,107,212,46,8,-41,212,449,-15,-10,40,24,-80,759180
29,11,-10,13,1,0,57,-76,-53,33,415,136,-74,131,42,83,17,12,8,99,155,53,24,3,162,346,15,26,50,58,-67,759181
49,6,-28,-8,-9,-18,69,128,-20,142,136,48,-8,144,51,122,9,7,-12,144,253,81,25,-9,224,471,-6,12,26,40,-25,759182
57,19,-22,13,10,-7,51,75,19,133,88,-30,-43,238,42,117,27,16,2,154,254,88,34,6,207,448,1,13,16,39,59,759183
55,5,-44,-7,-10,-16,-20,167,11,81,-4,8,-118,82,3,110,-7,-18,-43,149,308,83,8,-43,239,511,-54,-29,-37,-8,-104,759184
111,18,-51,-13,0,4,-29,155,-187,67,-47,5,-109,95,40,188,-16,-14,-82,224,503,128,-7,-86,378,782,-77,-51,-64,-32,-269,759185
144,13,-52,-56,-4,9,-3,-37,-77,-14,167,-29,-65,195,75,213,-30,-31,-108,244,596,131,-18,-118,435,955,-102,-78,-99,-52,-231,759186
187,17,-28,-55,11,22,165,-106,30,-13,57,40,66,306,2,221,-27,-31,-98,269,645,152,-16,-125,461,1041,-97,-90,-117,-52,-181,759187
214,42,-46,-30,18,15,296,-26,140,10,-231,73,-21,30,-7,282,-45,-52,-158,317,805,179,-49,-172,578,1306,-149,-111,-149,-84,-282,759188
175,41,-64,-37,-4,-9,202,-1,40,-80,-124,22,-167,-4,-38,238,-91,-88,-226,270,782,126,-116,-214,535,1341,-190,-174,-208,-126,-298,759189
188,34,-54,-30,3,0,132,-138,-94,-163,40,38,28,-51,-9,223,-108,-96,-233,249,771,104,-132,-219,501,1367,-195,-188,-226,-142,-276,759190
94,25,-11,-30,-15,-5,68,68,-45,-19,123,10,-47,-67,-45,146,-42,-14,-94,164,514,86,-66,-88,293,987,-58,-99,-149,-29,-76,759191
-34,19,23,1,-20,-13,11,47,-16,-87,159,97,163,35,-22,32,49,85,99,64,142,47,39,97,36,386,107,30,-27,116,184,759192
-34,30,10,3,-14,-21,51,-51,27,79,76,66,181,84,-17,43,48,78,92,75,124,52,55,85,45,352,89,33,7,116,110,759193
74,30,-36,-29,-12,-21,139,-25,17,31,81,92,145,-30,-16,145,-12,-4,-61,186,431,96,-2,-62,300,853,-40,-53,-42,28,-168,759194
195,33,-45,-34,11,9,207,296,18,-36,21,-1,125,-125,2,248,-80,-75,-210,254,744,128,-84,-176,534,1420,-178,-148,-108,-82,-400,759195
192,47,-19,-26,18,19,193,308,61,-96,-9,32,-169,-62,-54,284,-50,-51,-188,267,775,146,-71,-137,539,1553,-134,-128,-80,-38,-311,759196
181,37,-22,-36,5,6,230,25,1,-112,65,144,-100,33,-14,307,-56,-42,-185,285,836,153,-76,-141,560,1700,-127,-120,-68,-18,-377,759197
159,42,-16,-24,7,5,218,51,31,-16,17,39,-85,139,117,259,-47,-31,-158,235,753,126,-65,-111,477,1625,-108,-109,-74,-7,-266,759198
162,48,-10,-19,13,11,200,-172,46,-57,180,-12,42,61,79,239,-48,-47,-163,216,735,118,-70,-126,452,1627,-112,-116,-83,-8,-271,759199
92,31,-1,-40,-11,-11,91,-76,47,-17,133,44,49,-73,-1,179,-45,-39,-141,140,593,74,-54,-105,321,1435,-84,-119,-88,-3,-168,759200
-388,-1,133,-1,-54,-43,-500,-355,185,-99,-226,-132,209,-88,-123,-343,101,166,344,-373,-807,-203,78,359,-793,-757,369,162,93,307,902,759201
-719,-30,205,67,-64,-63,-876,-462,270,-59,-442,-323,197,-90,-146,-715,253,330,800,-678,-1941,-351,221,754,-1548,-2704,752,450,363,612,1503,759202
-655,-39,177,85,-47,-41,-750,-485,245,6,-332,-270,42,13,-112,-646,299,352,882,-551,-1935,-272,298,785,-1396,-2909,777,527,495,664,1369,759203
-236,-34,29,50,2,-15,-161,-75,57,-52,-48,53,27,287,-4,-204,163,150,473,-74,-786,-28,208,352,-395,-1253,341,295,357,381,285,759204
312,14,-104,-2,49,42,542,268,-160,-73,179,266,0,220,122,356,-104,-168,-255,462,903,217,-51,-318,862,1442,-319,-166,-51,-144,-898,759205
319,17,-86,-33,42,46,484,266,-157,-18,46,157,-45,-58,78,337,-172,-196,-365,385,1018,157,-142,-377,820,1764,-369,-263,-214,-232,-747,759206
291,27,-54,-9,44,49,367,364,-113,-119,-103,179,102,-127,91,275,-166,-167,-346,299,887,100,-163,-332,665,1654,-316,-251,-259,-220,-630,759207
264,18,-63,-14,23,17,267,77,-64,25,-12,117,76,-57,69,241,-131,-128,-310,255,783,80,-138,-276,554,1549,-260,-220,-245,-185,-481,759208
212,19,-52,-24,3,-8,254,-80,-49,16,-34,25,21,86,8,276,-49,-39,-180,280,763,128,-53,-160,534,1513,-144,-132,-155,-71,-319,759209
117,14,-35,-39,-20,-24,195,258,-113,102,-105,-39,30,174,21,221,-31,-7,-112,204,599,104,-39,-86,390,1293,-79,-82,-132,-38,-139,759210
-145,11,48,-11,-30,-23,-136,-59,-2,-24,-58,-123,70,-42,-20,-102,19,61,120,-121,-210,-73,-5,121,-254,58,137,45,-44,99,339,759211
-367,-6,114,27,-24,-17,-456,-219,117,-114,-142,-322,113,-194,-111,-408,75,125,366,-400,-1010,-247,56,325,-838,-1258,337,179,89,247,765,759212
-407,-36,112,44,-15,-22,-527,-436,115,-60,75,-215,42,-300,-94,-475,116,150,455,-428,-1249,-275,116,400,-952,-1739,393,245,197,317,745,759213
-123,-21,34,26,18,5,-165,-183,11,-149,-55,29,-9,-183,44,-158,67,61,244,-98,-492,-70,94,174,-276,-638,165,140,177,182,208,759214
254,12,-50,-11,65,55,275,221,-89,-70,163,54,-6,-67,46,262,-49,-78,-162,302,636,151,-31,-168,576,1168,-169,-88,4,-74,-490,759215
227,16,-37,-16,48,56,229,284,-49,-36,-240,73,-103,-15,-23,251,-53,-60,-189,254,667,146,-44,-158,522,1283,-153,-96,-37,-75,-387,759216
167,0,-47,-34,13,17,189,106,-100,37,-170,172,19,10,13,211,-63,-76,-219,209,652,119,-62,-194,463,1320,-202,-135,-87,-116,-353,759217
117,20,-25,-23,15,13,160,-63,-215,56,159,121,-70,-110,37,185,-54,-68,-202,162,592,100,-50,-173,369,1264,-175,-129,-104,-103,-284,759218
91,29,-15,-12,17,6,80,-60,-150,-68,190,93,-113,-18,43,131,-53,-53,-176,99,463,64,-66,-139,251,1111,-132,-118,-97,-74,-249,759219
22,17,-11,-24,3,-7,-69,-25,-40,-52,6,16,150,-123,-9,42,-69,-54,-133,11,260,9,-90,-88,76,833,-92,-100,-95,-47,-56,759220
-646,-44,182,19,-62,-54,-922,-404,234,122,-467,-345,311,-274,-212,-701,162,226,551,-725,-1724,-391,105,547,-1489,-2302,546,295,178,381,1414,759221
-1060,-79,331,130,-44,-34,-1384,-732,416,265,-595,-439,275,-333,-207,-1173,442,513,1285,-1104,-3294,-562,425,1177,-2531,-5061,1155,774,651,883,2241,759222
-876,-86,269,179,12,11,-1043,-512,330,-52,-400,-280,187,-285,-155,-1056,413,432,1240,-916,-3139,-472,455,1064,-2219,-5076,1027,767,739,833,1843,759223
-276,-47,83,150,79,78,-192,-164,84,16,117,3,29,-222,59,-459,226,151,639,-271,-1548,-157,308,473,-855,-2747,433,426,538,436,544,759224
294,-6,-92,72,97,86,555,272,-119,79,486,193,-18,130,52,158,-40,-129,-96,298,241,125,46,-171,474,124,-199,0,156,-65,-626,759225
263,30,-78,97,81,44,504,284,-57,9,428,133,19,206,7,161,-64,-121,-173,221,328,84,5,-188,429,376,-212,-56,20,-134,-456,759226
168,15,-100,53,20,-17,301,35,-90,56,500,78,-122,35,-31,144,-32,-61,-137,178,305,75,29,-130,363,391,-150,-39,5,-113,-273,759227
111,5,-88,11,7,0,172,-60,-40,-17,342,77,-192,161,-40,147,20,-3,-82,166,269,85,55,-56,320,371,-66,5,30,-46,-208,759228
108,8,-82,-3,5,17,174,26,-200,-20,179,-4,-77,312,5,146,7,-10,-79,170,280,70,27,-58,313,430,-56,0,19,-53,-234,759229
56,14,-47,-6,4,10,142,108,-38,-113,151,76,-138,208,12,138,54,51,1,149,205,94,67,23,241,321,16,59,56,13,-59,759230
-237,-1,49,22,-24,-6,-211,-226,88,-16,-174,-77,-70,74,43,-178,155,170,289,-165,-637,-69,163,299,-438,-1001,283,229,163,198,581,759231
-450,-24,97,63,-24,-13,-487,-325,168,30,-385,-201,-52,-186,-34,-501,148,167,441,-456,-1413,-268,151,415,-1010,-2260,396,283,237,269,896,759232
-402,-40,103,93,14,24,-500,-186,134,201,-28,-196,93,-150,-73,-533,103,120,410,-461,-1478,-279,120,368,-994,-2448,356,251,255,247,857,759233
-189,-45,26,70,31,37,-286,-11,9,85,69,86,55,-8,24,-266,70,53,263,-175,-855,-111,112,208,-434,-1561,183,182,240,159,261,759234
115,-18,-46,7,50,52,34,202,-145,89,57,216,-12,140,21,96,11,-38,-40,175,85,100,68,-63,289,-94,-84,25,107,-40,-377,759235
151,-25,-45,-12,43,54,66,-15,14,103,179,69,-86,249,73,83,-26,-73,-142,152,201,88,11,-134,297,142,-152,-44,-1,-110,-349,759236
136,-18,-59,2,27,27,165,-1,29,-60,91,52,-152,173,3,77,-34,-71,-124,118,211,75,-8,-106,262,173,-127,-38,-16,-108,-312,759237
135,9,-60,12,23,11,275,85,-107,7,70,84,-18,201,-13,73,-68,-97,-185,116,289,70,-51,-177,286,324,-183,-104,-64,-165,-351,759238
146,12,-43,20,38,31,307,118,-103,-211,72,150,-6,-3,-18,57,-105,-127,-249,106,340,54,-103,-223,279,440,-236,-163,-131,-200,-363,759239
136,26,-11,26,36,39,255,54,-67,-219,22,65,83,-97,-16,71,-44,-67,-170,102,280,78,-43,-129,224,365,-154,-87,-94,-134,-216,759240
-30,10,32,50,26,30,21,120,-50,37,81,-113,41,-140,13,-113,8,12,20,-87,-221,-39,7,42,-161,-413,20,11,-19,-17,207,759241
-89,4,43,57,24,23,-58,-43,-48,98,-60,-165,-176,-102,-36,-226,-25,-29,46,-184,-463,-134,-15,40,-335,-790,18,-4,-23,-9,81,759242
-14,-9,12,37,24,29,42,31,-16,-9,75,-61,-27,-79,19,-164,-61,-86,-50,-131,-306,-126,-64,-61,-181,-520,-70,-58,-64,-75,-207,759243
57,-8,-15,18,26,46,162,51,-102,-127,36,-17,154,70,29,-62,-73,-87,-110,-44,-107,-90,-76,-97,-21,-192,-105,-75,-63,-93,-210,759244
37,-2,1,14,22,41,155,-134,18,24,-63,-13,46,183,-11,-60,-36,-35,-51,-64,-171,-92,-29,-23,-78,-283,-38,-25,-9,-45,20,759245
44,18,-10,49,34,26,164,39,-52,147,136,70,183,-123,1,-47,-37,-44,-55,-42,-128,-76,-11,-49,-16,-210,-55,-23,-9,-59,-78,759246
32,11,-4,42,18,17,68,96,1,-3,248,122,72,-120,-7,-32,-20,-20,-53,-20,-100,-56,8,-39,8,-162,-54,-11,-4,-42,-39,759247
-4,-16,19,11,2,15,-39,102,-146,64,151,24,76,11,-22,-55,-11,-18,-44,-56,-177,-89,4,-25,-59,-275,-33,-17,-10,-31,-7,759248
7,-14,35,1,24,41,-7,89,-117,66,42,5,98,-58,-11,-63,-17,-22,-25,-65,-198,-94,7,-24,-59,-304,-34,-9,-5,-36,-43,759249
41,-3,19,16,28,37,71,56,-12,88,162,33,14,-98,-5,-33,-35,-49,-64,-31,-118,-76,-16,-70,10,-177,-70,-38,-36,-66,-140,759250
233,11,-53,8,37,40,294,112,-42,96,185,141,34,84,67,165,-141,-162,-313,152,464,15,-131,-292,469,763,-293,-185,-149,-226,-578,759251
343,9,-102,-51,24,22,410,173,-109,-5,172,230,89,62,90,333,-182,-199,-451,295,948,113,-193,-401,790,1573,-397,-268,-232,-318,-774,759252
363,22,-114,-75,3,3,444,218,-123,-112,-315,203,111,28,74,417,-160,-169,-464,355,1142,167,-174,-404,886,1935,-395,-275,-258,-316,-773,759253
195,39,-40,-37,-5,2,259,134,38,105,-92,88,107,61,20,226,-97,-80,-300,151,689,74,-124,-234,450,1264,-226,-185,-224,-206,-342,759254
-75,16,36,0,-22,-29,-64,-284,114,9,-124,-36,187,-127,-24,-79,-4,18,-37,-146,-125,-58,-29,12,-187,-16,10,-38,-113,-45,224,759255
-89,-1,26,-2,-27,-27,-88,-186,86,-80,-139,-73,64,-206,20,-107,-8,13,-10,-145,-183,-34,-18,2,-209,-191,0,-29,-87,-42,118,759256
-54,14,43,15,-3,3,-94,-84,85,140,-192,-95,-90,-173,46,-98,2,26,30,-117,-167,-2,-18,44,-194,-270,45,15,-45,-12,113,759257
-69,2,34,-2,-25,-7,-120,-78,50,106,59,-39,-22,1,23,-65,36,69,96,-84,-179,37,12,108,-180,-352,109,68,30,41,174,759258
-101,-4,32,-9,-28,-15,-151,-115,107,62,-178,-4,7,-58,-17,-82,74,92,130,-86,-261,35,50,140,-220,-493,138,101,58,63,245,759259
-53,4,6,11,-6,-8,-40,-30,47,81,-164,2,-230,2,-31,-16,55,50,69,-12,-114,72,34,76,-71,-282,57,60,48,21,82,759260
540,39,-182,-51,38,11,685,330,-145,-10,261,193,-179,216,149,637,-144,-194,-518,634,1638,395,-140,-482,1317,2481,-499,-282,-193,-354,-1240,759261
765,65,-198,-119,38,36,879,275,-297,-205,479,273,-56,71,111,883,-269,-316,-892,805,2447,441,-286,-790,1817,3988,-774,-524,-448,-598,-1581,759262
662,47,-139,-170,7,36,674,272,-258,-105,355,300,54,17,83,790,-255,-264,-843,664,2262,342,-300,-711,1568,3904,-664,-497,-494,-547,-1245,759263
254,47,-4,-114,-19,16,207,125,-73,-5,150,53,57,-25,-78,373,-103,-55,-393,198,1086,103,-169,-280,590,2217,-233,-240,-341,-250,-226,759264
-234,15,101,-33,-56,-44,-298,-273,104,-101,-100,-206,131,-135,-149,-214,20,90,110,-354,-465,-228,-43,148,-567,-190,158,26,-114,62,588,759265
-253,5,95,8,-55,-39,-284,-180,-40,-35,-218,-177,-123,-72,-99,-240,46,99,192,-336,-650,-226,-10,195,-602,-561,208,83,16,125,515,759266
-232,1,73,-5,-48,-37,-281,-116,-6,43,-2,-143,-150,-59,-7,-181,64,95,200,-257,-575,-191,18,189,-465,-522,185,106,75,135,380,759267
-181,7,83,9,-22,-5,-265,-69,-13,-28,75,-173,-54,-45,-15,-169,44,67,185,-230,-549,-184,16,164,-411,-522,154,97,78,106,315,759268
-144,-1,72,24,5,23,-257,26,57,-117,-165,-184,106,-131,9,-208,-16,8,98,-265,-589,-225,-41,85,-423,-596,82,45,29,48,218,759269
-113,2,42,30,8,21,-159,69,50,113,-213,-146,110,-50,4,-176,-35,-14,43,-223,-498,-210,-53,33,-325,-485,27,15,14,14,115,759270
57,8,7,23,23,26,59,48,7,111,102,57,-9,38,-9,32,-62,-69,-105,-8,38,-80,-64,-99,104,313,-105,-57,-34,-87,-214,759271
126,-9,-25,-50,-9,7,108,193,-17,126,181,23,-93,244,-16,165,-81,-93,-202,107,387,19,-78,-186,347,889,-179,-112,-88,-149,-343,759272
95,-1,8,-53,-10,17,-29,21,-35,-23,195,43,-63,202,-10,139,-32,-29,-137,67,301,37,-46,-110,241,769,-100,-57,-72,-95,-171,759273
-14,3,49,-26,-8,14,-249,3,-35,60,-145,-105,-43,163,39,-13,4,20,-5,-80,-70,-34,-26,13,-69,180,17,7,-28,-28,97,759274
-149,-1,59,6,-24,-13,-400,-180,-56,72,-182,-72,-35,78,78,-159,54,80,161,-202,-461,-78,41,149,-369,-509,143,105,49,76,402,759275
-172,-17,36,-12,-43,-35,-335,-148,8,-34,-74,-80,165,-9,30,-161,67,91,177,-183,-464,-41,82,157,-345,-596,138,127,84,82,349,759276
-163,-9,59,22,-13,-5,-199,10,107,101,138,-144,265,-46,1,-174,101,109,225,-181,-534,-10,105,215,-387,-769,190,161,126,111,372,759277
-123,-30,25,22,-15,-9,-79,-79,72,-31,-102,-70,205,-81,-79,-148,49,43,133,-149,-432,-13,44,121,-290,-623,99,77,78,41,158,759278
-117,-31,19,26,-19,-9,-82,46,47,37,-180,-8,-136,68,-53,-149,19,33,106,-159,-416,-28,28,97,-279,-617,69,57,54,14,176,759279
-52,-9,25,41,13,16,-20,100,6,-22,45,4,-60,112,25,-97,28,35,99,-93,-297,0,41,79,-167,-455,57,65,60,10,101,759280
268,6,-83,-3,27,19,363,268,-136,-27,159,192,-56,243,104,253,-68,-97,-219,264,636,167,-46,-219,584,1019,-232,-109,-52,-179,-643,759281
491,19,-165,-59,16,20,643,451,-150,-26,39,241,-40,213,109,527,-202,-235,-591,486,1460,239,-190,-542,1160,2455,-543,-348,-277,-431,-1082,759282
383,32,-124,-56,2,1,505,222,-35,-49,188,49,26,171,-2,436,-203,-208,-581,357,1294,148,-219,-495,946,2358,-500,-353,-342,-423,-830,759283
82,29,-11,-33,-22,-16,75,-71,84,-41,-217,-58,-83,60,-69,119,-89,-47,-245,20,425,-24,-120,-164,219,1075,-164,-147,-216,-185,-88,759284
-178,-1,57,-13,-37,-25,-291,-293,114,36,-356,-160,-2,-50,-39,-141,52,111,129,-222,-414,-135,4,174,-369,-278,191,92,7,98,436,759285
-159,-2,59,3,-26,-6,-255,-62,73,65,-116,-15,95,117,-41,-111,98,126,191,-167,-445,-101,66,209,-323,-417,218,154,107,157,359,759286
-123,-13,44,-1,-18,-6,-177,-144,130,-26,-88,-33,41,151,-31,-96,61,76,151,-141,-389,-96,53,141,-250,-362,144,100,89,106,225,759287
-106,-5,44,8,-15,-8,-110,-113,163,-120,-232,-81,-104,-6,35,-85,44,62,123,-129,-352,-95,36,110,-195,-348,127,92,85,89,202,759288
-94,2,35,1,-7,-4,-100,-146,59,15,29,5,-77,-5,-3,-87,39,52,105,-130,-345,-92,24,89,-182,-366,103,90,76,75,170,759289
-64,-8,12,-4,-7,-12,-130,-349,19,-53,-10,55,40,-42,-17,-104,10,10,60,-131,-319,-98,1,44,-157,-328,56,47,54,30,25,759290
37,11,-1,-3,13,0,-38,-159,10,-56,-53,68,-46,96,-4,18,-2,-2,-32,0,-30,-17,-16,-20,76,116,-11,-8,30,-10,-144,759291
123,16,-34,-29,5,-5,99,-57,-68,-4,154,140,-137,39,6,171,-7,-10,-110,130,319,76,-22,-89,338,659,-84,-43,-10,-56,-316,759292
170,28,-30,-26,8,12,219,-76,-105,78,330,101,-79,195,36,231,-23,-34,-152,173,497,115,-28,-134,445,964,-131,-78,-57,-93,-330,759293
25,6,29,-16,5,12,125,-95,-39,103,37,-129,185,118,-53,33,-34,-20,-90,-30,101,3,-49,-55,76,391,-49,-62,-85,-68,-3,759294
-198,-10,58,16,-32,-27,-24,-123,42,36,-359,-166,-38,3,-74,-220,11,35,102,-249,-505,-118,-12,110,-397,-581,104,34,-2,54,274,759295
-165,13,33,37,-28,-35,31,60,-51,-17,89,-8,60,-14,10,-126,55,70,146,-127,-387,-33,47,142,-251,-458,125,87,73,86,295,759296
-152,20,22,34,-21,-38,-101,34,2,-110,205,-27,64,153,12,-85,93,104,178,-81,-344,19,101,190,-204,-434,160,134,122,125,316,759297
-104,-16,20,-1,-25,-12,-179,45,159,-31,-50,-81,-43,54,-68,-63,81,85,161,-62,-297,25,97,169,-162,-374,132,129,114,108,205,759298
-67,-17,35,4,-8,23,-141,130,118,109,-182,-72,-18,-78,-48,-62,47,58,149,-51,-251,15,66,148,-135,-325,114,112,100,89,131,759299
-90,-29,30,11,-10,16,-134,-12,83,65,-115,-118,-177,46,-63,-141,-8,1,77,-132,-329,-74,5,76,-227,-432,61,37,39,28,112,759300
-7,-4,6,16,7,14,5,-220,23,-139,-160,4,-142,53,-3,-34,4,0,31,-28,-107,-10,14,20,-42,-95,10,20,46,7,-69,759301
100,5,-57,-9,0,-5,154,159,-147,-114,-30,72,-39,66,16,116,-29,-42,-90,114,281,63,-19,-99,268,544,-111,-40,-14,-74,-347,759302
80,2,-64,-22,-16,-22,112,43,-189,-123,-209,-56,-52,101,15,118,-46,-43,-128,99,325,52,-30,-115,269,630,-128,-69,-46,-97,-255,759303
16,5,-20,-5,-19,-31,4,-77,-84,32,-31,-36,-8,105,-7,58,-4,13,-48,31,146,22,6,-43,121,350,-29,-13,-15,-40,-94,759304
-32,-6,0,-9,-14,-26,-107,-125,-52,95,162,-15,-179,-43,47,11,20,36,38,-21,-21,-7,30,31,6,74,52,37,14,23,9,759305
-55,-22,4,-36,-22,-12,-141,-57,-29,-2,-178,-118,-189,-56,58,-5,46,58,93,-18,-84,1,41,85,-32,-47,114,89,62,83,102,759306
-56,-2,27,-5,0,8,-95,-101,-49,-5,-343,-147,-51,-68,54,-13,68,69,101,-34,-148,1,35,104,-77,-178,124,99,86,106,169,759307
-80,-5,22,5,-7,-3,-85,-185,-44,-49,-379,-62,38,-192,21,-81,37,37,71,-97,-254,-56,25,49,-164,-354,57,70,42,52,162,759308
-87,-2,44,21,-4,1,-100,-88,97,-33,-102,110,-44,-283,4,-89,68,71,141,-98,-310,-39,77,101,-187,-484,107,109,83,88,212,759309
-67,-16,40,12,-11,-2,-134,-101,105,65,-21,20,-13,-59,17,-100,52,53,133,-107,-324,-47,63,94,-168,-512,95,95,82,69,169,759310
-39,-14,14,-14,-4,-14,-128,-20,-4,71,-48,-35,75,-24,-29,-65,17,21,73,-73,-214,-34,28,37,-74,-346,57,57,55,37,81,759311
-15,-12,-5,-34,-8,-16,-85,-43,6,-107,-207,82,-26,198,23,20,53,53,71,11,-57,33,59,45,66,-108,66,75,74,56,17,759312
-33,-9,4,-37,-14,-17,-4,121,-4,-102,-161,100,13,161,58,36,95,84,113,43,-36,64,112,103,77,-101,88,114,108,80,0,759313
-25,-4,3,4,-3,-13,93,-76,16,-33,196,15,-16,-54,-4,-16,64,50,70,-9,-113,17,72,70,-6,-201,64,75,75,41,131,759314
-50,9,7,63,8,10,68,-183,100,89,133,-88,-2,-267,-40,-122,14,11,66,-107,-306,-70,9,70,-160,-458,59,49,45,21,231,759315
-43,9,10,69,18,23,18,-40,-42,47,27,-97,-137,-208,-94,-108,20,12,84,-85,-295,-49,22,92,-134,-435,71,57,74,44,122,759316
-59,-23,24,13,18,27,-127,-79,-83,55,10,-84,-168,-29,-13,-97,16,2,52,-64,-268,-49,15,64,-102,-359,57,27,67,43,134,759317
-36,-26,8,-6,9,31,-127,-132,5,136,-95,-29,-63,-123,96,-58,13,-1,42,-21,-169,-22,9,62,-21,-193,44,34,63,47,97,759318
-49,-22,-25,-5,-14,-11,-84,-109,-51,97,18,-80,-69,58,37,-42,28,16,63,-11,-147,-5,44,80,-6,-178,48,59,81,58,124,759319
-67,-16,-21,1,-18,-24,-62,-138,-23,11,-101,-38,14,117,-42,-43,38,32,71,-25,-162,-8,51,76,-24,-198,41,58,80,61,144,759320
-281,-15,64,38,-14,-9,-311,-217,120,-37,-264,-31,132,19,-76,-282,104,115,277,-268,-802,-136,107,271,-550,-1229,244,181,162,192,544,759321
-372,-28,66,56,-14,-8,-400,-190,168,18,-27,-70,107,-15,20,-405,135,154,408,-361,-1159,-182,144,373,-774,-1880,366,269,247,271,718,759322
-333,-25,56,77,-7,-12,-336,-121,78,125,92,2,-14,-67,20,-349,165,168,442,-288,-1094,-120,204,380,-676,-1903,364,297,297,298,649,759323
-179,-33,14,64,11,-9,-157,-114,60,121,64,72,5,-111,99,-212,97,72,246,-134,-681,-61,134,193,-321,-1324,176,165,219,160,259,759324
29,-33,-19,26,33,37,29,108,84,-38,94,36,19,-152,71,-32,-6,-30,1,30,-142,11,24,-26,87,-464,-29,16,78,-6,-98,759325
64,-24,-18,4,39,38,17,1,170,37,34,40,-1,90,25,-21,7,-16,-8,28,-85,13,30,-29,91,-372,-33,21,39,-26,-112,759326
48,-17,-33,-1,22,22,22,-6,55,42,-30,-21,-104,25,62,-17,2,-12,-31,7,-79,19,17,-28,68,-350,-25,12,22,-27,-79,759327
36,-8,-35,13,22,17,42,-80,-11,58,61,61,-6,92,76,-18,-13,-9,-23,-7,-65,14,-1,-15,57,-323,2,7,15,-14,-82,759328
36,-10,-41,7,9,5,19,-160,68,68,167,126,137,175,33,-12,-6,-4,-2,17,-37,24,11,-8,79,-265,5,13,24,-9,-17,759329
-10,-22,-23,-4,-5,3,-62,-19,39,-20,48,91,-127,-6,-16,-60,8,13,30,-30,-149,12,34,47,-18,-443,41,44,41,9,114,759330
-219,-30,59,20,-14,-2,-325,-95,78,-55,-293,-166,-6,-35,-63,-286,107,126,259,-249,-786,-106,125,266,-522,-1462,258,169,136,164,577,759331
-341,-34,99,77,-5,2,-449,-92,45,56,-240,-258,-28,-207,-35,-449,175,194,456,-382,-1289,-183,196,440,-855,-2321,430,299,269,314,843,759332
-418,-55,84,100,-7,-8,-445,-232,158,92,-152,-254,6,-227,-30,-560,170,175,533,-473,-1585,-248,196,487,-1026,-2861,469,340,329,346,900,759333
-255,-50,5,93,5,-11,-137,-181,103,-44,-93,-61,17,-109,12,-352,107,77,354,-242,-1072,-139,166,281,-544,-2131,257,237,273,213,317,759334
93,-11,-58,66,47,32,253,223,69,-86,244,79,-86,71,23,14,6,-48,8,127,-66,60,79,-30,233,-536,-55,45,126,-7,-305,759335
73,-21,-57,35,32,26,158,155,1,20,261,66,-66,156,-8,-35,-47,-90,-85,55,-75,-13,-12,-79,155,-468,-97,-31,30,-71,-238,759336
61,-31,-71,7,13,7,103,65,-51,56,202,106,44,169,71,-42,-64,-112,-122,44,-43,-37,-40,-115,175,-321,-131,-80,-16,-101,-307,759337
