30,3,0,-34,-22,-14,-29,128,-48,-45,-110,-105,-121,39,-41,171,1,-16,-23,15,124,-29,-42,-43,30,262,-53,-53,-17,-12,-93,781048
159,17,-46,-52,-17,-32,118,104,-127,-74,-64,-2,11,34,-15,331,-52,-79,-188,174,583,61,-88,-208,381,1003,-214,-163,-114,-138,-372,781049
209,32,-55,-56,-8,-18,94,-81,-71,17,-80,-80,-36,46,9,359,-83,-94,-251,181,723,79,-138,-248,463,1249,-244,-203,-181,-181,-432,781050
193,38,-29,-32,4,-13,21,-85,-139,11,-4,-103,-109,-92,-9,283,-109,-109,-263,91,626,31,-157,-245,354,1148,-229,-213,-220,-189,-360,781051
37,25,25,-14,-9,-19,-60,46,-21,-61,53,-94,19,-219,-40,106,-33,-7,-70,-100,144,-34,-82,-46,-37,382,-47,-87,-141,-42,-9,781052
-26,34,38,21,-15,-20,12,-29,125,-110,104,-73,146,-190,-39,81,22,53,62,-123,-1,-11,-7,55,-112,76,63,7,-48,58,182,781053
-31,35,7,9,-28,-36,35,27,-13,-146,-53,-35,129,-2,36,111,18,42,40,-94,72,15,-15,28,-31,165,44,-5,-56,41,84,781054
-50,25,23,1,-27,-35,3,68,-64,-132,-133,-23,51,-44,51,68,5,30,32,-139,21,-9,-19,28,-55,79,38,-2,-62,25,60,781055
-15,16,21,-1,-5,-25,14,114,-57,-22,140,-99,74,-122,68,55,-39,-11,-13,-149,37,-35,-61,-17,-35,129,-7,-42,-103,-19,-9,781056
37,23,35,4,8,11,32,114,-22,-120,-36,10,109,-79,-21,41,-84,-52,-78,-146,83,-59,-95,-83,4,207,-68,-101,-138,-68,-83,781057
223,24,-11,-32,14,32,236,176,-148,-71,-38,16,296,13,-37,241,-137,-119,-237,82,612,37,-127,-236,418,1044,-242,-179,-187,-182,-492,781058
423,31,-86,-64,18,24,493,146,-194,-140,255,106,180,-57,12,496,-228,-221,-487,332,1314,149,-226,-460,921,2252,-461,-328,-309,-338,-925,781059
397,55,-85,-48,12,-4,477,135,-165,-76,409,124,34,27,53,521,-208,-171,-490,352,1397,177,-213,-437,911,2448,-435,-318,-320,-328,-854,781060
230,57,-77,-66,-31,-64,280,187,-122,42,94,18,-65,-20,84,409,-151,-96,-378,237,1088,119,-173,-322,616,2043,-305,-251,-288,-257,-491,781061
-88,36,28,-35,-61,-84,-154,-8,40,-6,-156,-148,97,-118,8,118,10,76,-36,-29,226,0,-12,21,-75,689,14,-41,-102,-12,127,781062
-187,34,64,-26,-50,-80,-313,31,106,-67,-43,-153,66,-45,4,12,65,137,140,-66,-88,-2,72,161,-270,98,153,83,39,115,391,781063
-153,16,53,-55,-55,-65,-349,27,104,-85,-39,-203,-5,45,-47,-3,15,105,140,-42,-113,-17,28,135,-258,12,140,79,63,110,268,781064
-67,7,58,-40,-14,-22,-285,40,118,-70,-256,-110,53,-7,16,14,-12,80,115,1,-42,-1,19,112,-189,81,122,61,61,96,191,781065
-69,1,58,-20,-15,-13,-189,-32,111,113,-163,-5,3,-87,-51,-3,0,85,134,10,-66,11,50,120,-190,33,123,80,75,96,230,781066
-68,2,51,-4,-7,0,-77,-119,90,80,102,-63,-23,-318,-46,-18,-7,71,121,-6,-88,8,40,99,-192,-18,107,73,65,82,214,781067
52,19,12,19,8,5,170,-209,58,-110,74,-31,44,-107,7,48,-86,-20,-48,72,182,17,-50,-51,36,405,-53,-37,-27,-37,-138,781068
304,43,-50,13,34,8,539,95,22,-28,411,153,36,174,21,301,-217,-168,-358,307,926,120,-166,-343,618,1641,-346,-249,-196,-252,-700,781069
482,70,-95,-20,43,12,779,318,-49,-164,560,198,107,-87,100,528,-270,-219,-559,478,1546,223,-228,-510,1058,2708,-495,-365,-329,-362,-924,781070
402,51,-93,-42,4,-8,650,327,-178,-81,253,95,108,-131,98,462,-260,-187,-531,359,1441,161,-235,-457,904,2666,-426,-349,-370,-348,-767,781071
-18,33,22,-22,-42,-37,5,-120,-78,-138,-115,-175,196,-346,-78,-25,-138,-27,-124,-153,216,-100,-117,-70,-83,828,-62,-126,-227,-95,147,781072
-97,31,44,-5,-22,-32,-201,-15,56,-89,-9,-178,310,-189,-111,-119,-83,22,51,-245,-132,-129,-49,54,-257,249,60,-23,-105,32,225,781073
-54,18,37,-22,-14,-14,-147,-95,36,90,81,-122,288,-65,0,-54,-86,17,38,-215,-53,-96,-31,38,-128,368,51,-19,-72,38,110,781074
-51,19,40,-8,-20,-18,-100,-97,-37,47,-75,-112,79,-244,-26,-61,-70,21,64,-213,-68,-93,-9,60,-112,337,68,7,-34,64,149,781075
-24,11,0,-22,-26,-34,-32,-130,-79,-165,-117,4,-80,-92,17,-31,-89,-1,21,-190,12,-84,-40,13,-37,465,30,-21,-46,35,70,781076
-9,24,9,-4,-19,-32,1,-98,46,-94,-48,24,-232,39,29,-5,-67,35,41,-153,31,-45,-20,36,-18,475,45,-1,-15,52,70,781077
154,32,-36,-11,1,-21,201,-40,-2,-159,203,11,-90,80,-11,156,-128,-27,-109,43,469,44,-61,-113,331,1140,-118,-88,-71,-48,-336,781078
638,50,-170,-83,36,20,742,191,-133,-77,285,188,-163,19,52,651,-361,-302,-718,555,1945,264,-290,-682,1435,3533,-666,-465,-393,-465,-1414,781079
676,62,-157,-118,28,33,737,369,-206,-167,260,187,-121,-98,11,718,-399,-324,-854,614,2258,290,-337,-764,1531,4168,-745,-549,-528,-570,-1363,781080
451,56,-75,-125,-13,6,435,354,-133,-124,98,106,-209,-135,6,501,-329,-215,-660,399,1738,192,-275,-558,1004,3453,-537,-455,-497,-451,-832,781081
-30,29,68,-79,-62,-31,-131,-130,112,-70,-97,-33,-15,-267,-53,11,-167,-6,-194,-56,408,-30,-140,-84,-84,1374,-69,-176,-286,-122,213,781082
-164,15,99,-37,-56,-37,-227,-145,120,-60,-25,-96,135,-140,-93,-136,-81,72,50,-123,-74,-53,-52,100,-372,522,111,-23,-97,39,422,781083
-122,25,84,5,-30,-29,-131,-83,2,27,158,-148,80,-159,9,-114,-89,48,75,-76,-54,-35,-38,86,-304,475,97,-1,-56,39,292,781084
-119,36,86,28,-26,-23,-100,-235,110,133,-15,-228,210,-61,-80,-155,-102,26,81,-82,-120,-58,-38,64,-336,337,77,-5,-49,30,289,781085
-112,15,62,2,-29,-23,-105,-56,87,103,-133,-112,63,47,-69,-161,-93,22,88,-70,-138,-41,-9,63,-320,275,64,-2,-43,24,273,781086
-74,26,65,-2,-11,-12,-100,-50,71,118,-117,-102,17,56,-65,-101,-75,44,87,-18,-64,-1,9,64,-239,337,71,20,-3,43,150,781087
130,32,8,-18,7,2,125,187,105,55,17,9,-1,122,3,126,-127,-27,-102,207,524,121,-60,-122,256,1250,-110,-80,-62,-64,-279,781088
472,51,-91,-61,30,31,578,344,-93,-49,377,169,-37,220,66,511,-261,-177,-490,545,1592,296,-169,-464,1073,2999,-450,-305,-261,-317,-1005,781089
579,75,-104,-84,33,35,773,475,-122,119,306,212,-58,142,101,665,-290,-213,-649,646,2046,347,-212,-591,1366,3863,-574,-412,-379,-422,-1146,781090
464,74,-70,-99,-5,11,644,283,51,74,28,209,16,-22,81,554,-297,-179,-613,477,1829,247,-256,-535,1126,3701,-509,-417,-427,-400,-885,781091
-61,35,59,-53,-57,-66,-134,-224,164,101,-237,-146,-52,-115,-66,-39,-150,26,-97,-166,280,-88,-135,-28,-131,1362,-1,-127,-213,-46,219,781092
-173,34,88,-26,-42,-59,-368,-212,83,106,-167,-218,-17,-152,-96,-177,-72,94,111,-292,-199,-137,-40,135,-390,572,157,15,-34,116,383,781093
-110,26,80,-23,-19,-20,-283,-59,7,-39,-49,-212,159,-200,-77,-122,-69,68,113,-242,-133,-99,-15,116,-261,661,131,36,20,127,326,781094
-81,14,73,-27,-27,-14,-225,32,68,14,-111,-173,2,-123,-94,-101,-61,67,130,-217,-123,-91,-2,117,-221,665,133,49,47,137,325,781095
-91,1,68,-28,-25,-11,-212,-59,96,-101,14,-85,-157,-56,-87,-114,-68,52,100,-227,-158,-108,-17,90,-231,613,112,31,44,114,241,781096
-96,-4,64,-21,-23,-11,-189,-281,64,-33,119,-77,46,30,-110,-124,-61,42,104,-215,-179,-100,-11,97,-234,547,108,40,44,113,191,781097
221,35,-32,-38,6,-4,230,72,-106,-18,136,116,-32,104,76,249,-135,-76,-180,176,750,114,-83,-186,532,1990,-181,-112,-55,-68,-560,781098
671,63,-168,-109,19,-4,775,386,-367,1,385,297,-35,141,217,765,-318,-276,-731,691,2220,364,-272,-683,1596,4379,-664,-448,-359,-444,-1456,781099
695,92,-156,-120,11,-8,778,327,-365,-95,367,265,46,14,84,800,-356,-282,-810,697,2441,357,-319,-730,1633,4892,-713,-518,-501,-528,-1356,781100
506,90,-79,-122,-7,-6,468,100,-226,-86,186,193,80,-50,-21,592,-329,-204,-671,478,1975,242,-307,-572,1165,4279,-542,-460,-517,-448,-842,781101
-97,32,112,-92,-49,-31,-368,-179,105,-54,-268,-102,159,-370,-126,-83,-129,45,-78,-182,195,-80,-135,0,-290,1487,33,-126,-276,-52,450,781102
-218,18,150,-47,-37,-32,-494,-348,153,-2,-474,-254,150,-220,-89,-250,-28,114,189,-265,-347,-113,-15,193,-619,502,211,51,-69,126,582,781103
-163,26,131,-16,-27,-20,-316,-313,136,26,-238,-235,190,-139,-35,-160,25,142,253,-147,-261,-24,45,223,-478,524,243,118,46,173,451,781104
-139,38,109,1,-15,-19,-161,-216,82,26,-121,-51,172,80,-44,-97,51,147,253,-71,-154,41,68,215,-344,585,231,144,92,190,387,781105
-130,38,76,16,-16,-33,-93,-77,4,34,-198,-117,68,123,-19,-111,3,96,173,-62,-105,23,38,136,-298,610,151,88,39,114,261,781106
-111,39,66,23,-13,-27,-100,-59,-71,-14,-383,-127,31,162,23,-117,-18,60,134,-70,-81,13,29,94,-261,640,103,50,20,63,254,781107
11,43,50,13,15,-4,-11,-217,-35,40,-95,63,78,104,70,20,-38,34,42,50,219,89,23,17,8,1107,21,13,16,25,-21,781108
211,42,-2,-18,25,19,192,-184,-48,44,-129,92,18,-32,119,218,-112,-49,-155,237,760,170,-54,-153,424,1984,-150,-100,-83,-99,-336,781109
329,37,-56,-60,11,8,352,225,-122,-140,143,147,-59,-30,80,363,-175,-122,-326,355,1191,205,-120,-307,730,2755,-297,-207,-180,-225,-659,781110
310,49,-50,-81,-15,-10,362,419,-40,-243,307,193,69,146,42,383,-190,-133,-369,331,1282,181,-149,-340,751,2999,-331,-241,-237,-263,-572,781111
-76,28,52,-47,-48,-36,-126,-34,93,-175,-75,59,35,-8,36,-17,-76,30,-18,-105,203,-45,-54,20,-117,1403,33,-37,-89,-13,261,781112
-133,34,80,-26,-27,-33,-221,-46,78,-73,-188,-22,75,7,32,-111,-15,81,126,-175,-139,-90,-9,139,-308,869,143,53,46,113,312,781113
-83,18,59,-30,-36,-36,-163,0,106,130,-246,-100,13,-72,-36,-85,-36,48,96,-137,-102,-112,-23,85,-217,975,94,30,64,95,191,781114
-73,15,54,-14,-23,-35,-141,-175,97,14,-3,-124,-117,31,11,-73,-31,42,88,-135,-138,-124,-14,78,-216,956,81,24,80,92,237,781115
-113,14,64,-3,-20,-33,-171,-207,164,128,139,-15,-59,101,-2,-118,-6,62,130,-167,-277,-134,14,125,-311,717,125,55,116,144,273,781116
-120,2,39,-1,-19,-35,-143,9,41,73,85,-50,-17,23,-30,-87,12,76,144,-132,-251,-99,46,141,-274,724,134,77,149,158,256,781117
-1,5,10,-7,-9,-21,18,37,-40,14,227,33,-57,5,10,34,-36,21,19,22,108,-28,-1,16,27,1229,15,5,92,67,-20,781118
145,27,-22,-40,-1,-9,194,189,18,-144,130,95,-233,158,77,191,-101,-47,-149,182,580,74,-68,-150,371,1960,-143,-99,-29,-64,-296,781119
195,44,-7,-48,13,7,237,-54,14,-38,-71,-20,-129,153,71,234,-125,-77,-219,206,743,97,-97,-205,454,2215,-195,-137,-106,-116,-368,781120
124,33,25,-36,9,22,99,-72,-53,-117,-73,-104,128,-8,0,107,-123,-62,-176,79,528,36,-111,-155,220,1864,-136,-129,-137,-100,-230,781121
-78,21,88,-6,-6,16,-139,-124,93,-90,-237,-106,185,35,-52,-114,-30,58,83,-147,-88,-25,-23,79,-275,833,102,24,-32,61,265,781122
-127,5,69,-15,-23,-11,-138,-473,46,-162,-135,-107,79,71,-95,-139,-6,75,133,-163,-201,-5,23,125,-333,574,135,67,13,93,260,781123
-135,-1,56,-16,-23,-16,-104,-347,150,-186,-203,-23,-70,32,-125,-146,8,66,158,-162,-222,-2,49,129,-330,484,132,78,23,92,283,781124
-129,-3,48,-8,-25,-13,-82,-145,21,-44,-144,-2,0,-173,-112,-132,14,67,165,-133,-191,19,57,129,-277,465,133,90,40,95,308,781125
-95,9,42,2,-9,-5,-66,-316,51,-63,-81,-85,53,-4,-17,-97,-5,52,117,-101,-106,32,32,83,-200,577,97,62,36,63,131,781126
-82,4,43,-8,-3,2,-100,-266,-84,17,35,-122,34,164,3,-116,-34,14,80,-125,-119,6,-2,59,-203,572,69,29,10,29,67,781127
-43,6,49,-6,11,14,-77,-86,-86,39,93,1,51,3,-9,-81,-44,8,41,-92,-34,9,-5,32,-117,705,58,5,-1,7,65,781128
-95,-9,60,-11,-2,6,-172,13,-26,20,7,-75,98,-101,-67,-156,-20,38,105,-163,-243,-43,11,96,-283,390,109,55,35,55,238,781129
-191,-20,78,7,-11,-9,-262,-125,-37,-53,-150,-91,21,-190,-73,-296,-11,35,172,-282,-579,-137,21,144,-532,-121,135,94,70,80,325,781130
-187,-14,64,12,-11,-11,-202,-131,47,-229,-232,-29,146,-64,-144,-238,42,71,236,-218,-563,-91,94,194,-467,-139,170,147,161,132,329,781131
-25,7,25,10,16,22,-14,-96,78,18,34,99,171,219,-49,-17,20,38,107,15,-68,18,77,64,-39,623,62,80,149,72,110,781132
12,0,28,-9,15,22,-22,-57,22,131,-273,47,23,85,78,7,-13,12,19,39,11,-14,34,32,2,816,24,38,127,37,43,781133
-49,0,46,-1,9,-3,-90,-44,16,-108,-100,40,36,65,-1,-73,-22,16,55,-33,-184,-75,26,67,-155,578,53,51,141,63,88,781134
-43,-16,32,-5,15,-5,-82,-81,103,-25,176,-35,195,83,-33,-62,-33,6,52,-9,-171,-79,19,45,-127,633,34,34,137,56,54,781135
-49,-22,28,3,-2,-5,-93,-11,33,-26,77,-47,157,-66,-23,-80,-20,7,69,-22,-202,-83,43,45,-159,593,41,41,133,54,72,781136
-46,-5,28,2,3,1,-91,-33,2,24,57,-46,77,-145,-25,-92,-11,6,61,-25,-220,-77,39,43,-174,562,44,45,124,60,162,781137
-232,-24,70,18,-9,-14,-324,-231,174,-100,78,-116,121,-153,-37,-278,57,97,257,-236,-757,-160,97,243,-589,-319,248,163,204,204,560,781138
-319,-20,95,49,-15,-24,-391,-102,195,-50,95,-174,19,-101,25,-364,128,174,439,-297,-1036,-139,192,386,-763,-902,382,277,310,316,722,781139
-382,-32,99,55,-26,-31,-450,-67,203,72,-156,-130,-125,65,-65,-451,139,178,491,-380,-1242,-163,189,422,-903,-1330,424,298,323,334,803,781140
-345,-29,97,78,2,0,-380,-157,211,94,-109,-25,-67,-51,-88,-438,131,155,492,-360,-1226,-139,178,417,-840,-1433,398,313,332,341,685,781141
18,-9,-2,52,54,44,77,140,78,11,-43,99,-121,205,60,-94,-1,-12,145,-22,-254,42,63,72,-51,15,62,119,157,84,-113,781142
115,-3,-23,38,51,53,174,264,58,46,89,66,-202,269,84,-16,-55,-59,-27,9,41,49,1,-66,124,519,-66,1,8,-45,-215,781143
47,-21,-19,23,26,27,117,78,-21,53,-12,-43,-61,0,26,-57,-31,-38,-16,-50,-33,30,27,-40,38,431,-43,2,-18,-38,-103,781144
12,-21,-22,7,14,14,75,-15,-55,-106,14,-31,-122,53,14,-75,-38,-45,-24,-77,-44,17,10,-48,8,416,-48,-9,-29,-51,-61,781145
-7,-16,-27,-7,7,1,-21,-65,-36,-212,172,-21,-21,184,-9,-66,-58,-51,-50,-88,-17,7,-34,-68,13,459,-59,-25,-49,-55,-78,781146
-7,-11,-13,-5,0,0,-104,-58,33,-148,76,97,-25,165,13,-37,-26,-20,1,-55,19,21,-9,-16,49,502,-24,12,-15,-17,-63,781147
-123,-14,29,-5,-14,4,-295,-18,-27,63,-266,-5,-108,-35,19,-111,59,76,175,-128,-281,9,96,152,-187,14,141,132,95,103,297,781148
-322,-25,78,24,-20,-11,-481,-207,85,-135,-271,-119,153,-6,-77,-323,144,164,393,-321,-882,-92,190,365,-630,-966,350,273,226,250,665,781149
-437,-48,94,39,-30,-28,-563,-381,160,-29,-276,-180,111,157,-104,-487,153,178,481,-443,-1313,-191,188,448,-921,-1696,441,311,306,318,875,781150
-451,-56,101,49,-18,-12,-570,-227,215,-89,-261,-168,13,197,-72,-554,164,181,517,-461,-1513,-222,217,464,-1020,-2081,448,326,364,336,852,781151
-68,-34,3,30,30,18,-56,35,57,-39,-120,44,-84,222,34,-158,62,19,172,-30,-520,-10,135,126,-183,-559,101,141,259,108,42,781152
52,-26,-28,23,28,26,152,88,65,77,-151,152,-94,110,69,-21,-8,-47,-21,109,-96,25,62,-23,96,170,-47,30,154,-26,-140,781153
12,-18,-14,39,23,14,96,-82,57,53,-119,89,-157,15,-53,-71,-21,-27,-25,73,-176,-32,27,-6,-13,99,-21,18,142,-8,-62,781154
41,-11,-17,34,45,28,93,-170,61,20,13,106,-16,-63,-90,-61,-55,-62,-82,78,-115,-36,1,-60,15,240,-72,-32,99,-47,-116,781155
-11,-12,1,31,28,21,13,-124,25,144,-66,-51,37,-171,-54,-115,-38,-27,-11,18,-263,-59,34,6,-122,24,-7,12,114,0,-66,781156
-16,-4,-6,37,21,7,29,137,-29,170,-22,24,111,-69,-56,-93,-27,-17,24,34,-236,-43,43,30,-93,65,14,43,131,20,-55,781157
-176,-14,56,54,6,2,-182,70,41,174,-61,-29,32,-14,-86,-282,29,60,199,-169,-710,-136,87,185,-471,-704,179,130,173,125,450,781158
-526,-39,158,94,-12,-1,-646,-237,80,143,-273,-197,-2,-73,-156,-647,202,236,630,-530,-1757,-273,252,575,-1256,-2477,549,404,388,417,1152,781159
-591,-76,154,89,-12,-6,-802,-340,144,74,-343,-192,142,38,-79,-723,245,262,758,-595,-2035,-280,295,667,-1384,-3091,631,483,471,499,1092,781160
-466,-72,112,96,15,12,-674,-273,165,63,-354,-92,122,93,-21,-617,194,184,637,-480,-1774,-222,247,539,-1113,-2810,516,410,444,416,796,781161
-2,-47,-33,65,59,37,-67,97,-82,75,213,138,-85,106,40,-125,39,-12,182,0,-448,24,130,76,-27,-777,52,144,244,86,-239,781162
155,-31,-64,47,61,48,240,212,-110,56,188,180,-140,-13,46,37,-45,-93,-64,108,82,69,32,-120,314,121,-133,-12,53,-80,-402,781163
128,-16,-47,54,59,53,301,218,-50,-51,25,52,-182,-72,7,-17,-81,-108,-114,32,65,19,-21,-142,237,144,-140,-56,-26,-101,-304,781164
118,-8,-35,52,49,54,268,134,-14,-66,175,11,-181,-208,9,-40,-126,-150,-172,-25,89,-16,-66,-185,211,239,-190,-108,-92,-167,-366,781165
43,-22,-45,11,19,25,178,-79,-39,45,95,62,-91,-133,23,-49,-90,-96,-99,-48,2,-13,-36,-106,135,130,-116,-48,-53,-104,-190,781166
-16,-35,-58,-3,-5,-15,131,122,-28,-53,119,48,-144,69,32,-49,-26,-37,-38,-48,-73,3,20,-30,73,5,-44,7,-8,-36,-12,781167
-137,-25,-15,21,-1,-7,-66,9,-93,-12,121,-101,32,-27,-58,-236,11,-4,82,-228,-517,-105,42,74,-292,-674,72,59,22,27,214,781168
-311,-34,57,50,13,10,-401,-250,-8,23,-124,-120,-89,-171,-108,-468,77,78,291,-442,-1151,-231,84,252,-782,-1693,261,177,138,166,501,781169
-412,-42,114,90,17,9,-520,-365,127,15,43,-145,35,-78,-46,-541,182,200,519,-475,-1519,-222,196,469,-983,-2394,480,353,333,354,861,781170
-340,-40,70,118,24,1,-331,-238,108,148,183,-111,-72,119,4,-463,172,165,499,-354,-1382,-156,210,432,-810,-2310,436,356,372,339,649,781171
10,-4,-41,103,52,27,205,72,-71,-74,439,126,-161,27,42,-95,10,-29,91,47,-354,20,78,45,20,-694,35,106,187,53,-131,781172
74,4,-61,73,42,31,298,198,-156,-34,270,139,-208,21,-46,11,-13,-53,-35,144,-36,69,49,-54,198,-157,-61,16,97,-41,-215,781173
65,-4,-53,55,35,17,172,94,-44,45,86,97,-175,136,32,-5,14,-26,-23,143,-41,67,68,-17,153,-154,-20,19,90,-17,-109,781174
30,-12,-41,26,21,3,48,28,-116,16,-195,115,-154,167,65,-12,55,21,39,139,-81,79,96,53,110,-224,50,72,124,32,-84,781175
3,-11,-26,9,20,5,-2,-110,-38,-12,-150,-32,-111,167,6,8,69,52,72,163,-75,97,115,91,108,-232,85,108,149,63,14,781176
-36,-28,-16,0,5,11,7,-89,-37,-92,-146,47,-160,1,3,-34,45,42,67,116,-138,56,94,64,39,-322,67,84,125,45,77,781177
-150,-33,30,38,10,17,-50,-154,108,19,-188,-40,-60,-7,-21,-226,35,37,129,-96,-532,-65,86,121,-301,-922,120,86,102,53,304,781178
-468,-34,141,129,6,13,-403,-378,271,158,-318,-271,-10,-175,-141,-671,115,138,459,-553,-1669,-314,152,425,-1176,-2749,409,263,224,266,982,781179
-523,-45,130,155,14,18,-419,-205,193,124,-284,-220,10,-44,-61,-747,147,151,554,-609,-1954,-336,189,499,-1302,-3318,478,334,328,341,994,781180
-406,-61,76,141,27,17,-238,-361,122,45,-133,-139,38,33,-23,-606,141,113,503,-455,-1663,-245,211,423,-995,-2980,390,326,349,308,636,781181
30,-39,-62,87,45,40,304,-83,-124,79,113,119,-22,59,31,-124,-18,-94,54,13,-379,-22,64,-18,69,-975,-45,74,166,13,-281,781182
118,-26,-87,59,44,34,332,135,-46,186,155,138,-45,52,53,-24,-100,-146,-157,69,15,-8,-43,-170,289,-279,-171,-63,11,-129,-395,781183
103,-20,-75,32,47,33,206,123,-59,171,31,184,-81,-121,3,-21,-91,-130,-158,38,29,-20,-48,-163,259,-200,-161,-71,-31,-129,-318,781184
85,-41,-51,23,39,42,86,120,-98,33,113,29,-208,-112,52,-65,-84,-112,-127,-21,-69,-58,-41,-127,156,-297,-131,-68,-56,-126,-247,781185
93,-31,-21,34,42,56,87,188,-61,-7,175,-25,-197,-250,30,-65,-35,-65,-56,-22,-101,-47,1,-63,120,-328,-71,-18,-10,-64,-141,781186
69,-14,-26,34,34,47,131,186,20,38,-33,87,-98,-175,20,-68,-16,-40,-7,-14,-128,-32,19,-29,97,-384,-35,12,21,-26,-121,781187
-15,-13,-33,57,15,11,115,36,48,50,127,31,-162,-110,-48,-147,7,-14,53,-82,-308,-66,47,25,-60,-678,25,41,35,14,61,781188
-167,-16,15,76,-1,-6,-45,47,82,66,40,-23,-219,-99,20,-301,67,62,194,-216,-713,-130,105,180,-369,-1325,172,138,125,123,388,781189
-231,-25,37,93,16,5,-170,-163,119,172,-216,-129,-172,-83,-21,-390,77,103,279,-260,-927,-143,135,264,-517,-1727,247,195,185,189,541,781190
-199,-27,36,87,34,23,-200,-242,9,457,-299,-112,-283,-320,-28,-402,33,82,261,-193,-888,-104,121,235,-443,-1713,235,199,202,188,435,781191
22,-36,-34,23,29,22,53,-91,-44,242,-5,59,-221,-102,60,-212,-130,-35,22,74,-198,27,45,-3,113,-672,-11,38,88,13,-250,781192
90,-32,-51,8,31,41,141,-58,-61,4,409,55,-289,-11,33,-196,-222,-91,-108,140,68,52,-6,-114,262,-223,-128,-56,-28,-101,-369,781193
65,-28,-26,15,33,62,132,-55,-38,23,434,53,-366,-131,-29,-236,-242,-87,-113,112,37,50,-7,-101,199,-265,-110,-57,-57,-103,-173,781194
19,-19,-17,19,17,44,112,70,-13,85,106,108,-289,-23,-14,-292,-239,-62,-71,89,-37,39,0,-58,123,-402,-60,-30,-47,-79,-125,781195
46,-23,-41,13,11,24,162,82,-5,-32,-81,93,-156,126,-23,-268,-267,-70,-117,135,74,55,-22,-88,212,-207,-101,-64,-67,-102,-186,781196
57,-33,-46,9,7,11,130,-324,31,-31,-98,76,-262,30,-3,-292,-297,-86,-132,118,99,33,-38,-108,209,-142,-105,-86,-95,-123,-241,781197
-101,-25,15,26,9,10,-120,-316,28,9,-22,31,-269,-3,15,-446,-213,20,64,-60,-369,-28,41,99,-168,-843,106,60,9,33,186,781198
-243,-40,48,44,10,19,-293,-339,59,85,-63,-83,89,-57,-19,-601,-141,106,264,-202,-820,-98,125,272,-485,-1584,265,178,128,172,485,781199
-235,-42,34,66,22,21,-211,-212,-3,-49,31,-25,7,-88,-20,-626,-149,85,276,-213,-871,-113,135,259,-468,-1682,232,181,167,168,453,781200
-148,-44,-18,47,13,-8,-20,-92,15,42,4,51,-306,93,-5,-498,-186,32,177,-84,-562,-40,116,146,-184,-1219,128,130,151,110,168,781201
-15,-23,-40,29,19,4,143,-75,-49,64,150,42,-311,18,25,-348,-226,-14,22,67,-136,21,71,16,147,-552,1,52,91,25,-81,781202
-11,-30,-45,13,7,1,43,80,-5,-6,123,29,-134,-83,13,-356,-244,-31,-2,48,-100,-1,46,8,144,-450,-14,26,59,2,-102,781203
20,-31,-34,1,12,12,-38,21,12,175,195,181,-10,45,63,-332,-237,-25,-19,62,-39,13,36,5,180,-327,-15,15,45,-1,-114,781204
23,-25,-34,-6,9,8,-54,52,16,-1,247,186,-105,210,114,-306,-208,1,8,65,-38,48,51,30,181,-303,18,38,70,35,-108,781205
46,-16,-29,5,16,15,8,60,-32,144,164,88,-273,117,9,-296,-202,18,20,71,-12,52,57,42,192,-261,25,41,70,36,-78,781206
53,-22,-35,-14,15,9,70,5,27,86,60,71,-265,-64,-16,-325,-252,-30,-59,61,23,6,11,-32,192,-179,-34,-11,12,-16,-91,781207
22,-35,-31,0,12,1,96,-294,138,-97,-66,-5,-219,31,-3,-386,-288,-69,-82,0,-68,-50,-32,-64,91,-283,-64,-44,-42,-42,-92,781208
-55,-28,-23,32,-12,-20,67,-277,-21,-114,-180,9,-235,33,47,-415,-249,-38,-18,-49,-210,-61,-1,7,-21,-532,-6,-9,-12,-12,34,781209
-59,-11,-11,46,10,-6,21,-284,38,52,-39,105,-200,90,-23,-392,-203,7,45,-39,-256,-26,33,63,-51,-625,52,33,33,40,108,781210
-74,-14,4,42,22,3,-57,-262,-31,117,77,89,-166,-151,53,-390,-186,12,83,-46,-302,-33,21,87,-83,-726,77,63,47,71,86,781211
38,-22,-34,-4,16,14,64,-213,-87,41,96,59,-61,-53,76,-214,-161,-18,-24,126,87,62,28,-22,226,-181,-31,14,11,-1,-213,781212
39,-42,-51,-33,-4,15,80,-93,5,-29,304,41,-72,49,1,-179,-181,-44,-98,132,168,62,-14,-90,259,-14,-87,-48,-80,-72,-192,781213
0,-31,-32,-28,5,22,60,-60,76,47,90,78,-158,-3,64,-203,-151,-29,-71,82,71,47,-13,-66,162,-167,-58,-45,-95,-72,-94,781214
5,-2,-5,7,15,34,91,133,44,86,-72,63,-87,15,67,-204,-118,-4,-27,63,26,52,5,-18,124,-265,-20,-6,-69,-37,-16,781215
15,2,-21,9,15,23,129,138,-42,173,3,114,-9,-31,26,-196,-131,-37,-43,60,57,39,-32,-37,147,-209,-44,-24,-77,-49,-4,781216
-18,-19,-37,-12,-4,3,43,61,-50,27,-119,-16,-135,144,66,-228,-128,-41,-29,9,-41,5,-42,-19,55,-354,-38,-33,-83,-45,-18,781217
-85,-23,-24,-12,-24,-9,-87,37,-31,58,-293,36,-88,-24,-67,-275,-81,13,41,-46,-213,-10,6,43,-88,-637,22,17,-33,-3,131,781218
-191,-44,25,-10,-27,-11,-220,-225,78,-11,-308,-13,-43,-12,-64,-369,-19,68,181,-154,-545,-58,60,176,-327,-1167,170,117,66,106,357,781219
-118,-24,22,15,2,11,-94,-242,44,38,-204,-4,-38,-101,27,-305,-4,61,185,-74,-452,-18,93,171,-214,-1063,163,136,122,124,310,781220
-62,-23,1,8,0,14,4,-156,-58,37,-83,-54,-1,-62,27,-225,-9,54,138,9,-269,28,86,122,-57,-780,107,104,112,93,187,781221
11,-13,-27,-1,1,7,80,-224,-23,-99,-28,-12,20,15,68,-127,-28,23,34,99,-23,63,53,36,128,-388,17,43,81,46,54,781222
24,-15,-38,-4,0,10,37,2,-93,-28,81,117,-89,-57,95,-123,-59,-12,-23,86,48,53,17,-7,151,-254,-28,7,39,-2,-51,781223
44,-10,-31,-2,6,3,7,76,-27,-89,79,91,-81,11,58,-109,-76,-28,-46,92,81,40,2,-23,169,-184,-45,-14,15,-18,-106,781224
32,-12,-14,6,14,-2,15,102,-73,-3,-31,120,7,39,-8,-92,-33,23,8,108,65,55,38,25,153,-218,19,28,44,32,-20,781225
20,-22,-30,2,1,-7,46,144,-70,79,19,95,-119,-76,35,-94,-32,5,15,112,80,61,39,7,151,-179,6,19,31,12,-52,781226
35,-15,-25,2,12,4,53,-69,-65,141,-61,10,-14,-102,16,-111,-60,-30,-30,82,66,37,6,-36,127,-164,-31,-11,-7,-29,-79,781227
2,-21,-18,-1,-2,-6,28,-195,30,-9,11,19,128,96,-37,-142,-52,-14,-33,37,-12,6,-8,-16,47,-284,-18,-9,-16,-19,-8,781228
-9,-8,-3,7,-2,-1,35,12,67,120,110,130,-19,186,11,-127,-27,7,38,53,-39,30,16,39,28,-362,22,32,20,29,1,781229
-7,-8,3,14,-2,10,-16,-32,12,115,-180,205,-57,-92,36,-126,-19,-5,66,36,-59,30,39,37,13,-391,11,44,14,23,44,781230
-5,-16,-14,-5,5,6,-63,-102,21,61,-58,47,3,-149,24,-117,-9,-12,18,17,-46,17,24,6,26,-362,-18,4,-14,-6,-26,781231
44,-8,-3,-4,19,25,-17,33,54,68,-123,32,8,-38,5,-40,1,-18,-53,49,73,17,-11,-40,109,-189,-43,-37,-44,-34,-112,781232
38,-27,-12,-10,3,0,-23,-49,-58,1,21,41,55,80,16,-39,-15,-38,-65,12,52,-17,-57,-56,78,-199,-57,-48,-75,-44,-95,781233
37,-22,-23,-10,-12,-5,19,-17,-69,-77,221,122,174,-1,34,-9,7,-32,-31,16,72,1,-45,-47,99,-163,-52,-28,-68,-41,-116,781234
15,-5,-2,5,1,14,44,98,-28,21,204,21,189,69,121,11,53,-10,3,2,38,11,-13,-21,68,-224,-20,-3,-56,-21,-51,781235
6,-3,0,6,9,11,35,-37,-50,8,42,19,31,115,101,14,73,-1,11,-25,-4,-14,1,-10,27,-299,-12,-1,-54,-13,22,781236
18,3,4,7,10,15,25,-61,63,-19,42,-65,-51,130,26,36,83,3,-9,-7,54,1,-13,-8,68,-232,-24,-2,-55,-12,7,781237
56,-2,-32,-20,5,5,49,133,22,-89,-93,-42,-43,50,-13,99,32,-56,-106,66,244,21,-59,-95,206,100,-113,-61,-88,-75,-193,781238
9,-16,-47,-38,-21,-24,8,39,-79,-89,-204,59,-20,38,-45,69,24,-50,-103,48,198,5,-66,-89,146,66,-92,-63,-91,-75,-140,781239
41,-7,-57,-33,-16,-30,72,-49,-66,5,-210,-28,-30,-92,-52,116,29,-45,-130,101,312,54,-63,-117,238,258,-111,-70,-82,-80,-190,781240
113,2,-57,-36,-15,-18,144,-40,-33,90,167,-15,-8,-110,-31,198,37,-35,-151,179,491,105,-36,-138,362,536,-136,-76,-86,-100,-235,781241
16,8,3,-18,-10,-5,-26,-40,45,71,80,-61,-29,82,-6,55,85,13,0,43,90,31,-1,8,37,-63,14,0,-35,-1,45,781242
-19,5,12,-5,-11,-24,-119,-119,-13,-8,91,-9,-27,96,5,29,121,41,62,31,-40,26,24,72,-48,-288,80,50,21,68,178,781243
-24,5,2,-17,-16,-30,-122,-102,-5,34,88,-3,34,237,50,64,157,88,79,74,-9,66,52,93,-15,-270,89,72,52,81,166,781244
-8,9,-10,-20,-10,-32,-56,-87,3,290,-68,95,31,260,-25,112,192,124,114,137,61,105,92,119,63,-186,97,109,88,108,149,781245
26,11,5,2,9,-10,-51,-41,67,142,-116,126,162,116,-17,103,132,62,52,124,97,78,44,56,88,-127,35,41,39,48,14,781246
43,-3,3,8,14,14,-112,12,40,52,68,26,36,-165,-85,89,82,4,3,98,107,43,-7,-1,85,-86,-9,1,-12,-1,-35,781247
64,-25,13,-22,17,20,-131,228,102,0,19,6,-21,-145,18,120,72,-4,-43,120,184,56,-19,-26,135,54,-46,-26,-33,-30,-139,781248
89,-21,16,-25,15,22,-36,207,145,131,224,-30,-15,31,43,160,78,4,-49,150,269,90,0,-35,203,174,-47,-28,-43,-26,-71,781249
148,1,-23,-22,12,9,138,286,-67,121,154,5,-94,65,10,212,36,-62,-173,170,451,88,-55,-150,324,489,-156,-108,-108,-104,-311,781250
183,14,-41,-26,9,14,207,249,-93,-227,21,17,-79,93,-17,247,10,-97,-246,169,560,66,-99,-220,383,747,-226,-164,-176,-164,-398,781251
39,9,4,-9,-12,-10,4,226,19,-52,10,-12,-42,-1,-42,99,68,-41,-81,-34,126,-40,-77,-75,19,103,-72,-72,-123,-71,-50,781252
-2,3,17,1,-8,-13,-57,36,44,0,-254,55,116,13,-26,75,114,-24,-4,-97,-27,-79,-43,-15,-69,-133,-13,-22,-70,-19,12,781253
11,9,10,-4,-13,-19,-23,112,19,-13,-89,-13,200,19,-29,131,146,3,-8,-78,6,-63,-34,-8,-29,-93,-2,-8,-35,1,-4,781254
10,10,8,8,-6,-10,-5,-10,79,-92,20,-10,45,-168,-17,142,156,19,-7,-76,-3,-53,-26,3,-41,-126,2,7,-16,18,56,781255
28,8,4,13,5,9,11,209,3,-104,-5,58,101,-92,45,161,146,4,-9,-69,11,-49,-26,-7,-15,-97,-13,-5,-20,14,-32,781256
63,11,-10,3,0,8,45,96,-124,20,-79,35,154,-66,61,212,145,-33,-59,-27,129,-28,-29,-64,78,99,-67,-39,-51,-30,-142,781257
-4,12,13,-6,-1,-4,-51,14,-127,130,-96,-26,265,-125,71,150,196,24,5,-76,-48,-48,34,2,-69,-166,3,4,-30,16,53,781258
16,-2,-10,-14,-5,-26,-39,161,-32,107,33,20,-33,71,50,206,216,29,0,7,44,11,44,5,13,-43,10,4,-9,20,-31,781259
1,-8,0,-23,-13,-29,-80,89,-8,134,169,-20,3,79,40,208,225,52,49,21,13,25,32,51,-22,-123,54,45,19,47,81,781260
-25,16,23,11,0,-4,-116,294,-70,35,90,-5,-4,100,33,142,217,44,79,-32,-142,-16,11,76,-153,-361,79,52,27,49,108,781261
51,18,-21,9,16,0,8,221,10,-6,110,16,26,210,4,254,182,3,-27,86,138,50,-16,-24,74,51,-27,-14,-19,-21,-67,781262
90,19,-27,-12,9,5,93,74,-76,-55,-113,23,39,33,-33,320,189,7,-47,151,316,101,-4,-53,198,310,-63,-28,-44,-41,-97,781263
38,32,-1,9,3,6,82,154,-52,-121,-77,-77,99,49,-35,257,207,35,12,91,170,80,24,-3,58,78,-1,2,-21,0,56,781264
13,23,-22,12,-16,-20,84,16,46,-77,-115,-70,139,-99,-48,237,185,8,-27,84,148,57,3,-34,29,63,-18,-25,-35,-20,-23,781265
18,5,-23,2,-15,-19,83,-69,17,-78,-190,25,214,148,-50,247,168,-18,-70,86,169,44,-29,-65,47,114,-55,-52,-61,-46,-70,781266
39,10,-8,-6,-2,-10,84,77,-22,2,70,14,9,101,19,273,188,2,-41,96,204,55,-18,-38,74,156,-47,-33,-46,-36,-74,781267
-101,16,58,-4,-10,-7,-143,128,-39,31,-68,-125,102,34,27,126,236,73,116,-71,-224,-16,26,122,-274,-500,111,70,29,78,318,781268
-327,-22,85,0,-38,-34,-515,-147,2,23,-297,-254,358,-74,-71,-130,284,141,322,-323,-932,-162,70,300,-806,-1642,298,180,142,208,668,781269
-362,-41,76,-1,-51,-31,-634,-201,-17,-221,-223,-198,318,-153,-16,-160,304,141,376,-341,-1063,-171,102,318,-844,-1927,327,215,204,236,622,781270
-331,-46,71,-5,-36,-23,-604,-176,84,-162,-185,-106,194,183,17,-80,370,182,440,-270,-1009,-111,174,376,-755,-1951,369,285,289,278,624,781271
-9,-23,-31,-20,3,0,-102,313,-33,36,172,-26,-133,135,42,315,346,106,214,103,-136,89,143,143,-1,-618,136,190,236,141,50,781272
67,-2,-31,7,19,15,158,321,-46,105,-200,6,65,-21,78,402,337,78,102,130,79,92,113,69,131,-239,66,126,167,90,4,781273
102,25,-24,53,39,9,216,160,-113,11,-205,55,215,175,18,381,282,32,20,98,123,39,57,-5,151,-101,-13,45,89,25,-133,781274
117,9,-56,17,8,-20,181,104,-54,-26,21,-7,195,102,-58,371,216,-35,-81,76,201,-11,-13,-105,176,89,-106,-41,5,-62,-242,781275
109,18,-47,4,2,-18,131,166,-37,57,150,21,-32,17,6,377,221,-31,-89,63,207,-17,-16,-102,158,127,-88,-45,-9,-66,-253,781276
48,24,-5,14,11,3,62,399,71,156,89,2,91,-54,6,323,245,14,-8,10,36,-41,2,-16,20,-120,-8,11,21,-13,-66,781277
-301,-15,98,54,-20,-13,-349,-102,138,42,-161,-301,219,-109,-70,-81,320,127,314,-403,-1001,-262,60,293,-831,-1751,298,191,129,190,756,781278
-879,-50,272,163,-33,-30,-1043,-412,365,113,-531,-502,208,-251,-136,-772,541,393,988,-1038,-2909,-561,289,919,-2263,-4921,895,598,489,639,1940,781279
-859,-63,253,194,-5,-4,-995,-432,330,151,-456,-364,99,-165,-157,-776,579,391,1092,-948,-3064,-497,372,955,-2209,-5440,921,672,643,708,1752,781280
-505,-52,140,184,45,28,-557,-79,213,66,-107,-100,220,-8,-18,-412,498,246,787,-534,-2163,-282,322,641,-1384,-4218,608,500,575,518,1005,781281
76,-37,-72,86,67,50,166,337,-142,52,134,243,29,169,12,243,271,-25,122,115,-376,53,121,16,37,-1450,-2,116,262,61,-331,781282
233,-15,-98,33,67,55,354,166,-58,175,134,171,-4,300,1,434,185,-98,-151,245,238,113,10,-190,398,-392,-194,-41,55,-129,-566,781283
184,-2,-78,31,43,37,332,94,-26,111,345,208,67,204,49,415,182,-77,-125,195,249,108,0,-145,342,-310,-142,-36,17,-106,-392,781284
148,16,-54,39,37,44,280,83,9,59,173,154,32,167,62,368,179,-68,-115,141,188,74,-24,-113,256,-338,-99,-38,-23,-92,-265,781285
131,3,-44,21,32,43,206,296,-16,-59,29,167,16,48,124,333,169,-68,-139,108,139,38,-36,-127,190,-365,-107,-67,-53,-105,-246,781286
104,4,-16,22,40,56,158,353,-91,-198,29,104,94,167,91,320,194,-15,-87,88,88,51,0,-70,126,-452,-69,-34,-33,-66,-205,781287
-66,0,15,26,17,26,-17,338,42,17,-3,58,220,94,52,144,240,47,83,-84,-348,-33,55,66,-234,-1132,56,54,28,24,203,781288
-260,-9,77,72,15,19,-265,54,137,-106,-52,-154,276,19,-20,-112,319,140,350,-313,-1036,-164,137,307,-754,-2246,292,211,166,197,729,781289
-331,-33,98,95,20,34,-346,67,99,-66,-192,-210,204,-85,-43,-225,332,155,468,-388,-1350,-215,173,402,-945,-2816,376,290,251,270,775,781290
-193,-32,66,105,39,47,-157,50,116,-9,-241,-70,35,-3,-51,-97,309,114,377,-232,-1053,-136,162,295,-637,-2424,283,242,269,230,518,781291
118,-17,-36,70,56,49,194,202,-22,46,-27,60,0,72,37,209,156,-45,6,99,-130,11,25,-43,97,-977,-49,14,99,-14,-217,781292
172,11,-45,39,56,52,181,200,33,107,-41,85,122,140,24,291,130,-48,-85,162,154,55,18,-106,251,-496,-110,-20,31,-75,-237,781293
142,15,-48,3,36,20,131,323,-8,77,-74,5,-62,170,78,310,162,-1,-56,171,188,82,62,-52,244,-430,-61,21,46,-37,-192,781294
90,-17,-69,-31,-7,-15,84,3,-187,-82,-238,81,-67,238,61,288,140,-1,-67,145,168,66,19,-49,193,-431,-52,1,25,-36,-161,781295
91,-16,-61,-16,1,0,53,-138,-68,-203,-93,33,-81,165,1,263,107,-17,-90,131,159,43,-7,-65,171,-401,-71,-24,-7,-55,-194,781296
121,-2,-40,6,27,29,46,161,-79,-205,57,26,118,-63,18,253,85,-28,-94,131,172,48,-13,-82,173,-353,-82,-39,-21,-64,-211,781297
0,-23,-7,9,11,17,-70,18,25,-90,164,-53,138,-8,58,116,109,7,11,-20,-157,-33,4,20,-107,-856,29,10,-2,12,110,781298
-333,-22,108,76,4,5,-415,7,163,-39,-44,-190,307,17,-50,-234,276,211,437,-360,-1188,-184,174,423,-894,-2548,415,273,232,299,905,781299
-346,-23,96,96,1,1,-408,-72,244,50,-320,-136,230,103,-54,-240,338,253,552,-321,-1315,-148,258,495,-897,-2879,479,366,356,377,811,781300
-193,-30,28,63,20,14,-229,-41,149,97,-73,21,60,140,-7,-108,264,143,352,-167,-915,-97,199,299,-527,-2298,289,249,283,248,365,781301
71,-16,-36,35,40,34,85,153,1,218,203,154,29,101,39,150,119,-15,11,82,-141,11,77,-19,80,-1077,-19,36,105,3,-264,781302
96,-17,-43,13,29,25,113,137,-29,112,-36,156,36,109,92,196,73,-43,-84,102,30,21,22,-84,172,-741,-81,-24,15,-70,-249,781303
85,-8,-41,8,21,25,51,195,-78,48,-154,135,-71,88,100,188,71,-27,-74,89,33,17,9,-70,155,-701,-66,-28,4,-61,-212,781304
117,-6,-49,-12,15,22,15,181,-129,15,119,67,-52,158,120,210,43,-57,-128,106,134,22,-24,-113,203,-509,-111,-70,-32,-100,-214,781305
97,1,-48,-21,4,6,-42,180,-110,-32,113,49,6,148,70,196,40,-48,-121,84,123,12,-27,-96,179,-496,-95,-65,-47,-79,-188,781306
63,-9,-37,-26,-19,4,-25,-17,-2,16,-18,153,108,209,34,187,55,-1,-94,74,90,15,-10,-53,143,-537,-49,-42,-37,-42,-119,781307
34,-11,-28,-4,-13,14,24,35,-83,-3,-69,5,-76,-125,44,143,77,16,-23,37,-19,-3,11,6,54,-709,8,-2,-1,-4,23,781308
-54,-2,-13,23,1,7,-15,-67,-63,-28,-189,-111,-10,-160,-5,19,63,7,32,-95,-292,-75,16,37,-159,-1117,54,12,4,11,129,781309
-123,-9,2,27,-10,-10,-32,-281,106,-2,-132,-107,123,154,-37,-58,86,42,114,-144,-498,-101,37,121,-305,-1476,122,65,54,69,216,781310
-66,-4,13,58,15,20,88,-278,-27,72,62,-40,291,125,43,-10,81,43,106,-72,-391,-63,42,101,-198,-1348,104,74,74,64,48,781311
58,4,-51,52,13,15,221,3,-137,-75,92,-40,267,46,12,84,-4,-50,-57,53,-16,-2,-22,-58,79,-776,-65,-46,-7,-60,-235,781312
127,12,-63,35,12,22,197,195,-71,-126,258,31,98,-82,37,164,-17,-58,-122,140,241,74,-18,-107,260,-389,-122,-75,-56,-111,-306,781313
108,4,-41,4,18,31,125,-15,-18,-40,1,-24,43,-46,60,171,7,-15,-86,152,262,105,18,-70,245,-369,-72,-35,-44,-77,-180,781314
89,-11,-37,-8,11,19,86,-55,-23,34,136,20,-153,124,26,128,-13,-35,-88,122,218,76,-6,-75,197,-407,-74,-56,-55,-86,-180,781315
94,-9,-30,-13,3,24,100,63,-24,155,218,55,-170,121,-30,117,-11,-27,-95,115,238,94,-14,-78,203,-373,-78,-52,-59,-80,-118,781316
87,7,-27,-7,7,14,130,100,20,1,234,70,86,-60,13,137,10,8,-67,134,238,126,18,-54,209,-358,-45,-33,-36,-56,-64,781317
-31,-1,19,13,-2,15,-45,-92,116,-6,149,9,-8,-28,-2,-34,34,52,54,-41,-181,23,38,72,-134,-998,87,35,1,27,253,781318
-151,-22,53,20,2,27,-243,-102,114,66,-66,-138,121,-179,9,-216,30,45,163,-223,-645,-111,35,158,-472,-1736,167,83,44,91,381,781319
-163,-27,63,36,6,35,-254,58,111,11,-151,-86,114,-39,21,-241,48,68,209,-232,-749,-132,65,197,-498,-1938,200,115,111,134,406,781320
-91,-30,14,33,3,25,-135,-69,35,7,-175,-68,22,31,24,-133,52,65,187,-99,-521,-74,77,168,-261,-1617,155,122,141,121,238,781321
75,-9,-41,26,10,23,124,109,-90,3,11,74,19,23,120,89,2,-2,8,117,49,40,48,-13,188,-718,-25,25,71,9,-103,781322
82,1,-48,20,3,16,183,194,-91,-52,-45,73,32,102,70,115,-24,-22,-67,120,172,39,26,-72,257,-465,-75,-21,3,-58,-220,781323
56,-8,-32,25,11,23,165,151,-41,9,-124,78,-120,82,6,65,-66,-59,-107,59,100,-21,-18,-91,176,-512,-100,-62,-50,-91,-227,781324
25,-25,-22,16,0,13,115,166,15,-91,-83,-2,45,6,37,5,-91,-81,-119,1,3,-68,-55,-104,82,-625,-101,-87,-62,-97,-193,781325
28,7,-12,24,12,18,144,40,64,-1,63,-64,-155,10,34,28,-38,-29,-43,21,2,-38,-3,-54,71,-638,-44,-22,-16,-41,-57,781326
19,8,-28,21,6,-4,140,-163,-6,44,0,-95,32,-2,69,14,-38,-30,-61,3,-18,-42,1,-45,50,-663,-47,-40,-25,-44,-19,781327
6,14,-36,23,-9,-6,67,-203,-89,-44,-5,-30,-72,-25,38,-11,-26,0,-20,-11,-79,-46,2,-1,1,-779,13,-10,0,-8,79,781328
-87,-7,-13,7,-25,-4,-53,-247,-92,1,-44,22,-166,-108,-28,-87,38,68,132,-63,-320,-48,57,128,-178,-1181,134,101,93,99,249,781329
-85,-5,5,3,-2,1,-55,3,75,-7,-16,72,18,6,-50,-65,77,125,203,-24,-337,-1,116,192,-157,-1275,189,151,161,159,297,781330
-83,-21,-20,6,-12,-21,-28,-7,146,28,133,13,187,-64,25,-92,24,67,142,-44,-308,-15,81,125,-137,-1268,114,93,107,100,137,781331
24,-8,-42,11,0,-9,101,-152,-11,17,33,127,163,83,42,12,-26,-5,0,72,26,58,39,-13,122,-776,-15,13,38,-6,-150,781332
66,-6,-47,-1,9,-8,107,-103,-118,-117,256,167,-110,82,6,39,-68,-38,-90,90,178,89,-17,-92,198,-533,-74,-61,-43,-73,-204,781333
38,-18,-47,-16,-11,-3,42,-163,-101,25,156,72,-20,-47,16,-36,-125,-78,-123,27,136,47,-80,-114,111,-576,-102,-109,-99,-121,-195,781334
79,8,-13,2,26,29,67,98,-24,94,180,131,163,-61,2,23,-101,-43,-100,87,226,105,-34,-81,193,-428,-72,-61,-71,-88,-203,781335
51,-7,-4,-10,11,14,33,10,157,66,101,28,161,32,83,-3,-76,-16,-71,59,181,109,-8,-50,154,-519,-48,-26,-56,-61,-95,781336
30,-11,-18,-22,-6,3,48,-6,83,35,128,4,-10,125,41,-21,-86,-30,-86,46,187,96,-19,-55,133,-532,-72,-51,-62,-79,-102,781337
65,-11,-39,-33,-9,-7,98,125,-18,-61,31,61,-173,128,17,33,-92,-34,-108,96,290,109,-40,-71,230,-337,-89,-65,-61,-87,-138,781338
113,0,-59,-39,-8,1,163,-190,-23,-22,-12,153,-84,0,21,92,-130,-66,-163,146,435,95,-71,-141,353,-36,-150,-103,-92,-120,-254,781339
131,16,-49,-26,2,19,178,-87,93,15,2,137,50,40,44,91,-162,-97,-211,139,458,65,-90,-175,354,80,-173,-144,-125,-150,-357,781340
119,1,-43,-26,-2,6,143,-79,119,-176,-93,50,27,-51,-8,65,-182,-99,-234,114,420,27,-113,-183,322,86,-175,-164,-146,-157,-312,781341
11,-21,-13,-33,-26,-17,-3,34,82,-275,-83,0,-33,-107,7,-39,-122,-31,-97,6,92,-25,-55,-59,70,-377,-41,-79,-82,-64,-40,781342
-28,-8,-6,-16,-20,-1,-32,-69,52,-348,29,-34,58,57,34,-59,-64,6,19,-12,-44,-30,23,27,-17,-608,44,-3,2,18,41,781343
-9,-28,-26,-32,-13,-6,8,-112,50,-139,78,-17,-127,29,-58,-55,-97,-32,-57,-3,-9,-61,-20,-36,33,-543,-34,-43,-31,-35,-39,781344
27,-12,-22,-31,-5,9,67,-84,28,-144,22,-70,-100,-92,36,-29,-118,-34,-91,31,63,-54,-53,-65,97,-439,-72,-64,-54,-53,-87,781345
41,6,-19,-11,10,13,99,-82,1,-24,-64,-83,8,-127,85,-14,-100,-9,-69,60,99,-23,-19,-28,113,-409,-40,-28,-25,-23,-67,781346
36,23,-9,26,18,14,98,1,13,85,-5,-34,130,-1,26,-28,-82,-13,-32,51,59,-21,11,-15,96,-452,-31,-14,-1,-18,3,781347
84,20,-15,24,24,23,115,-22,-86,61,15,67,152,196,-5,16,-100,-39,-67,83,167,2,-21,-58,188,-277,-59,-42,-23,-42,-162,781348
193,7,-71,-17,9,16,281,28,-27,190,91,89,-111,80,48,157,-149,-85,-216,211,572,77,-92,-183,488,382,-187,-123,-109,-137,-486,781349
202,26,-68,-41,4,5,353,214,10,224,174,109,-319,8,51,216,-116,-60,-240,264,719,134,-65,-188,575,633,-191,-124,-122,-133,-450,781350
175,19,-63,-59,-12,-14,314,399,-102,58,201,133,-179,-88,-43,189,-129,-61,-249,235,713,130,-56,-199,532,647,-200,-140,-143,-150,-337,781351
-2,18,-1,-37,-18,-20,12,82,-14,-108,23,13,29,7,-56,-39,-104,-11,-93,-5,190,34,-30,-46,87,-141,-45,-62,-108,-62,15,781352
-32,0,-3,-43,-26,-38,-105,-125,-46,-110,35,-101,-76,249,-20,-86,-117,-18,-41,-30,98,30,-51,-25,30,-336,-22,-34,-80,-30,0,781353
-20,-14,-14,-56,-34,-24,-109,-36,-67,-16,-49,-65,-131,77,14,-71,-112,-22,-13,-18,143,49,-42,-10,68,-336,-25,-17,-62,-22,-10,781354
-2,-4,-7,-39,-20,8,-78,168,-87,-31,99,-17,-100,-77,41,-65,-95,-19,-26,-12,171,64,-15,-11,88,-303,-39,-25,-65,-36,25,781355
-34,-7,14,-20,-3,9,-117,-94,-19,8,-73,19,78,-118,7,-117,-78,4,12,-63,42,41,0,22,-16,-511,8,-7,-44,-11,130,781356
-32,-8,6,-12,-10,-12,-56,-194,54,45,-65,2,-14,65,43,-96,-83,-2,1,-34,69,47,-5,9,19,-474,3,-12,-40,-14,120,781357
219,26,-67,-26,3,3,316,191,-267,-73,36,183,-212,59,79,210,-149,-92,-251,286,835,200,-72,-235,648,743,-243,-147,-122,-171,-507,781358
590,51,-169,-85,21,21,726,350,-367,-152,363,400,-320,85,79,623,-289,-256,-669,673,1981,364,-219,-620,1502,2672,-609,-399,-354,-454,-1224,781359
561,40,-163,-137,-8,6,659,353,-314,-161,432,249,-144,11,83,610,-347,-298,-776,604,2063,296,-296,-682,1463,3021,-662,-491,-483,-531,-1197,781360
388,37,-95,-138,-26,-3,394,272,-236,-60,232,-4,-128,-168,18,414,-295,-210,-593,377,1571,165,-271,-506,1004,2386,-488,-395,-442,-421,-734,781361
22,26,43,-73,-22,-6,-87,-44,-3,-101,-272,-158,-88,-257,-102,3,-127,1,-122,-25,408,-33,-117,-60,80,591,-50,-115,-212,-80,146,781362
-51,17,74,-42,-11,0,-188,46,93,23,-134,-206,-10,-254,-80,-119,-77,38,23,-105,5,-84,-55,74,-160,-80,66,-32,-85,45,295,781363
-28,11,56,-37,0,-4,-131,51,20,-39,-265,-242,23,-162,-28,-87,-69,40,30,-58,14,-59,-32,65,-103,-105,52,-16,-48,44,132,781364
-50,3,36,-25,-18,-22,-93,-65,-49,54,-177,-173,-105,-174,-36,-81,-56,45,51,-54,-13,-43,-7,65,-97,-185,46,8,-11,45,164,781365
-55,6,29,-7,-32,-32,-48,-112,-34,52,91,-132,88,-86,-151,-93,-57,41,57,-65,-53,-41,-23,62,-97,-262,46,9,2,41,192,781366
-51,7,3,1,-36,-53,-13,-140,104,119,35,-48,-17,-268,-138,-90,-92,-2,20,-55,-28,-58,-56,13,-68,-224,22,-21,-13,10,82,781367
101,22,-16,-11,-9,-36,144,145,83,247,233,135,-21,-154,-58,85,-134,-59,-139,125,421,42,-87,-130,295,465,-118,-104,-74,-83,-265,781368
330,31,-75,-61,3,-8,363,321,-50,45,117,289,-65,-41,25,334,-219,-165,-436,352,1144,163,-176,-378,831,1648,-383,-281,-232,-268,-759,781369
377,36,-102,-86,-7,-15,379,138,-130,10,334,165,-79,-141,70,398,-239,-184,-520,386,1373,194,-201,-449,948,2091,-439,-346,-313,-318,-768,781370
295,46,-68,-81,-13,-8,243,225,-22,0,130,109,-140,-35,49,344,-194,-132,-418,314,1221,176,-163,-331,778,1922,-342,-275,-290,-257,-474,781371
-35,31,52,-51,-30,-22,-156,-46,82,-74,-10,-108,-3,-167,7,-1,-70,34,-56,-38,278,15,-55,14,22,464,17,-49,-137,-5,295,781372
-117,-1,61,-34,-38,-22,-216,-143,122,113,-85,-171,50,-148,15,-123,-35,69,53,-134,-85,-38,-23,102,-207,-166,113,15,-49,80,294,781373
-70,1,54,-16,-16,7,-144,-11,80,-5,98,5,176,-106,-24,-86,-35,36,17,-85,-3,-2,-15,58,-113,-73,52,-17,-54,48,226,781374
-58,11,53,4,-2,7,-116,150,138,31,13,-33,104,-141,-19,-95,-41,24,34,-88,-27,-12,-4,41,-117,-133,42,-18,-56,34,173,781375
-29,14,28,-9,-7,-18,-50,70,-49,-12,110,49,114,-69,21,-64,-67,11,-4,-48,56,-9,-30,1,-39,-23,15,-36,-55,4,44,781376
7,16,23,-18,-19,-13,-20,82,-2,-8,124,39,-1,60,-25,-3,-49,23,-9,4,157,29,-25,10,47,116,18,-13,-33,13,16,781377
143,21,-33,-41,-10,-14,144,144,30,2,142,128,55,10,-7,177,-62,-24,-121,195,601,122,-34,-96,409,801,-101,-65,-61,-51,-339,781378
430,35,-120,-92,-8,-9,453,276,-179,-100,197,175,-79,116,58,502,-193,-173,-468,513,1551,269,-159,-422,1122,2374,-414,-272,-246,-293,-960,781379
437,51,-101,-108,-5,-7,346,213,-300,-104,306,159,-42,44,52,493,-250,-205,-570,455,1627,233,-228,-503,1094,2657,-486,-358,-360,-374,-925,781380
250,35,-59,-104,-39,-24,75,114,-139,-146,187,98,-129,-90,-26,328,-209,-151,-432,255,1212,139,-197,-365,708,2092,-352,-294,-336,-277,-487,781381
-78,17,24,-84,-67,-54,-298,-160,16,-168,-21,-30,-99,-113,-35,21,-50,35,-53,-53,304,13,-60,4,3,677,1,-49,-134,-17,187,781382
-118,10,49,-51,-52,-41,-204,-155,-33,-24,115,-97,39,-154,-58,-46,-8,86,85,-96,42,-5,-17,104,-148,203,101,31,-14,82,265,781383
-72,16,48,-22,-25,-20,-14,-290,59,-29,10,-197,213,-168,-86,-70,-52,19,39,-105,31,-34,-54,39,-138,172,41,-16,-38,38,124,781384
-51,39,50,13,1,8,44,-242,76,-246,-46,-114,114,-277,-77,-64,-43,17,48,-85,47,-27,-29,43,-98,169,47,-5,-28,36,103,781385
-27,27,41,4,-1,11,30,-17,87,-227,-185,-126,16,-37,-42,-36,-16,32,60,-48,84,15,9,59,-43,200,50,16,8,51,106,781386
-5,2,35,-17,-6,9,-44,209,-35,-89,-139,-119,-47,-94,-22,-3,-12,36,60,-17,123,35,14,56,8,253,47,24,25,58,80,781387
48,12,12,-24,6,7,-3,-10,10,-30,-113,30,24,-170,-68,84,-45,-2,-24,67,347,82,-20,-36,193,617,-49,-28,-12,-9,-173,781388
167,26,0,-31,20,8,97,68,-22,-32,85,56,101,-84,31,187,-97,-66,-171,187,688,121,-61,-160,444,1169,-176,-110,-100,-105,-363,781389
247,22,-37,-52,0,-2,193,137,-156,-81,-65,7,18,-24,60,269,-149,-115,-295,234,938,128,-131,-276,603,1640,-268,-201,-199,-191,-512,781390
208,43,-32,-40,-10,-12,186,153,-53,-7,80,-38,-79,65,3,227,-141,-96,-269,182,833,88,-134,-241,472,1544,-228,-189,-210,-169,-276,781391
-11,29,35,-28,-26,-16,-33,-55,138,40,-33,-128,-50,-43,-62,-13,-59,11,-53,-50,191,-30,-65,-25,-37,575,-21,-62,-123,-14,226,781392
-69,32,59,2,-20,-9,-64,-13,114,119,-214,-122,-39,-156,-62,-76,-21,49,59,-74,-36,-51,-14,63,-164,192,68,11,-33,68,194,781393
-52,17,27,3,-27,-35,-21,-29,100,-18,-51,-26,-68,-69,-51,-56,-49,9,31,-27,7,-55,-38,11,-85,241,8,-17,-38,31,59,781394
-39,14,14,-4,-31,-45,13,-248,105,23,-202,-88,-11,-88,-12,-27,-45,6,12,6,64,-36,-43,-8,-39,309,-14,-30,-46,20,58,781395
1,35,12,9,-13,-26,64,-22,-28,6,36,-131,45,-91,-22,37,-36,7,36,73,162,2,-21,7,49,458,1,-14,-34,24,-23,781396
-8,11,12,-10,-14,-21,12,-213,-53,-75,-42,-25,-159,44,-72,13,-49,-17,32,37,133,-20,-35,4,30,428,-4,-11,-42,12,-31,781397
71,23,9,-14,9,5,71,-137,-32,87,-57,-35,21,77,9,63,-73,-50,-53,81,293,19,-62,-82,161,664,-77,-70,-63,-50,-274,781398
285,34,-61,-41,23,11,375,201,-164,49,231,42,71,104,80,301,-153,-142,-330,297,968,143,-132,-331,671,1772,-319,-239,-199,-230,-690,781399
278,38,-65,-45,3,-3,402,147,-154,17,244,85,-115,54,63,332,-137,-112,-341,284,1057,145,-132,-316,679,1956,-308,-222,-228,-223,-555,781400
159,42,-28,-40,-22,-29,302,-44,-63,234,102,71,-115,127,16,242,-94,-62,-235,162,821,105,-88,-216,444,1612,-205,-166,-194,-157,-368,781401
-43,36,23,-8,-32,-38,68,-377,107,56,86,-57,-16,-66,-76,19,-40,-2,-64,-66,263,-13,-51,-50,1,755,-36,-76,-114,-44,46,781402
-75,27,34,4,-27,-38,-45,-218,21,42,170,-72,-146,-157,-3,-23,-19,26,0,-90,106,-16,-47,13,-85,483,21,-41,-54,15,101,781403
-46,24,36,-16,-22,-21,-147,-77,34,-125,101,14,-14,-248,59,17,13,69,52,-49,109,34,-7,62,-55,458,67,17,9,66,157,781404
-26,19,47,-31,-15,2,-200,-5,25,126,-59,6,41,24,-11,2,16,56,65,-67,77,24,21,74,-77,410,57,28,17,65,151,781405
-25,-1,37,-43,-21,-16,-214,-90,-20,187,68,90,87,81,15,-38,-13,28,42,-102,14,-16,-15,38,-113,319,44,-7,1,39,139,781406
-34,11,26,-34,-30,-27,-124,-107,97,26,107,89,-35,77,51,-20,-23,38,49,-81,23,-1,-31,24,-87,343,35,13,3,42,58,781407
-38,-5,15,-27,-36,-33,-7,-158,73,-174,76,-71,-28,30,-65,16,-3,31,52,-45,86,13,4,29,-28,418,31,25,9,41,55,781408
92,23,-1,3,8,5,172,69,-1,-184,215,-58,5,236,-62,135,-27,-15,-63,83,400,75,-8,-76,229,905,-64,-48,-27,-32,-156,781409
147,44,-9,16,12,31,196,158,-28,-17,3,-37,59,37,3,133,-120,-104,-201,77,527,41,-113,-203,290,1173,-190,-153,-147,-144,-370,781410
126,26,12,-6,13,18,79,-58,-26,-44,-38,-14,20,88,-13,104,-115,-83,-191,49,459,11,-114,-173,213,1089,-151,-148,-168,-128,-252,781411
9,14,46,-8,2,7,-85,-128,30,-55,-174,-63,34,127,-71,13,-25,19,-4,-20,146,-19,-35,-6,-37,580,1,-42,-80,0,113,781412
-50,10,40,-15,-17,-4,-91,33,63,-135,-120,-123,125,72,-115,-23,4,31,80,-23,23,-30,0,46,-114,356,44,25,-15,47,161,781413
-43,15,40,-6,-15,-7,-40,175,81,18,-148,-133,65,-17,-127,9,6,38,99,6,6,-14,10,61,-92,324,68,55,18,68,104,781414
-72,8,36,-4,-15,-15,-33,-221,18,47,-119,-128,-29,-104,-67,-16,10,34,117,-18,-63,-34,-8,73,-130,200,86,55,15,78,118,781415
-78,23,30,1,-10,-21,-43,-40,-4,-43,-84,-74,11,-147,-85,-22,12,45,109,-17,-76,-34,0,71,-145,153,88,39,19,76,126,781416
-12,29,30,9,13,-4,-73,-59,-64,-19,-236,-51,-27,-215,-90,-6,2,31,78,-1,-35,-35,-9,31,-99,213,59,21,7,49,65,781417
129,28,1,3,29,26,37,35,77,-15,-141,-11,86,-97,-38,127,-32,-13,-2,140,332,60,-23,-53,210,766,-32,-19,-6,-3,-259,781418
203,11,-18,-22,16,16,145,7,-45,1,30,-23,-1,54,76,237,-29,-28,-114,226,640,131,-29,-129,434,1273,-119,-72,-54,-62,-383,781419
200,18,-17,-27,11,-8,197,8,-66,-99,285,45,-91,41,79,250,-25,-14,-137,207,688,133,-39,-141,435,1391,-133,-83,-84,-67,-279,781420
93,28,3,-18,-2,-8,152,-10,-20,-129,-42,51,81,106,-2,127,-32,-8,-89,71,428,71,-50,-92,202,1038,-91,-68,-94,-54,-122,781421
-35,35,41,9,0,-8,-20,79,-94,-35,-164,-171,116,-34,-95,-56,-31,-3,2,-122,16,-34,-67,-6,-142,398,1,-28,-67,-10,68,781422
-65,15,32,-4,-14,-22,-166,-54,95,62,-131,-58,148,-119,-58,-90,-36,-4,27,-145,-68,-45,-60,6,-183,247,7,-10,-39,-1,108,781423
-79,14,39,-17,-21,-23,-261,-125,52,51,-89,19,85,-94,-20,-83,2,28,90,-129,-93,-12,-1,55,-189,181,57,42,14,40,209,781424
-53,-1,38,-25,-15,-18,-218,28,-41,20,-9,95,154,130,42,-26,48,56,129,-80,-23,36,48,86,-115,240,93,80,62,81,88,781425
-38,-3,37,-23,-11,-11,-98,90,-13,123,89,8,221,-111,-36,3,37,41,101,-53,44,43,28,52,-55,337,74,57,43,64,30,781426
-49,6,21,-11,-17,-14,-21,126,-24,17,121,-47,114,-40,-20,-45,-3,7,24,-92,5,-4,-23,4,-102,287,39,-2,-14,27,18,781427
22,6,-22,-8,-19,-17,63,156,-15,-109,133,-80,47,-11,52,10,-46,-49,-68,-24,184,15,-55,-88,47,577,-72,-68,-59,-37,-152,781428
79,12,-13,-17,-14,-13,85,133,-70,-207,148,-62,6,0,-6,77,-64,-56,-95,36,352,40,-44,-121,176,847,-114,-92,-82,-76,-210,781429
54,5,-1,-18,-6,-9,15,93,-5,-218,134,-37,54,-16,-49,45,-60,-56,-90,5,286,7,-54,-107,114,785,-104,-82,-98,-78,-123,781430
23,-1,4,-31,-15,-17,-91,-3,-152,-17,-79,-46,-5,-66,-7,14,-54,-46,-53,-28,180,-24,-79,-75,36,655,-63,-62,-85,-62,-122,781431
-33,-9,13,-24,-27,-19,-174,47,-176,179,-140,7,-84,-7,15,-22,-27,0,36,-66,1,-61,-50,9,-91,372,19,-13,-36,3,94,781432
-20,13,13,-16,-12,-11,-127,147,-78,18,30,23,-113,37,-18,13,15,36,81,-17,-10,-36,15,50,-59,351,55,32,10,45,101,781433
14,13,13,-1,-3,0,-25,-113,38,-22,97,48,2,113,3,42,25,44,64,30,32,-33,22,35,-7,429,54,30,13,54,75,781434
2,14,26,18,4,-3,9,-169,-69,-111,69,52,77,95,3,21,29,47,84,5,-62,-56,18,56,-66,301,77,42,32,74,83,781435
-2,13,10,21,-3,3,40,67,18,-82,-26,-46,2,-67,-14,16,-2,15,66,8,-51,-67,-19,32,-50,312,55,22,12,58,40,781436
8,17,3,20,6,3,61,31,-47,56,84,-9,57,53,40,17,-1,11,58,16,-29,-50,-15,20,-25,343,40,17,12,47,8,781437
31,24,-16,18,1,-11,109,-18,17,-16,129,-64,74,129,41,11,-62,-64,-67,0,71,-55,-61,-116,32,511,-111,-87,-77,-83,-135,781438
167,42,-36,-4,25,4,258,39,85,-99,281,46,-8,-7,-12,159,-105,-114,-208,122,459,42,-108,-225,323,1134,-222,-166,-146,-162,-362,781439
165,32,-46,-28,5,10,261,-57,50,-122,11,69,15,4,-145,176,-111,-99,-232,126,552,76,-132,-217,354,1294,-202,-182,-169,-168,-340,781440
145,46,-14,4,10,12,242,-74,82,8,27,24,84,129,28,173,-61,-29,-166,118,503,109,-77,-136,304,1231,-113,-115,-129,-103,-216,781441
-5,27,20,6,-10,-18,77,-26,81,146,-92,-135,3,117,102,34,1,28,-22,-29,118,37,-27,2,-18,616,24,-31,-55,2,93,781442
-73,24,15,6,-28,-35,4,-179,33,-11,-107,-28,-145,12,-11,-15,29,51,73,-65,-41,17,10,63,-123,321,80,33,7,50,123,781443
-65,6,8,11,-29,-35,-23,-243,-90,172,274,80,-2,-73,-8,-34,20,39,85,-72,-66,14,12,57,-128,253,60,36,20,48,157,781444
-36,4,27,12,5,-8,-19,-65,163,105,248,30,46,-93,-75,-63,-25,0,35,-91,-67,-12,-36,10,-137,258,7,-15,-16,10,93,781445
-53,14,34,8,11,5,-57,-62,140,-110,-11,-6,-29,-86,-29,-99,-45,-35,12,-128,-123,-47,-46,-10,-177,199,-7,-25,-35,-22,56,781446
-33,29,39,17,26,30,-65,-74,-6,-163,-168,12,-59,97,23,-62,-4,3,42,-82,-86,-22,4,37,-142,211,29,11,11,16,125,781447
122,29,-16,-6,27,28,102,51,-43,-93,-24,-12,50,324,101,141,-17,-20,-62,112,360,102,-4,-73,231,890,-68,-40,-8,-39,-231,781448
390,48,-107,-50,27,20,435,216,-177,-72,318,131,53,253,105,477,-83,-108,-339,448,1234,270,-87,-334,908,2298,-319,-182,-138,-217,-785,781449
524,55,-147,-109,10,-5,607,258,-246,-190,588,270,-164,236,90,664,-156,-175,-531,605,1788,337,-176,-501,1275,3280,-477,-307,-272,-356,-1084,781450
397,42,-95,-134,-22,-10,441,30,-264,-171,281,108,-62,22,-1,533,-155,-151,-488,430,1544,231,-200,-443,996,3034,-410,-318,-334,-334,-789,781451
-66,16,52,-67,-44,-29,-91,-204,46,8,-12,-21,-68,-201,-28,22,-9,26,-34,-90,172,-42,-76,-10,-116,950,19,-66,-149,-31,162,781452
-138,16,77,-28,-17,-28,-135,-230,-49,12,66,-1,137,-116,2,-72,22,53,102,-167,-155,-84,-32,76,-307,394,91,3,-35,58,328,781453
-86,32,61,-16,-4,-19,-111,-58,-112,-11,106,-69,21,-11,29,-67,-4,28,63,-155,-143,-91,-46,45,-257,395,67,-6,-19,44,219,781454
-43,13,29,-22,-8,-13,-145,8,-7,1,-89,-30,-62,28,-9,-67,-46,-19,-3,-142,-103,-91,-74,-9,-195,461,4,-38,-46,-2,101,781455
-33,5,48,-11,0,2,-148,-184,45,27,-373,-56,17,121,-17,-57,-25,-3,16,-145,-113,-78,-42,10,-192,423,6,-17,-24,6,83,781456
-40,0,28,-17,-13,-11,-84,-58,30,51,-180,-80,293,29,33,-26,3,17,35,-103,-59,-46,-5,18,-137,469,15,-5,4,23,55,781457
393,49,-83,-37,26,13,486,328,-155,1,378,217,-92,130,64,463,-115,-143,-358,408,1203,216,-112,-370,903,2433,-370,-224,-142,-212,-927,781458
1120,102,-313,-150,59,32,1356,569,-441,-97,648,469,-245,338,134,1286,-413,-478,-1217,1183,3523,591,-419,-1155,2629,6241,-1128,-751,-615,-800,-2390,781459
1187,121,-306,-213,32,10,1406,737,-419,-129,679,413,-192,190,205,1440,-457,-492,-1394,1249,4060,633,-505,-1257,2844,7349,-1212,-875,-836,-924,-2353,781460
869,117,-176,-218,-4,-20,960,568,-266,-182,477,219,58,-43,138,1122,-372,-340,-1140,867,3303,435,-472,-970,2088,6424,-911,-748,-822,-753,-1538,781461
-132,50,125,-122,-82,-66,-284,-121,160,-42,-365,-230,392,-64,-156,-8,-74,59,-128,-247,349,-140,-200,-14,-289,1881,34,-182,-408,-87,620,781462
-272,44,178,-38,-40,-25,-481,-198,267,6,-499,-243,350,-106,-123,-216,46,143,236,-357,-409,-187,-42,247,-688,544,266,49,-103,169,761,781463
-205,21,138,-27,-40,-39,-385,-106,166,25,-220,-280,157,-148,-123,-146,58,115,230,-248,-335,-131,-2,201,-517,562,218,69,-18,151,499,781464
-206,0,102,-16,-56,-61,-319,13,114,107,-141,-309,97,-114,-138,-135,44,92,204,-219,-338,-120,-13,162,-474,492,176,59,4,131,479,781465
-163,23,87,11,-32,-52,-229,-41,52,-74,41,-152,73,-53,-73,-74,23,74,160,-139,-210,-83,-16,114,-330,634,123,45,15,101,279,781466
-105,29,89,17,-12,-29,-166,-233,-9,-102,126,-155,216,-59,-58,-30,16,42,136,-84,-99,-54,-8,83,-213,761,87,32,17,71,183,781467
163,45,4,-28,14,-6,162,25,-85,-112,270,68,94,-31,8,235,-57,-56,-115,200,607,84,-73,-146,375,1863,-131,-113,-71,-76,-385,781468
676,83,-157,-112,39,8,801,341,-258,110,482,414,-97,95,172,848,-225,-261,-687,774,2247,386,-252,-670,1625,4513,-636,-445,-342,-438,-1514,781469
1073,126,-250,-177,46,24,1255,583,-346,45,397,504,-112,384,197,1324,-399,-434,-1197,1171,3637,588,-431,-1118,2578,6897,-1075,-755,-656,-793,-2154,781470
756,114,-144,-186,-15,-4,823,347,-192,-240,253,257,-48,156,88,1004,-352,-313,-1031,755,2972,382,-440,-898,1850,6115,-844,-694,-711,-689,-1293,781471
-179,58,138,-87,-82,-68,-329,-295,91,-282,-341,-274,204,-330,-95,-4,-10,119,-37,-271,234,-112,-141,77,-354,1875,121,-88,-246,-5,616,781472
-259,41,159,-27,-56,-50,-414,-498,211,-62,-360,-230,74,-354,-43,-137,72,172,242,-348,-302,-118,-16,255,-612,902,276,82,12,183,671,781473
-174,49,129,-11,-27,-22,-337,-454,153,-48,-250,-192,31,-264,-3,-101,52,125,224,-300,-233,-90,-3,194,-489,919,201,74,65,156,516,781474
-188,24,102,-26,-40,-38,-352,-59,72,-61,-151,-222,34,-176,-44,-113,67,131,251,-286,-287,-79,24,205,-483,776,214,116,127,171,538,781475
-198,9,90,-28,-39,-44,-330,-142,36,-37,-19,-109,-84,9,-127,-105,86,137,228,-268,-310,-74,55,192,-456,706,194,124,152,172,489,781476
-196,28,94,-7,-32,-29,-263,-187,169,-5,83,-64,8,-73,-83,-95,98,148,234,-251,-326,-59,78,197,-439,622,207,141,168,185,445,781477
173,52,-16,-35,-8,-18,208,194,-118,18,181,158,105,51,31,324,0,3,-77,202,727,158,-12,-119,433,2249,-104,-41,39,-9,-362,781478
415,73,-71,-74,4,-3,466,428,-162,6,183,255,-15,169,47,590,-134,-122,-409,451,1523,257,-156,-408,984,3595,-374,-253,-183,-252,-785,781479
279,60,-27,-84,-18,-12,258,205,-83,-37,97,72,-11,-94,-32,443,-130,-105,-360,286,1237,155,-160,-323,685,3264,-297,-242,-235,-233,-455,781480
60,32,46,-74,-31,-26,-79,115,-133,-134,100,-44,17,-183,-42,169,-63,-9,-149,27,533,-4,-127,-105,110,2208,-80,-135,-165,-86,32,781481
-83,22,104,-46,-33,-16,-277,-112,76,5,-9,5,35,-123,-22,-27,2,74,64,-122,-13,-81,-56,81,-287,1313,93,-9,-57,57,337,781482
-100,26,93,-22,-28,-14,-213,-91,66,-2,-42,-54,167,-138,-47,-40,23,70,127,-111,-102,-69,-20,108,-305,1118,118,37,3,97,270,781483
-80,36,83,11,-17,-10,-108,44,143,34,-85,-170,207,60,-29,-19,35,56,116,-66,-64,-42,4,93,-243,1150,100,41,27,84,228,781484
-97,28,62,2,-23,-44,-95,-106,65,-150,37,-10,158,-9,-61,-42,-5,35,75,-76,-112,-65,-37,53,-257,1073,84,9,12,58,162,781485
-121,32,74,2,-14,-32,-154,-209,127,-140,-147,-49,-8,-7,-30,-46,25,66,126,-85,-182,-53,-10,103,-284,931,123,46,51,94,215,781486
-128,10,64,-18,-23,-29,-224,-218,184,-124,-200,-127,127,-49,-72,-40,55,83,176,-81,-224,-31,25,155,-289,814,167,93,107,126,283,781487
-36,22,39,-20,-13,-22,-97,-203,12,-45,-24,22,-60,2,10,62,33,60,102,25,26,33,17,87,-70,1181,83,58,97,74,38,781488
-66,15,56,-24,-18,-26,-131,-160,27,-81,-263,31,-173,-186,-64,7,2,43,64,-48,-45,-28,-14,47,-158,1096,63,18,41,46,143,781489
-276,-6,109,2,-25,-40,-375,-413,95,-79,-106,-147,-63,-37,-106,-244,82,124,289,-292,-695,-145,69,258,-656,28,253,161,142,181,584,781490
-220,12,92,28,-7,-23,-301,-54,167,24,-17,-88,225,9,-1,-212,80,97,289,-232,-613,-97,84,228,-530,81,216,167,195,174,343,781491
-60,28,47,21,9,-7,-168,131,174,3,-18,-37,75,-21,-27,-53,21,27,113,-88,-179,-33,45,70,-175,742,63,75,137,74,-22,781492
-95,13,44,19,-4,-14,-266,14,86,26,-373,-57,-1,-113,5,-79,5,29,66,-143,-208,-55,14,66,-220,709,58,50,113,52,112,781493
-140,4,60,6,-9,-20,-304,-49,48,-117,-237,-31,-14,-74,67,-83,55,77,135,-164,-278,-30,58,133,-266,586,121,113,170,109,237,781494
-127,-5,63,-2,-6,-13,-176,13,174,-82,-23,12,31,53,59,-75,72,92,178,-157,-284,-19,90,156,-268,533,134,144,197,125,216,781495
-65,0,50,18,2,-10,-18,-15,86,-25,-6,-22,65,-21,49,-76,53,50,144,-146,-249,-20,69,120,-227,584,88,126,180,95,219,781496
-64,16,50,38,11,-13,15,86,-17,91,136,2,46,-157,23,-82,23,24,110,-147,-257,-38,37,92,-234,580,66,96,144,70,236,781497
-159,1,72,30,4,-7,-116,-206,69,61,-33,-23,-25,-240,-21,-172,43,61,163,-221,-498,-91,49,163,-425,189,149,126,149,118,383,781498
-280,1,112,49,3,9,-305,-23,234,147,-24,-103,185,-175,-47,-320,91,106,315,-341,-919,-171,103,284,-738,-522,273,209,209,217,578,781499
-240,-10,84,52,1,6,-278,9,78,129,-271,-53,49,-106,13,-297,75,74,291,-283,-859,-164,101,252,-654,-497,236,191,220,191,456,781500
-241,-5,87,68,13,10,-284,-7,53,78,-255,-58,49,-37,-41,-301,96,94,326,-273,-911,-164,104,296,-664,-648,276,221,240,219,561,781501
-60,-3,30,53,29,15,-88,-26,-24,73,53,-69,75,-133,-36,-116,44,25,169,-67,-441,-74,82,129,-251,69,101,125,170,99,145,781502
-10,-8,12,30,27,5,-38,-48,-95,-46,46,-92,96,67,-20,-51,19,3,75,-25,-263,-47,53,61,-118,382,39,74,109,35,53,781503
-28,2,16,25,15,-8,-38,82,-22,-55,-114,-51,-55,114,6,-21,37,35,80,-5,-210,-29,55,74,-86,455,76,87,114,62,65,781504
-51,1,25,8,2,-9,-84,-203,-94,-18,-44,-53,-131,230,-15,-11,63,68,126,-1,-248,-18,90,122,-103,392,119,130,145,100,144,781505
-20,-10,17,4,12,8,-55,-75,-26,-47,32,2,-137,275,27,-2,49,49,112,22,-180,-13,92,110,-55,474,88,117,138,89,54,781506
-28,-12,17,24,20,2,-11,133,-43,173,74,43,-97,69,-72,-29,23,22,83,-5,-204,-31,61,78,-76,459,50,87,100,59,35,781507
-214,-9,77,63,3,-4,-191,5,2,198,-197,-35,-21,-154,-131,-263,41,61,211,-238,-744,-174,68,202,-528,-387,174,145,132,122,484,781508
-495,-21,132,94,-21,-22,-528,-277,154,268,-457,-207,151,-180,-133,-592,124,154,497,-548,-1612,-326,135,461,-1183,-1805,435,306,269,308,1064,781509
-733,-49,212,137,-18,-7,-870,-407,241,178,-520,-317,249,-234,-193,-883,238,275,812,-814,-2478,-444,245,748,-1786,-3292,719,499,472,526,1436,781510
-597,-58,178,160,33,33,-714,-395,312,102,-367,-252,193,-141,-108,-769,250,267,816,-650,-2301,-331,295,717,-1527,-3214,685,531,580,543,1149,781511
26,-37,4,71,86,72,77,-32,67,157,158,119,134,171,104,-73,105,47,257,61,-506,65,189,167,-56,-524,136,239,372,179,-74,781512
104,-25,-27,52,59,51,296,-55,-52,152,202,80,67,-91,63,-8,7,-36,11,83,-134,70,80,-13,108,120,-41,72,173,-7,-196,781513
28,-9,-30,82,44,26,277,158,-56,86,-28,-43,63,-27,-65,-119,-46,-90,-33,-31,-239,-3,8,-49,-45,-1,-74,10,83,-61,-191,781514
70,8,-18,90,54,33,241,159,72,-5,-17,-57,152,104,-43,-49,-57,-86,-75,20,-45,34,-10,-92,77,288,-110,-22,36,-82,-229,781515
57,1,-28,46,38,16,130,141,8,-75,63,-11,49,82,-52,-26,-40,-67,-79,27,14,51,3,-82,91,393,-97,-20,19,-78,-214,781516
19,-12,-18,23,18,15,49,-75,-18,-136,-31,-38,-120,-44,-47,-59,-34,-49,-47,-19,-68,11,2,-39,3,293,-61,-8,14,-55,-178,781517
-566,-55,152,75,-24,-18,-658,-551,274,-2,-525,-276,-38,-170,-101,-673,171,228,558,-651,-1773,-309,196,564,-1361,-2368,552,357,277,356,1265,781518
-1325,-118,353,198,-76,-69,-1508,-786,405,78,-1015,-572,178,-347,-220,-1527,468,551,1447,-1432,-4190,-718,496,1355,-3125,-6385,1318,896,771,950,2747,781519
-1278,-116,344,276,-9,-30,-1409,-624,399,259,-675,-478,215,-227,-145,-1552,520,547,1599,-1343,-4479,-703,606,1409,-3100,-7149,1344,1028,989,1046,2582,781520
-854,-115,181,251,42,1,-870,-342,229,195,-573,-180,67,-77,-130,-1131,383,341,1230,-862,-3439,-478,518,1001,-2125,-5763,939,826,910,780,1511,781521
109,-53,-93,147,116,74,307,295,-127,63,354,337,-189,78,109,-72,60,-60,222,182,-599,61,229,53,159,-1375,4,241,466,114,-596,781522
275,-34,-135,67,92,68,517,377,-94,144,382,313,-255,212,123,142,-49,-148,-157,327,177,128,83,-207,595,2,-240,2,165,-140,-674,781523
217,-1,-96,66,92,68,457,360,-72,-69,45,314,-183,314,122,96,-41,-117,-161,248,153,92,46,-169,471,59,-185,-25,72,-132,-503,781524
173,8,-86,61,70,55,388,156,-141,7,-88,158,-128,167,153,88,-3,-61,-107,209,116,84,79,-101,396,68,-118,14,59,-92,-336,781525
117,-7,-73,48,54,46,273,179,-80,211,-151,71,-3,78,41,41,11,-36,-80,146,26,54,70,-62,277,-31,-78,19,42,-70,-214,781526
88,-21,-56,38,57,46,134,272,-34,146,-97,44,-125,43,34,-28,-28,-64,-86,66,-79,3,26,-78,147,-143,-89,-6,4,-83,-207,781527
-243,-49,45,50,17,14,-308,-126,98,151,-421,-136,-84,-73,-31,-399,71,75,238,-318,-1031,-185,113,242,-633,-1631,221,181,118,133,582,781528
-771,-88,199,130,-16,-2,-892,-336,332,89,-652,-374,81,-207,-61,-983,301,334,893,-871,-2712,-444,346,842,-1897,-4412,809,587,481,576,1749,781529
-944,-102,270,222,15,25,-1046,-431,321,234,-573,-444,203,-312,-120,-1226,414,430,1224,-1032,-3510,-514,476,1114,-2366,-5901,1067,794,744,808,2101,781530
-639,-84,149,242,72,50,-586,-147,276,270,-226,-224,-67,-167,-7,-932,307,279,959,-663,-2791,-345,421,827,-1654,-4994,768,660,710,622,1213,781531
161,-34,-109,141,110,90,415,272,-155,30,307,227,-141,125,94,-75,8,-102,86,197,-411,64,141,-26,246,-1298,-88,134,281,15,-506,781532
250,-22,-121,68,85,78,473,400,-187,-86,301,241,-196,282,55,93,-35,-120,-127,300,118,117,73,-151,524,-378,-185,17,85,-115,-626,781533
147,-50,-105,21,41,41,308,280,-69,155,185,279,-97,204,41,70,21,-46,-80,247,53,104,99,-66,408,-415,-86,43,53,-65,-369,781534
110,-28,-75,10,34,40,188,90,-78,128,97,297,-137,25,39,82,59,1,-45,236,48,109,120,-27,361,-400,-37,54,59,-31,-252,781535
72,-20,-56,7,31,38,37,27,-44,111,-83,269,-148,76,115,18,32,-20,-44,170,-34,62,78,-25,262,-481,-20,31,26,-37,-159,781536
29,-35,-51,0,23,32,-57,-5,-62,55,-398,200,-294,119,58,-51,7,-27,-27,93,-160,13,39,-6,136,-651,-10,28,6,-39,-122,781537
-363,-71,69,31,-2,14,-497,-312,135,-1,-362,-46,-35,4,-54,-480,149,157,369,-353,-1294,-201,171,374,-803,-2443,372,260,171,216,871,781538
-993,-108,275,144,-20,-1,-1172,-516,362,120,-573,-303,288,-171,-125,-1198,404,453,1144,-1022,-3321,-512,438,1086,-2313,-5799,1044,731,606,743,2155,781539
-989,-118,256,218,22,30,-1088,-536,363,156,-497,-328,177,-13,-154,-1290,403,422,1241,-1020,-3625,-518,473,1108,-2373,-6511,1053,801,772,801,1901,781540
-624,-105,132,212,65,68,-604,-291,270,283,-130,-112,24,69,-84,-931,296,241,931,-628,-2734,-316,404,768,-1550,-5309,704,630,699,575,1021,781541
115,-49,-106,122,112,90,291,205,-32,156,281,247,-35,140,223,-45,86,-39,177,229,-450,143,211,54,260,-1791,14,210,376,90,-493,781542
230,-47,-127,62,77,75,328,380,-116,-33,180,215,-266,268,135,85,3,-93,-92,293,73,155,100,-132,511,-841,-152,47,160,-93,-542,781543
158,-42,-100,35,58,66,218,94,-136,1,25,243,-230,224,114,19,-20,-83,-116,191,11,76,49,-122,379,-850,-128,11,72,-98,-365,781544
153,-24,-97,33,59,63,217,229,-85,-14,58,217,-176,219,81,64,10,-54,-84,218,93,107,60,-66,406,-693,-71,34,71,-56,-343,781545
158,-28,-91,33,44,49,248,147,-104,-14,52,191,-157,161,103,66,17,-43,-94,211,120,107,70,-58,392,-616,-72,25,54,-58,-278,781546
142,-13,-80,39,51,54,288,207,-97,86,59,189,-163,78,114,45,9,-43,-117,188,129,86,58,-85,351,-564,-103,0,11,-77,-236,781547
-72,-25,-10,79,42,42,-3,6,18,220,-252,31,-101,25,29,-216,24,0,38,-91,-500,-79,62,62,-175,-1479,43,65,29,13,183,781548
-448,-56,100,121,22,33,-494,-117,164,177,-168,-173,-1,-87,-88,-675,138,135,453,-534,-1716,-302,165,445,-1110,-3421,414,296,222,281,983,781549
-648,-84,156,138,8,18,-701,-252,281,186,-279,-223,51,-348,-33,-899,262,270,761,-702,-2450,-381,301,711,-1585,-4723,680,498,438,504,1382,781550
-454,-76,71,139,23,13,-395,-225,65,173,-264,-59,-161,-37,1,-674,260,224,668,-439,-2020,-237,331,586,-1129,-4234,555,479,482,447,822,781551
125,-42,-135,88,46,23,380,242,-167,198,154,238,-270,308,34,-60,-13,-114,-37,185,-266,55,81,-88,263,-1509,-111,34,126,-45,-493,781552
236,-25,-148,50,58,42,451,342,-81,-68,484,224,-38,336,66,80,-61,-157,-210,289,215,98,1,-216,540,-677,-233,-69,-56,-176,-563,781553
199,-36,-121,24,42,44,349,209,-69,-119,479,126,-89,151,-34,57,-58,-129,-201,239,213,65,-15,-192,459,-623,-194,-94,-112,-176,-491,781554
175,-29,-95,28,39,44,270,126,-134,54,434,42,-191,71,-59,24,-85,-136,-212,196,180,42,-44,-180,388,-622,-174,-115,-155,-174,-410,781555
154,-26,-70,22,40,53,231,219,0,119,144,73,-13,-108,40,36,-60,-100,-169,190,175,56,-25,-143,360,-621,-131,-83,-141,-136,-331,781556
131,-37,-64,0,20,38,183,295,20,-63,-65,50,-30,139,23,-7,-71,-117,-176,149,141,25,-40,-160,300,-629,-171,-102,-167,-169,-264,781557
-125,-47,5,24,4,13,-139,100,49,-34,-8,-128,-17,116,-42,-290,-15,-35,37,-158,-563,-135,2,42,-293,-1701,25,21,-89,-43,294,781558
-489,-70,93,75,-8,-11,-584,-377,190,41,-257,-265,16,-107,-112,-673,148,158,479,-536,-1688,-288,165,462,-1122,-3550,430,306,181,273,971,781559
-477,-76,79,90,8,10,-569,-398,218,145,-227,-200,120,32,-100,-654,208,207,586,-481,-1807,-247,243,532,-1110,-3872,506,377,322,372,874,781560
-243,-58,19,78,32,37,-259,-229,94,142,-211,-176,-21,51,43,-402,154,107,388,-210,-1188,-101,212,327,-565,-2989,299,288,295,244,347,781561
93,-46,-85,40,48,47,200,125,-81,90,23,130,-135,219,76,-32,14,-68,-12,151,-149,65,83,-45,238,-1360,-62,42,113,-25,-413,781562
158,-37,-103,19,36,43,312,91,-94,97,73,164,-17,-47,79,42,-46,-118,-170,203,174,79,25,-169,411,-779,-185,-62,-22,-126,-461,781563
100,-39,-92,18,21,31,247,91,-18,124,204,81,-27,-65,35,-6,-49,-110,-148,137,68,32,-2,-131,281,-879,-156,-56,-58,-113,-323,781564
87,-28,-83,35,26,34,216,102,40,107,233,62,-46,-205,35,-26,-49,-116,-136,106,53,11,-8,-132,249,-869,-157,-71,-76,-115,-312,781565
70,-28,-83,33,15,18,168,138,-145,83,149,98,37,-275,-21,-44,-69,-120,-156,87,35,-2,-30,-140,212,-851,-164,-87,-94,-123,-280,781566
61,-27,-56,-4,13,38,112,-107,-104,-39,126,79,-2,44,77,-24,-18,-57,-81,101,28,25,12,-74,210,-856,-91,-29,-56,-63,-209,781567
-81,-64,4,-25,7,27,-150,-102,111,-111,137,-46,46,107,44,-180,58,49,99,-72,-444,-42,59,117,-171,-1579,110,96,37,79,292,781568
-309,-79,75,22,-13,19,-435,-422,149,-70,134,-117,38,81,-59,-438,145,149,394,-327,-1208,-172,146,386,-737,-2845,367,272,199,268,765,781569
-210,-57,35,56,0,38,-253,15,96,109,-45,19,59,190,29,-345,114,84,320,-203,-972,-121,131,272,-500,-2570,253,217,191,211,473,781570
-101,-50,-19,51,19,40,-54,58,-1,66,-108,-6,-95,93,30,-217,71,27,184,-74,-624,-64,110,139,-208,-2069,116,142,124,115,186,781571
114,-36,-99,15,25,37,237,70,-69,95,131,126,-46,140,34,10,-46,-95,-109,153,40,42,-6,-120,308,-1006,-133,-45,-44,-78,-320,781572
156,-34,-104,-13,22,28,242,146,-66,57,96,195,111,223,44,54,-56,-105,-170,190,219,58,-27,-155,397,-674,-165,-91,-125,-119,-380,781573
170,-20,-88,-14,20,30,220,23,-119,49,-64,139,-126,146,41,90,-34,-78,-158,203,286,92,-13,-132,412,-551,-142,-82,-134,-117,-312,781574
123,-11,-74,-4,18,23,152,161,-156,160,12,63,-157,78,11,47,-12,-42,-115,162,197,75,4,-92,322,-661,-101,-59,-123,-99,-200,781575
109,-10,-68,-10,16,17,138,106,-89,80,147,-25,-207,132,92,78,2,-24,-112,181,234,91,12,-92,337,-595,-79,-41,-111,-84,-284,781576
116,-16,-61,-29,16,34,131,239,-10,23,202,125,-140,142,44,126,29,15,-88,207,287,119,33,-47,374,-511,-24,-4,-81,-38,-148,781577
-24,-40,-48,-17,-12,0,-45,159,-54,174,58,18,-78,76,-4,-42,21,10,-7,27,-96,4,25,25,41,-1078,20,14,-60,-11,120,781578
6,-31,-62,-12,-12,-8,-2,-20,-49,16,-93,-55,-197,123,79,-34,-1,-22,-36,60,-20,18,14,-21,112,-966,-30,-13,-60,-43,-61,781579
0,-32,-57,-23,-15,-7,-37,-38,24,-125,-70,-11,-143,-13,64,-47,4,-17,-20,53,-52,15,19,-15,92,-1001,-14,-2,-38,-32,-79,781580
78,-35,-76,-28,-11,6,50,-85,38,-30,254,98,-114,-31,80,36,-24,-54,-100,144,196,66,-2,-96,274,-613,-92,-48,-59,-74,-318,781581
98,-23,-62,-26,-6,11,104,81,63,92,31,72,-58,212,-11,60,-47,-62,-150,137,255,70,-35,-113,307,-477,-110,-67,-85,-90,-252,781582
65,-20,-49,-9,1,3,112,140,3,65,47,96,35,151,6,47,-24,-37,-113,104,199,47,-22,-84,238,-564,-66,-56,-82,-56,-102,781583
49,-16,-35,-4,3,14,98,1,-43,-31,-85,85,-5,-60,15,23,2,-7,-62,81,129,28,12,-44,163,-677,-48,-30,-69,-40,-87,781584
66,-3,-39,-3,8,27,102,199,51,27,-229,116,-7,3,19,25,-14,-37,-80,86,173,33,-7,-80,186,-615,-93,-46,-76,-70,-129,781585
46,-13,-35,-20,-5,7,29,59,82,101,-13,53,-47,-173,-5,11,-17,-32,-61,71,120,29,-20,-54,140,-685,-70,-31,-76,-53,-89,781586
74,-21,-45,-51,-21,6,32,-80,73,-39,-115,71,-112,41,39,87,11,-8,-59,146,245,77,-1,-40,252,-499,-47,-19,-52,-27,-123,781587
139,-23,-66,-72,-13,-4,119,95,-34,-136,183,221,-65,133,52,173,10,-26,-119,240,484,131,0,-90,425,-122,-88,-50,-73,-66,-317,781588
247,-4,-95,-64,10,10,273,277,-58,-173,266,155,-147,338,62,282,-59,-95,-284,333,838,166,-62,-239,675,482,-244,-157,-174,-177,-602,781589
345,5,-129,-75,6,4,413,236,-69,-69,120,177,-115,347,93,404,-117,-153,-443,421,1204,210,-112,-378,917,1135,-377,-265,-279,-272,-739,781590
239,0,-119,-96,-33,-28,295,-85,-45,-88,77,235,-140,154,26,329,-100,-120,-403,317,1029,163,-114,-314,727,972,-316,-250,-296,-245,-427,781591
7,-7,-42,-48,-46,-38,-9,-7,-21,-146,-32,3,-227,-68,-35,53,-42,-33,-165,26,301,-5,-84,-95,141,-105,-87,-114,-195,-93,-22,781592
-27,-4,-22,-36,-32,-33,-99,-138,-21,-125,-114,-33,-198,-38,11,7,-11,-18,-55,-12,116,-24,-51,-30,44,-387,-24,-57,-121,-40,34,781593
-10,-1,-11,-35,-21,-21,-81,-103,42,-52,8,11,-163,51,48,52,23,27,-17,36,131,25,1,12,83,-393,14,-12,-64,10,64,781594
4,-11,-39,-42,-28,-30,-11,-19,-73,3,10,122,-25,185,72,56,2,5,-63,57,171,19,-11,-25,125,-313,-29,-37,-71,-9,-38,781595
27,-14,-35,-33,-15,-10,33,-3,-65,-8,119,170,-194,102,53,44,-10,-15,-69,53,177,7,-20,-40,126,-308,-52,-42,-77,-30,-48,781596
52,-1,-9,-2,9,12,53,43,-24,7,195,30,131,-124,72,46,-3,-15,-44,51,163,7,-13,-31,120,-317,-47,-41,-59,-24,-11,781597
243,14,-67,-23,12,17,270,298,-98,-4,162,70,122,-97,101,263,-68,-102,-232,268,728,120,-73,-215,579,581,-231,-140,-137,-150,-544,781598
517,36,-163,-81,10,21,563,146,-122,-163,421,199,-232,-2,119,589,-178,-218,-573,572,1638,279,-197,-516,1253,2096,-518,-333,-317,-365,-1082,781599
486,40,-158,-120,-17,-6,503,241,-167,-224,337,180,-177,94,114,609,-184,-200,-625,542,1736,269,-226,-533,1235,2368,-512,-374,-394,-394,-920,781600
310,43,-83,-101,-33,-20,282,90,-128,-271,171,131,-124,-81,103,448,-97,-87,-447,367,1306,206,-148,-337,835,1743,-321,-270,-325,-255,-489,781601
-43,13,21,-53,-53,-39,-139,-239,-32,-173,-128,-108,27,-51,-77,35,6,49,-101,-32,247,-13,-58,-4,-15,109,2,-78,-188,-30,241,781602
-72,20,37,-34,-28,-32,-167,-284,-22,-102,-169,-157,105,-16,-13,-4,29,56,20,-44,74,-17,-28,61,-85,-257,64,-3,-97,41,136,781603
-21,12,19,-48,-34,-17,-151,-133,-29,-21,2,-146,166,-115,-41,21,5,24,-7,3,130,3,-39,13,-19,-205,20,-24,-91,8,31,781604
-2,-5,5,-63,-32,-20,-181,-40,-28,22,42,-59,-28,-120,-60,18,-20,-1,-69,13,157,4,-64,-43,12,-170,-29,-66,-110,-28,-39,781605
-16,-16,-7,-71,-34,-32,-259,-166,-38,72,-99,-61,-148,-60,5,30,9,16,-28,18,160,20,-29,-8,26,-196,0,-28,-77,8,97,781606
-42,-6,0,-45,-36,-38,-281,-282,-39,-101,-49,-36,-86,-52,-1,37,36,48,29,13,111,27,8,38,9,-280,63,23,-40,48,130,781607
51,19,-20,-32,-18,-15,-119,-23,-31,-2,122,-14,-19,54,74,150,13,2,-32,133,372,96,-3,-36,238,118,-18,-18,-47,-4,-131,781608
220,4,-71,-74,-12,-11,196,84,-32,-28,-51,138,-6,104,121,341,-50,-69,-233,320,904,179,-55,-222,648,1004,-209,-143,-153,-141,-490,781609
234,12,-92,-94,-26,-44,323,-46,-60,-148,305,145,-50,152,32,368,-69,-84,-284,321,1014,182,-79,-270,694,1267,-254,-178,-200,-183,-522,781610
164,24,-43,-72,-34,-32,242,10,-130,-111,455,38,51,-15,-22,271,-75,-84,-264,209,824,111,-103,-225,503,1057,-218,-180,-218,-158,-362,781611
3,21,31,-21,-19,-19,6,-8,33,-52,76,-66,125,-22,59,103,21,29,-30,40,309,40,-20,3,97,272,22,-42,-73,18,82,781612
-30,24,26,-4,-21,-24,-32,-23,155,135,-64,-84,-26,-136,4,42,1,17,-2,-20,138,-4,-25,22,-12,30,30,-29,-20,27,153,781613
-13,25,16,10,-16,-19,-12,9,61,99,-48,-135,82,-170,36,5,-43,-34,-40,-47,86,-57,-61,-28,-28,-24,-38,-49,-33,-20,17,781614
-39,13,33,9,-12,-13,-46,-72,39,-44,57,-123,223,-100,27,-28,-19,-10,11,-85,-48,-66,-52,30,-93,-207,6,-4,12,29,74,781615
-88,2,36,8,-22,-19,-83,-143,-6,-41,194,-130,260,-9,-60,-64,17,29,61,-121,-201,-74,-3,83,-206,-459,64,27,60,71,201,781616
-55,6,19,13,-13,-22,8,-125,-4,5,252,-26,223,-11,-26,-36,13,13,31,-84,-132,-50,1,39,-134,-371,39,11,62,49,73,781617
81,29,-22,14,6,-9,190,98,-135,-30,158,-2,39,6,2,109,-41,-63,-112,69,255,25,-52,-99,193,228,-108,-87,-10,-57,-212,781618
237,42,-64,-13,13,0,351,218,-180,-74,93,99,-99,6,13,286,-88,-129,-268,238,752,101,-109,-253,556,1004,-255,-176,-119,-177,-485,781619
264,26,-79,-52,0,-10,362,139,-154,-90,40,118,-157,-38,65,344,-122,-149,-353,279,969,133,-137,-320,665,1374,-308,-231,-217,-221,-531,781620
196,26,-48,-53,-11,-5,236,189,-120,-98,-23,44,-5,-6,70,271,-104,-97,-291,191,801,105,-126,-244,488,1138,-236,-207,-235,-181,-238,781621
9,17,19,-24,-21,-16,-30,53,-80,-101,-3,-30,-18,-97,-10,34,-31,6,-62,-24,186,-3,-62,-37,-3,162,-28,-74,-154,-45,303,781622
-41,11,27,-8,-9,-15,-42,30,-42,-20,125,23,-44,-100,-76,-11,21,47,53,-38,0,6,-15,45,-103,-176,52,-4,-84,22,223,781623
-54,-2,15,-14,-16,-24,-33,-143,-1,-72,208,22,55,-59,-104,-41,8,23,47,-65,-33,6,-6,30,-120,-269,35,-11,-72,9,122,781624
-43,-6,18,-4,-26,-22,-2,-200,-90,-21,106,-46,-14,-158,16,-59,-16,0,15,-88,-70,-25,-20,0,-149,-340,0,-40,-94,-30,84,781625
-17,4,17,8,-6,-13,64,-52,-72,-126,63,-144,29,78,34,-41,-32,-21,-24,-65,-2,-34,-37,-39,-92,-249,-29,-60,-114,-53,46,781626
-5,4,-7,-3,-19,-36,96,64,-6,-233,255,-69,-46,94,-4,-14,-61,-57,-53,-33,73,-22,-56,-55,-24,-150,-58,-72,-111,-66,-41,781627
157,36,-42,-7,-2,-12,298,226,-34,-88,276,104,-158,124,34,195,-68,-81,-144,172,567,103,-61,-154,373,605,-159,-115,-124,-124,-356,781628
289,37,-93,-39,-2,-16,404,228,-142,91,93,161,-3,49,68,380,-106,-124,-302,344,1060,192,-110,-303,738,1452,-288,-205,-205,-226,-719,781629
327,45,-109,-59,8,-23,338,103,-132,-29,257,75,-47,-37,24,416,-142,-153,-389,362,1222,192,-164,-359,829,1819,-340,-263,-259,-282,-705,781630
239,24,-52,-72,2,-12,164,163,-31,-99,186,-47,49,51,-12,323,-119,-111,-315,249,982,123,-151,-276,604,1565,-266,-219,-233,-221,-379,781631
-36,9,48,-63,-22,-15,-167,-93,93,-73,-109,-171,107,-76,3,72,33,59,23,-28,195,0,-12,46,-15,368,47,-11,-30,13,134,781632
-91,14,59,-31,-27,-19,-178,-52,53,72,-84,-130,62,-88,-3,28,57,98,99,-68,-9,-14,28,111,-119,41,121,45,91,113,200,781633
-58,20,46,-7,-6,-9,-134,6,3,80,-70,-38,105,9,16,30,32,64,74,-68,-40,-41,18,72,-98,28,74,42,118,96,140,781634
-36,7,27,-25,-21,-10,-105,-129,51,-126,-185,10,0,-85,75,5,-4,18,23,-84,-51,-77,-16,31,-104,28,21,0,101,58,60,781635
26,11,6,-28,-13,-1,15,-134,17,-127,-93,-88,59,16,38,49,-28,-24,-33,-34,94,-61,-53,-27,21,266,-44,-49,70,11,-36,781636
0,18,9,-26,-13,-12,27,-186,35,62,13,-170,134,-33,-27,45,-21,-15,-24,-30,65,-59,-45,-15,0,211,-26,-38,68,25,-29,781637
68,20,-15,-42,-8,-4,108,-212,-29,-97,-48,58,-1,17,-4,145,-17,-7,-70,78,293,30,-31,-62,200,556,-59,-60,40,6,-183,781638
300,39,-67,-62,15,15,366,54,-172,71,128,213,-72,117,84,407,-76,-97,-291,344,1009,177,-91,-287,740,1698,-264,-205,-106,-154,-644,781639
287,38,-53,-69,-4,5,292,187,-95,39,258,132,-27,19,17,395,-90,-103,-335,316,1055,173,-111,-312,701,1812,-279,-226,-194,-202,-493,781640
146,21,-44,-74,-30,-26,72,277,-35,38,7,60,78,5,-73,250,-68,-58,-241,164,731,96,-110,-209,412,1325,-177,-186,-208,-158,-122,781641
-58,4,19,-46,-29,-26,-235,-45,40,-232,-89,-132,5,-137,-69,35,4,35,-5,-49,145,10,-39,6,-77,349,21,-47,-114,-7,317,781642
-48,-6,38,-36,-18,-9,-234,-59,21,-181,104,-3,4,130,-67,21,20,50,77,-35,43,34,-10,68,-121,112,75,11,-42,31,218,781643
33,19,41,-4,9,2,-16,124,-10,-22,128,-2,-83,104,-19,85,15,31,40,55,221,84,-11,24,48,340,29,1,-35,1,112,781644
36,27,36,13,9,5,88,107,13,50,-32,-158,50,-17,-8,54,-9,12,-1,32,218,65,-34,-10,34,328,2,-25,-69,-24,126,781645
24,34,35,17,3,18,116,-38,58,20,122,-71,-37,74,-12,31,-21,-7,-8,1,156,42,-44,-34,-6,252,-8,-52,-86,-48,41,781646
9,19,17,17,1,-4,124,46,-62,140,-18,-97,41,-122,-57,-1,-35,-32,-43,-28,131,0,-66,-56,-26,220,-42,-79,-115,-84,54,781647
48,27,-1,13,-2,-4,183,-205,-166,96,-186,-67,152,-97,-39,67,-56,-55,-93,27,291,20,-71,-124,114,488,-111,-111,-113,-120,-65,781648
179,45,-41,-5,10,6,293,-173,-80,26,-47,72,30,137,19,250,-81,-91,-225,203,741,125,-88,-247,467,1204,-222,-170,-151,-185,-366,781649
190,39,-64,-39,-8,-32,251,-38,-69,-144,126,103,3,21,29,308,-78,-86,-280,232,875,143,-108,-256,546,1498,-231,-185,-167,-198,-412,781650
107,46,-41,-38,-27,-51,145,25,-11,21,125,105,142,139,46,277,-26,-20,-170,175,713,123,-69,-146,407,1304,-131,-117,-105,-115,-218,781651
-60,43,27,-14,-24,-44,-64,-118,-10,131,-172,-79,112,92,-23,81,36,66,41,-7,195,30,9,43,-3,512,46,14,17,24,126,781652
-64,27,58,5,-7,-13,-104,-133,-80,12,-231,-83,14,-72,-54,15,20,49,59,-72,3,-34,-7,54,-113,243,60,15,55,52,202,781653
-58,14,59,-14,4,12,-120,-20,0,-71,-151,-43,182,-89,-56,-22,13,41,51,-103,-102,-77,-21,54,-163,121,64,13,79,67,186,781654
-45,1,36,-17,-14,-8,-90,-89,48,-167,-136,-89,136,-154,-47,6,1,15,34,-96,-67,-77,-22,23,-127,178,38,1,80,50,97,781655
-85,5,23,-14,-29,-35,-137,-81,54,-24,-169,-82,276,-234,-53,-29,-5,-1,44,-137,-135,-100,-31,26,-173,83,33,-1,65,48,180,781656
-99,9,26,-20,-27,-31,-217,-206,43,-22,-166,-157,48,-2,13,-65,-2,-6,42,-158,-201,-110,-29,38,-220,-51,47,-6,58,46,109,781657
27,20,22,-22,8,3,-112,-130,21,-79,-196,-16,16,44,35,71,10,20,9,-4,83,1,-9,4,21,347,29,6,73,40,-65,781658
117,20,-9,-30,5,9,69,138,38,20,123,134,200,258,24,199,11,19,-38,131,405,96,-3,-55,260,822,-27,-14,39,10,-112,781659
120,27,2,-10,12,13,192,101,-64,111,-93,70,165,283,40,210,-12,-1,-70,139,480,96,-22,-71,293,957,-75,-43,-17,-27,-189,781660
35,42,28,3,1,7,150,-80,-62,10,-69,-73,11,196,-50,96,-22,2,-32,39,260,36,-41,-47,104,640,-36,-35,-49,-26,-79,781661
-38,40,55,10,8,26,62,-115,48,59,70,-51,-119,-82,-5,3,9,10,50,-36,38,5,-14,17,-68,278,29,1,-29,9,13,781662
-39,21,44,2,3,11,-6,-159,89,149,-43,-131,-124,3,51,-35,-15,-12,34,-74,-34,-18,-28,4,-114,160,4,-20,-41,-14,75,781663
-27,11,19,-5,1,-8,-83,-171,-21,-4,28,-148,11,18,-12,-11,-9,-2,23,-50,-1,11,-22,2,-69,192,13,-8,-30,-10,58,781664
-32,1,14,-12,-4,-19,-146,-216,4,-221,43,-117,26,-85,-68,-12,-12,-3,22,-47,-8,20,-30,13,-74,183,30,6,-22,1,18,781665
-18,17,35,15,15,2,-88,-204,-42,-275,16,0,68,-63,-9,16,14,29,58,-23,8,41,-12,43,-47,196,67,32,29,29,58,781666
-10,11,34,1,-6,5,-34,-62,-68,120,28,40,121,-44,-11,32,20,42,60,-2,35,60,0,50,-32,219,69,31,42,31,60,781667
-5,3,34,14,-5,19,15,-24,125,69,-105,-53,129,-102,-7,-14,-7,2,-3,-34,0,11,-28,-23,-66,182,-19,-18,-13,-21,35,781668
21,9,38,37,18,30,38,-20,47,-39,-87,-122,116,-381,-28,-36,-49,-32,-54,-52,3,-29,-57,-74,-55,216,-61,-61,-45,-64,0,781669
2,26,42,31,14,40,-41,71,-74,-64,-15,-135,43,-292,-13,-48,-46,-25,-21,-74,-71,-48,-53,-40,-104,110,-38,-37,-20,-45,19,781670
34,32,50,28,32,45,-24,154,-8,64,-38,-81,243,-386,7,-18,-28,-17,-3,-44,-32,-27,-28,-24,-63,148,-18,-11,11,-28,-67,781671
44,14,33,6,26,47,-33,39,-31,-71,-58,26,86,-195,21,-29,-47,-43,-54,-60,-6,-50,-51,-72,-51,199,-53,-49,-25,-62,-48,781672
43,6,30,2,15,42,-33,-4,-10,-46,18,97,33,-148,2,-23,-42,-25,-35,-74,-32,-71,-36,-60,-72,175,-44,-34,-30,-43,-43,781673
21,7,38,2,15,26,-50,-15,33,-7,58,32,-80,-103,-43,-34,-22,-1,13,-92,-110,-82,-14,-10,-123,70,14,-7,1,-1,95,781674
-18,14,39,17,11,21,-54,-39,69,120,60,-104,-58,-15,-101,-49,-14,9,53,-99,-169,-87,-7,14,-161,-44,43,17,23,19,171,781675
-15,24,20,26,6,15,-11,109,39,16,13,-121,23,-12,-93,-30,-19,5,62,-62,-125,-62,-8,13,-114,-5,43,28,38,25,10,781676
-5,27,22,31,21,2,7,133,-31,49,88,-37,40,140,-104,-18,-7,13,78,-49,-115,-49,-6,31,-92,11,55,39,43,43,9,781677
82,32,-7,20,21,5,117,36,31,70,195,-15,17,15,-82,69,-31,-33,-31,55,171,1,-35,-66,135,432,-36,-31,-5,-20,-140,781678
71,15,-19,8,6,-8,92,92,6,31,339,-54,-128,5,-68,58,-65,-43,-103,36,202,-14,-65,-94,134,488,-74,-71,-52,-66,-124,781679
67,24,-5,8,9,5,67,111,-82,-42,118,-8,-90,-129,-56,73,-27,-12,-69,36,208,26,-47,-55,119,483,-41,-46,-32,-42,-83,781680
25,6,-11,-12,-1,-10,31,-6,-31,28,89,-71,-74,108,-37,44,-11,-5,-28,13,141,21,-33,-35,61,398,-13,-26,-19,-25,-104,781681
-49,14,15,-11,-11,-18,-23,-128,-7,106,42,-42,32,112,-21,-26,17,21,40,-55,-53,-2,7,35,-93,97,53,18,24,18,-58,781682
-73,0,11,-1,-17,-11,-58,12,68,-88,-40,-128,47,-183,-41,-67,4,18,43,-101,-142,-27,-2,30,-158,-31,54,5,40,28,49,781683
-49,0,3,5,-2,-12,-27,103,37,62,-85,-52,-100,-261,62,-16,12,25,49,-53,-55,9,6,41,-63,88,48,18,64,45,78,781684
-28,19,16,22,12,1,17,101,-19,143,127,138,49,53,55,15,26,41,74,-17,-18,34,20,70,-15,142,52,50,89,51,117,781685
-17,13,4,12,0,-6,43,254,-56,123,152,109,63,116,-6,8,0,21,47,-21,-10,16,-8,25,-19,164,15,21,63,13,50,781686
-6,25,23,31,8,-2,44,89,15,18,19,13,40,169,2,16,23,36,38,-18,-11,20,2,28,-16,153,13,20,64,16,55,781687
28,16,4,2,0,-13,40,207,-5,-100,77,105,-41,-9,-29,88,29,51,2,49,140,62,2,10,92,372,18,22,72,23,-14,781688
78,17,-15,-47,-11,-16,-22,303,-85,-76,68,148,87,104,-35,159,0,24,-78,121,336,105,-20,-50,237,693,-35,-15,37,-18,-94,781689
110,12,-1,-46,5,27,-133,237,-88,-72,-113,155,-26,-3,26,158,-40,-18,-129,120,393,85,-58,-103,260,820,-91,-59,-30,-78,-189,781690
100,3,-2,-49,10,26,-226,134,-80,-128,-356,21,-125,27,-22,112,-71,-47,-137,66,335,39,-95,-130,189,748,-103,-88,-82,-114,-343,781691
-6,-9,5,-66,-21,-13,-287,-179,43,-62,-193,-47,-58,-16,-96,-14,-63,-28,-55,-43,47,-37,-87,-60,-48,305,-45,-49,-79,-73,-57,781692
28,0,11,-36,-6,-8,-34,-37,-4,55,106,35,77,280,-21,50,9,32,18,50,113,32,-14,-2,40,336,17,20,-21,-4,31,781693
-1,13,11,3,-5,-13,92,-160,47,88,-92,-14,68,127,-39,32,40,56,72,32,56,50,16,41,-4,210,69,46,-14,30,116,781694
-10,24,1,32,1,-19,132,-122,41,68,-175,-56,61,39,-49,4,9,20,35,16,43,13,-10,-4,-15,172,19,4,-63,-16,46,781695
-13,33,7,34,10,-7,108,55,-25,-2,-94,43,-101,25,-45,-7,-4,19,22,11,17,-1,-13,-2,-27,131,28,5,-63,-8,72,781696
-22,18,12,27,13,20,21,-10,-4,-92,-274,-45,-188,-75,-6,-45,-34,6,15,-40,-42,-31,-41,-7,-77,44,11,-10,-81,-18,151,781697
-65,1,41,38,19,27,-93,33,92,28,-98,-119,-46,-96,-43,-159,-40,-10,63,-143,-269,-94,-54,23,-256,-284,38,10,-57,-4,101,781698
-11,2,29,31,31,34,-50,49,32,-9,-250,-58,94,-265,5,-130,-79,-49,-13,-110,-169,-88,-80,-36,-163,-104,-23,-40,-79,-50,-27,781699
-14,14,22,40,13,13,-31,-10,126,120,4,-39,170,-92,0,-97,-58,-31,4,-95,-156,-69,-61,-13,-125,-63,-12,-25,-31,-32,0,781700
-17,18,37,42,16,-3,-12,46,161,-59,98,13,169,-39,42,-57,4,5,62,-74,-146,-32,-4,52,-111,-62,40,31,54,40,83,781701
-25,12,20,18,4,-11,31,49,30,-40,-51,23,131,-17,1,-26,19,22,71,-56,-112,-18,20,58,-67,5,51,45,92,51,86,781702
-44,20,3,27,-8,-19,9,99,12,51,16,-97,18,6,16,-58,24,19,67,-83,-159,-30,15,62,-100,-34,53,42,101,55,154,781703
-56,19,24,24,2,6,-52,18,-15,262,-201,-44,31,-8,26,-74,5,9,52,-115,-233,-60,-2,56,-148,-111,50,35,88,46,134,781704
-56,-3,29,-3,-4,5,-89,-71,48,133,-168,75,27,75,7,-61,38,38,91,-104,-261,-51,17,102,-155,-166,100,63,126,91,184,781705
-56,-4,26,-7,-2,12,-68,-22,199,117,-115,60,35,56,-51,-74,22,20,53,-122,-285,-73,9,60,-171,-202,49,40,107,53,162,781706
-31,13,36,16,21,31,-20,95,181,80,-115,51,81,-177,-50,-82,-5,-5,31,-126,-264,-75,0,6,-165,-157,6,16,68,10,12,781707
-43,15,20,25,14,19,-39,-123,63,79,39,-132,93,-107,-51,-97,-2,12,58,-123,-276,-70,15,43,-192,-210,38,46,75,30,16,781708
-30,25,34,54,23,18,-22,-44,48,-71,-16,-148,-44,-168,17,-98,14,26,76,-111,-311,-71,27,72,-207,-295,58,63,80,44,101,781709
-8,13,24,53,14,6,83,69,17,152,-260,-80,0,137,-10,-44,31,39,67,-55,-206,-30,31,56,-123,-189,46,51,66,43,-12,781710
-43,9,11,27,-9,-5,119,71,-27,70,18,4,-58,39,16,-60,36,48,65,-67,-222,-26,30,40,-150,-264,58,47,46,34,126,781711
-52,9,5,48,-1,-6,84,103,-13,-31,204,-23,-79,-3,-44,-80,24,30,55,-68,-238,-25,34,45,-169,-335,56,37,6,20,224,781712
-91,-11,-17,7,-21,-36,-60,57,78,-84,-23,-103,-207,-80,-38,-101,5,6,39,-76,-236,-22,1,35,-191,-406,35,23,-45,-27,82,781713
-101,-29,-14,-25,-35,-31,-137,-84,25,94,-52,-58,-91,-87,30,-88,14,24,63,-41,-187,13,15,50,-160,-422,58,31,-55,-19,76,781714
-52,-10,15,-8,6,12,-132,39,42,74,-98,32,29,44,-25,-56,61,57,104,3,-131,72,56,82,-111,-403,99,72,-33,15,107,781715
-73,-31,17,-8,0,13,-174,-5,55,1,-145,141,-171,61,-1,-73,77,69,109,-21,-201,73,83,105,-165,-533,119,71,-32,31,206,781716
-116,-25,29,16,-8,5,-160,-5,5,-50,39,113,-157,-15,8,-92,95,103,162,-46,-282,72,107,151,-212,-675,165,115,16,60,310,781717
-202,-16,32,41,-22,-21,-148,-286,91,-41,190,21,-82,-99,-25,-188,91,97,219,-150,-505,-6,107,191,-365,-1027,187,134,56,86,374,781718
-257,-28,34,41,-31,-35,-197,-270,69,-110,-19,-62,15,-73,-113,-265,84,88,228,-255,-724,-97,93,200,-506,-1328,197,144,89,95,379,781719
-256,-38,49,25,-10,-15,-261,-279,52,-158,-6,40,-13,71,-80,-299,79,81,238,-291,-841,-148,73,216,-555,-1482,210,155,147,115,383,781720
-194,-52,56,20,14,21,-308,-183,7,-69,-188,-12,81,47,-19,-326,27,25,165,-347,-911,-214,31,164,-600,-1536,161,107,152,79,289,781721
-160,-38,43,52,10,24,-265,-117,53,50,-244,-23,87,-36,1,-327,30,29,169,-348,-944,-237,41,176,-598,-1571,155,134,189,79,277,781722
-180,-2,35,75,7,13,-155,-141,-10,-71,-378,49,51,-146,-19,-292,67,58,218,-316,-944,-225,89,197,-562,-1569,169,173,235,112,355,781723
-201,-22,21,58,-14,2,-144,-149,174,-60,-243,-13,67,207,-103,-277,78,61,198,-310,-947,-224,98,176,-549,-1574,155,157,250,116,313,781724
-190,-42,7,33,-14,-1,-153,-353,159,-7,-190,24,72,150,-51,-247,97,77,205,-264,-908,-204,131,185,-495,-1526,161,165,271,121,256,781725
-132,-44,14,33,13,4,-126,-90,123,-2,-374,83,127,49,9,-222,84,55,175,-216,-811,-184,137,165,-418,-1405,134,155,250,109,207,781726
-108,-33,26,45,31,36,-141,14,99,-65,-260,31,29,-127,20,-254,24,0,104,-253,-830,-218,74,98,-447,-1423,70,86,188,51,238,781727
-76,-36,9,38,29,34,-114,47,-5,-93,-82,-4,-68,-160,32,-216,9,-15,71,-212,-726,-182,44,71,-361,-1300,49,66,153,18,135,781728
11,-24,-1,24,38,48,34,186,-16,-67,198,48,-134,-73,52,-104,10,-29,10,-90,-416,-98,28,19,-138,-880,-11,37,117,-16,-55,781729
42,-20,-15,15,30,44,150,16,39,113,-141,119,48,36,111,-45,3,-18,-15,-19,-245,-45,40,-10,-40,-666,-29,20,69,-36,-47,781730
6,-27,-15,-1,9,25,154,-225,24,67,-50,164,-12,66,83,-31,45,35,48,-7,-229,1,96,53,-56,-712,50,68,78,4,63,781731
-118,-32,1,19,-8,-6,-23,-163,42,13,70,50,-37,12,24,-180,78,71,149,-143,-546,-38,125,145,-334,-1268,126,122,65,40,255,781732
-158,-33,-6,41,-4,-8,-137,-121,30,-20,-86,-42,35,101,2,-256,49,38,137,-175,-620,-44,80,126,-406,-1505,102,99,21,9,179,781733
-103,-20,-4,39,-1,-1,-116,34,-33,32,-3,55,42,109,28,-179,27,16,107,-87,-393,39,56,75,-246,-1277,54,86,-16,-34,67,781734
-135,-28,16,25,-5,-3,-183,106,13,88,-1,112,-113,15,100,-200,68,54,165,-97,-445,61,89,134,-290,-1426,112,134,7,-4,155,781735
-95,-23,28,32,19,21,-186,-45,44,52,41,62,-153,131,50,-156,99,81,194,-43,-371,107,128,152,-218,-1368,125,164,36,19,154,781736
-54,-28,-1,24,0,3,-176,-111,-10,-116,-108,198,-112,-16,75,-103,102,74,169,13,-246,137,149,121,-107,-1207,93,150,44,23,94,781737
179,-39,-77,-31,3,5,78,268,-10,-101,235,252,-105,211,184,177,18,-29,-93,282,471,239,66,-109,488,-14,-133,-10,-56,-125,-428,781738
397,-5,-104,-50,37,39,398,305,-25,39,400,157,6,103,165,408,-77,-139,-346,475,1118,299,-41,-331,968,1150,-349,-167,-174,-283,-858,781739
393,19,-109,-44,22,25,488,219,-65,36,341,132,11,47,59,371,-150,-188,-433,419,1144,194,-120,-405,927,1396,-412,-252,-258,-347,-758,781740
247,22,-73,-25,-6,5,371,164,-118,107,320,140,-96,-75,40,245,-139,-142,-338,248,777,69,-127,-284,616,984,-300,-208,-210,-257,-411,781741
-30,16,14,0,-29,-15,27,-60,16,52,9,-107,-63,-118,-52,-32,-39,-6,-47,-28,-19,-97,-47,7,3,-175,-12,-34,-33,-15,148,781742
-85,-6,18,-4,-29,-13,-54,-77,-9,110,-74,-31,3,-99,-38,-59,13,33,47,-25,-208,-103,3,83,-80,-455,67,30,60,75,157,781743
-66,5,17,5,-14,1,-35,53,59,-25,-64,1,-34,83,-1,-59,11,21,52,-10,-231,-120,13,80,-68,-481,54,24,92,82,127,781744
-37,8,10,15,-13,6,5,137,51,-44,-109,-63,-138,59,64,-53,2,7,26,0,-216,-131,18,47,-44,-456,26,-1,94,68,105,781745
-36,1,-3,6,-19,-5,7,44,-23,64,-54,-76,-187,30,48,-35,18,17,46,22,-196,-98,30,57,-24,-432,37,21,105,86,73,781746
-41,6,-9,15,-8,-10,-6,57,15,88,133,-14,-70,31,-63,-37,44,24,85,21,-227,-83,46,82,-32,-480,60,56,132,106,122,781747
98,15,-51,15,9,4,164,18,-80,-22,31,40,-135,171,2,119,-10,-30,-54,176,169,5,7,-43,295,119,-59,-23,61,12,-212,781748
221,7,-101,-38,2,-4,331,-49,-168,-32,8,84,-117,252,27,265,-75,-114,-244,302,645,84,-67,-219,619,875,-230,-147,-86,-130,-576,781749
250,2,-96,-61,-12,-5,384,-85,-59,-103,-56,164,-210,106,-13,288,-82,-105,-275,312,792,121,-86,-246,663,1108,-247,-172,-151,-159,-525,781750
165,4,-50,-48,-17,4,273,9,-58,35,22,114,-229,133,-27,173,-68,-75,-216,198,589,79,-92,-180,435,792,-182,-148,-175,-131,-190,781751
-37,13,43,0,-8,10,1,26,98,97,2,-19,69,74,19,-53,14,30,41,-31,-15,12,-16,69,-68,-220,59,11,-75,40,221,781752
-64,9,41,15,-2,18,-75,-28,174,107,-44,-110,12,7,19,-74,27,31,84,-41,-69,58,1,95,-104,-439,91,40,-54,63,183,781753
-66,-7,8,-1,-19,-2,-85,-23,4,-26,47,-75,13,-194,14,-70,2,-1,16,-28,30,91,-22,16,-44,-376,1,-10,-122,-12,18,781754
-37,-4,3,-2,-17,3,-43,87,-47,-19,119,-45,-83,-174,-21,-38,4,7,15,8,115,136,6,8,29,-299,-13,-3,-120,-28,32,781755
-20,-12,-1,-15,-31,-12,22,-153,26,52,-153,-44,47,-4,43,-21,-16,-2,-4,23,177,144,-17,-16,83,-202,-23,-22,-127,-55,-35,781756
12,-12,-34,-35,-34,-13,121,37,-9,101,3,10,106,76,68,29,-28,-18,-63,83,325,168,-27,-59,193,22,-59,-47,-140,-74,-137,781757
-5,-1,-15,-23,-26,-3,91,27,-168,-73,-187,-26,-102,-133,-33,45,36,36,12,76,237,149,27,12,136,-83,2,6,-64,-10,18,781758
72,15,-19,-15,-8,12,93,20,-111,-16,-416,23,-92,83,-59,149,42,19,-22,176,424,172,54,-27,312,270,-40,-12,-27,-15,-58,781759
93,1,-34,-36,-9,-5,24,90,-45,-81,-409,-55,-61,160,62,174,11,4,-76,192,465,120,15,-68,355,442,-73,-45,-34,-30,-168,781760
81,19,-30,-37,-20,-7,17,124,-111,-5,-285,18,-236,116,28,192,20,23,-33,229,461,103,8,-31,389,528,-35,-14,5,7,-148,781761
56,2,-19,-38,-20,2,-25,184,-47,-90,-61,134,-246,108,136,158,1,10,-52,195,383,46,-18,-42,341,523,-44,-39,9,12,-84,781762
65,-15,-8,-62,-12,5,-4,58,13,12,167,214,-122,227,108,175,-17,4,-78,200,385,23,-24,-47,346,566,-55,-50,15,20,-156,781763
63,1,6,-38,-12,12,61,141,-84,-22,46,117,25,290,38,130,-29,-15,-61,171,297,-15,-29,-51,269,483,-57,-50,16,16,-122,781764
71,25,9,8,5,15,99,74,-92,-35,74,-72,168,95,-19,90,-57,-51,-94,135,262,-36,-62,-83,230,478,-89,-90,-12,-4,-128,781765
77,31,1,5,14,22,67,-20,-29,-62,71,-160,84,-108,-21,105,-39,-37,-85,139,260,-21,-44,-58,239,496,-59,-73,9,27,-174,781766
49,4,-13,-26,-14,4,8,28,-26,147,20,-159,-12,-19,32,87,-38,-15,-49,121,219,-26,-29,-31,196,439,-21,-48,32,48,-151,781767
-22,-6,2,-13,-18,-17,-40,-52,19,44,-49,-85,57,56,17,20,-12,4,23,39,34,-54,-17,23,37,159,18,-24,33,71,-33,781768
-105,4,18,9,-26,-27,-44,-222,-6,134,-1,-58,-68,-2,-8,-51,41,53,146,-30,-186,-57,49,120,-120,-234,120,47,90,137,195,781769
-99,11,3,23,-20,-28,9,103,-25,77,192,-66,-54,-23,-54,-70,24,20,110,-43,-182,-60,26,82,-112,-280,84,36,59,109,197,781770
-68,10,16,48,-4,-9,11,81,88,75,161,-39,60,-54,-69,-92,3,-1,80,-61,-191,-63,3,56,-132,-355,43,13,15,80,201,781771
40,-1,-12,24,7,15,112,310,-49,19,110,-25,30,-39,-21,32,-28,-29,-19,59,145,46,-29,-36,133,100,-48,-31,-48,19,-137,781772
61,4,-7,-6,2,20,71,160,-99,-67,157,7,36,-226,9,67,-19,-32,-51,84,281,106,-21,-73,210,262,-72,-49,-107,-26,-149,781773
78,9,4,-11,16,32,34,186,16,-252,72,25,-36,-14,11,75,-28,-34,-76,77,337,124,-27,-81,222,328,-80,-65,-146,-53,-161,781774
102,8,-9,-30,8,25,66,146,-104,-270,107,-35,11,-18,42,116,-47,-38,-104,105,463,148,-47,-105,300,514,-93,-75,-174,-74,-190,781775
103,15,-5,-12,3,20,121,141,-50,-64,-35,-14,93,-138,21,130,-36,-29,-91,119,497,151,-39,-105,303,539,-96,-68,-178,-79,-165,781776
100,18,2,4,-4,0,151,233,-1,132,40,-45,169,-46,33,136,-20,-39,-88,116,487,134,-32,-94,293,558,-101,-66,-177,-85,-190,781777
21,19,11,2,-18,-11,-14,172,-20,179,-44,13,135,-76,70,55,14,23,-7,42,246,74,-2,7,110,224,2,-13,-111,-7,32,781778
-150,-3,27,-1,-33,-35,-300,-144,0,92,-53,-7,79,94,79,-93,67,89,155,-90,-215,-7,53,167,-222,-477,169,94,29,129,322,781779
-138,-11,34,-2,-23,-15,-347,-196,-28,-4,-182,-10,-50,-121,42,-86,93,96,190,-56,-259,-13,95,188,-206,-564,175,121,106,160,307,781780
-46,-18,5,-14,-19,-10,-142,-228,-7,-109,33,32,-14,-86,1,-3,57,50,95,67,-15,16,54,80,25,-161,59,49,90,98,61,781781
132,-6,-46,-9,-6,-7,241,137,-44,17,182,107,73,-39,46,178,-45,-60,-132,246,495,81,-49,-128,425,718,-129,-100,-4,-35,-330,781782
164,9,-52,-10,6,2,246,-97,-100,35,55,93,142,-51,46,183,-99,-104,-235,226,575,56,-107,-187,446,948,-184,-171,-76,-91,-462,781783
154,0,-49,-34,-9,-3,132,-125,-95,-112,174,68,42,-121,53,186,-101,-98,-229,216,584,48,-104,-184,436,1041,-182,-173,-87,-86,-399,781784
115,7,-28,-38,-9,3,102,100,-106,-151,167,36,-37,-30,-22,179,-79,-74,-181,201,545,50,-71,-152,398,1026,-154,-138,-56,-56,-323,781785
84,8,-26,-40,-22,-17,123,60,-127,-54,231,55,15,-90,-18,188,-35,-36,-125,206,521,73,-44,-88,379,1013,-89,-98,-15,0,-198,781786
43,0,-41,-32,-34,-37,131,-78,-64,-162,146,-7,-14,160,28,181,-9,-9,-103,204,494,75,-32,-54,346,963,-55,-77,-9,41,-121,781787
-81,15,13,12,-29,-24,-35,127,92,42,90,-28,5,1,25,-7,8,26,21,0,43,-34,-18,56,-24,273,60,-24,12,102,177,781788
-250,8,57,41,-46,-29,-255,-143,116,144,-33,-111,44,-51,-126,-194,84,111,258,-171,-499,-96,58,261,-422,-634,251,125,133,245,503,781789
-309,-10,70,41,-40,-33,-337,-326,171,-170,82,-171,-19,-129,-116,-262,117,132,382,-221,-734,-102,118,337,-553,-1085,300,213,193,297,556,781790
-190,-12,43,43,-10,0,-263,-23,102,-78,-171,-186,-183,-106,-85,-208,51,62,268,-155,-554,-78,66,223,-375,-868,182,133,127,205,277,781791
122,3,-36,3,24,23,104,90,-100,-101,-94,10,-74,-86,59,131,-31,-49,-34,163,318,104,-30,-64,318,452,-78,-29,-15,20,-317,781792
188,12,-41,-20,14,33,234,-122,-125,-64,54,55,140,70,65,233,-24,-26,-108,222,592,156,-15,-127,482,895,-121,-47,-105,-33,-291,781793
139,24,-40,0,9,17,208,26,-65,-165,114,6,-14,129,20,183,-1,-3,-77,162,499,133,-1,-79,371,753,-68,-25,-127,-30,-151,781794
146,34,-31,15,26,23,210,57,-16,-14,102,-6,84,87,5,151,-49,-37,-119,114,474,97,-53,-107,324,742,-98,-74,-183,-68,-188,781795
121,31,-27,12,19,21,171,98,21,77,163,-60,134,-125,20,80,-79,-63,-123,44,383,37,-85,-118,215,614,-115,-93,-220,-102,-167,781796
144,33,-15,15,17,25,222,32,84,109,103,-2,-81,-79,-28,118,-66,-58,-118,84,444,59,-78,-125,263,721,-122,-89,-201,-106,-173,781797
34,27,20,19,2,9,116,-25,-21,215,-152,-48,-19,-56,-49,36,-25,-6,-30,-6,175,18,-51,-26,26,323,-26,-37,-142,-36,92,781798
-218,-1,84,43,-26,-4,-173,-158,126,65,-202,-109,-50,-198,-27,-212,73,110,276,-225,-568,-91,50,249,-515,-870,234,147,55,172,605,781799
-161,11,91,64,5,21,-129,-132,207,85,-87,-111,64,-124,18,-175,107,130,334,-149,-555,-40,109,287,-430,-891,276,198,162,241,485,781800
-22,16,48,45,23,28,12,-69,228,139,94,-6,37,-60,29,-13,85,87,208,36,-156,41,101,177,-73,-294,160,131,162,179,129,781801
173,10,-37,-17,22,30,199,225,23,159,173,126,146,144,65,224,8,-14,-61,269,508,143,19,-78,449,781,-89,-38,50,1,-337,781802
195,6,-49,-28,9,12,168,357,-15,7,112,18,122,-36,-2,207,-51,-65,-155,234,590,106,-48,-147,453,1007,-157,-107,-46,-73,-336,781803
188,17,-31,-9,22,17,130,146,-71,-172,250,-15,-29,-185,36,170,-69,-78,-153,183,549,82,-73,-137,391,1008,-156,-118,-73,-69,-244,781804
167,12,-34,-21,13,13,120,227,-122,-54,77,-17,-97,-22,35,154,-74,-81,-152,163,521,68,-88,-140,365,1028,-139,-126,-91,-53,-293,781805
143,21,-22,-19,-1,17,89,-171,-77,-41,216,-30,-6,19,9,154,-50,-49,-142,156,488,73,-68,-113,330,996,-114,-119,-77,-25,-201,781806
116,17,-32,-35,-17,-3,72,-196,-104,-63,58,34,39,118,-5,156,-44,-22,-111,163,484,95,-62,-83,329,1007,-80,-86,-65,2,-195,781807
80,22,-12,-21,-15,-2,36,169,-33,63,51,19,-36,-84,18,121,-6,4,-32,132,382,90,-41,-15,249,859,-30,-32,-38,48,-115,781808
2,18,25,-15,-10,-3,-89,175,58,42,-15,11,75,-159,8,23,12,43,50,15,93,19,-20,65,6,418,55,0,-24,99,99,781809
-51,16,57,7,3,5,-167,131,-46,107,79,-56,66,-175,19,-40,46,70,140,-57,-104,-6,21,137,-134,64,124,65,30,154,184,781810
-28,2,8,-2,-12,-13,-94,169,-42,-34,63,-45,283,4,69,8,20,25,75,4,28,19,3,57,0,256,49,29,-2,98,13,781811
87,21,-26,-19,0,-7,83,-44,27,98,-79,36,77,30,39,160,-6,-19,-56,153,415,89,-29,-63,297,827,-56,-42,-71,3,-246,781812
116,21,-37,-34,-12,-8,148,-56,-74,22,62,132,-35,74,7,198,-24,-28,-82,160,522,93,-35,-91,340,1010,-87,-71,-122,-30,-218,781813
86,16,-36,-19,-13,-10,115,-132,24,58,114,66,34,223,57,148,-21,-15,-46,98,391,48,-28,-60,228,845,-37,-55,-131,-15,-133,781814
107,20,-33,-16,-9,-9,139,-115,49,-40,-10,10,132,286,74,188,0,9,-33,128,434,53,-28,-42,264,921,-27,-37,-126,2,-166,781815
87,33,-15,-15,1,4,133,-41,-80,-111,38,33,45,50,66,148,-13,-15,-66,91,369,10,-41,-70,199,834,-58,-63,-158,-44,-162,781816
87,26,-10,-26,10,22,140,-16,-24,-24,-67,-44,33,-131,-38,129,-54,-52,-98,70,360,-14,-92,-113,182,857,-98,-95,-180,-89,-237,781817
10,31,11,-15,0,21,87,20,57,-53,-15,-71,168,43,-112,26,-51,-29,-31,-32,119,-51,-78,-37,-14,499,-33,-48,-136,-42,-54,781818
-60,23,33,-4,-7,7,28,88,-25,-17,184,-31,61,-91,-40,-77,-23,-6,39,-126,-150,-88,-48,37,-220,82,36,-4,-74,3,111,781819
-78,10,18,2,-5,-6,-28,52,-32,32,145,-89,-21,-131,-40,-100,-6,-8,37,-136,-201,-78,-29,42,-244,-32,32,-8,-33,20,75,781820
-13,10,15,13,10,16,-31,14,-48,8,8,-73,47,-67,-39,-45,-13,-8,-7,-67,-46,-20,-24,-3,-118,175,-11,-35,-27,-2,4,781821
60,20,-16,-7,8,17,7,-54,36,-1,-56,13,81,70,-76,83,23,16,0,53,199,84,11,-3,87,519,-3,-1,10,8,-31,781822
55,31,-9,5,1,8,22,-53,92,-111,1,55,-54,186,-17,112,49,52,53,78,260,129,47,35,128,582,41,45,45,45,9,781823
6,0,-13,-10,-17,-23,-12,-23,52,-92,-78,21,-176,-59,12,60,25,38,30,18,196,95,10,27,63,485,23,31,38,35,-9,781824
26,18,-9,-17,-13,-14,2,9,73,112,-55,36,29,-149,24,111,47,55,53,68,254,138,20,56,110,555,31,50,63,51,-34,781825
25,11,-8,-14,-13,-6,-36,232,5,-155,-74,-1,117,-91,0,88,34,49,45,46,225,117,10,46,80,522,25,35,45,43,-23,781826
29,0,-4,-20,-22,-11,-62,213,-60,-109,0,-20,-61,-158,53,71,4,15,-1,21,227,101,-5,1,73,544,-8,-12,-12,1,-8,781827
-19,-1,18,-36,-17,-13,-124,-77,-7,50,-91,-1,31,-90,-51,24,21,39,33,-37,86,67,22,44,-48,322,40,16,2,42,124,781828
-59,-2,47,-24,-7,10,-185,32,125,7,186,11,47,-153,12,-52,40,57,83,-87,-94,24,31,99,-176,17,95,49,37,81,202,781829
-18,-6,42,-28,5,20,-171,140,56,114,170,17,161,-46,33,-31,10,24,52,-67,-41,14,1,52,-115,113,44,8,10,50,84,781830
1,15,24,-8,16,13,-128,-90,-29,-11,-54,38,54,85,59,23,20,32,45,-18,22,24,17,50,-41,240,45,30,21,51,9,781831
25,22,2,-11,11,3,-86,-43,-9,20,31,77,-157,-54,-45,57,5,15,10,10,76,-7,12,4,12,379,-5,-8,-17,20,-73,781832
42,11,-9,-12,8,-11,-28,219,38,-77,-108,111,-113,36,-71,79,-19,-7,-25,17,106,-51,-8,-23,46,492,-31,-33,-54,-10,-125,781833
62,21,3,-4,10,-4,74,46,130,-8,-114,97,-76,136,-42,133,18,27,21,67,130,-54,21,5,77,560,9,1,-21,14,-58,781834
59,22,3,0,2,-11,116,-44,65,152,43,119,-45,39,-30,123,16,16,-11,55,108,-83,7,-18,59,567,-22,-14,-33,-4,-126,781835
53,22,6,-5,14,4,72,55,0,0,132,37,-41,44,-51,110,10,8,-21,34,72,-98,-2,-20,38,548,-14,-14,-45,1,-74,781836
26,2,8,-10,3,9,-47,-102,-15,-106,46,-28,-31,-84,-58,41,-36,-25,-53,-30,-42,-152,-46,-45,-72,409,-31,-64,-79,-36,-34,781837
19,-6,0,-14,5,5,-94,-33,127,-95,197,-50,85,84,-53,-15,-73,-55,-87,-73,-72,-170,-76,-80,-126,340,-71,-90,-105,-70,-49,781838
66,8,8,-9,14,16,-1,188,91,-88,35,-52,242,21,-51,19,-84,-55,-114,-30,70,-102,-87,-101,-29,509,-97,-107,-104,-96,-226,781839
38,10,20,1,10,22,105,278,32,102,127,67,170,35,-8,41,-28,-15,-50,-6,92,-19,-32,-34,-24,473,-33,-51,-57,-40,-98,781840
8,22,16,21,1,3,187,-20,100,22,235,68,235,-77,-30,14,-30,-15,-64,-40,82,11,-29,-47,-73,398,-45,-48,-71,-54,-50,781841
-15,38,9,28,3,-11,127,-76,-11,-35,110,-127,103,-60,-151,-41,-46,-41,-65,-94,21,0,-35,-49,-154,237,-55,-52,-91,-70,-96,781842
-20,33,20,30,0,-9,53,115,48,202,118,-142,-23,-210,-102,-63,-34,-41,-37,-107,11,12,-35,-45,-167,176,-45,-52,-87,-72,-26,781843
-10,27,28,11,11,4,21,-57,101,146,144,-60,-15,-118,-37,-26,1,-1,-3,-64,63,65,0,-5,-106,220,-1,-16,-45,-31,-8,781844
-23,10,14,-6,4,-12,-12,-3,165,-10,200,-15,-80,-153,-46,-5,19,31,36,-39,73,82,17,44,-89,203,41,25,-19,2,81,781845
-6,4,8,-1,-1,-2,9,-21,138,56,67,60,-126,66,23,25,27,42,59,-8,134,103,12,57,-44,267,57,50,-4,21,-27,781846
-3,8,17,0,1,6,2,-25,-24,-18,9,123,-13,78,35,19,20,33,41,-17,124,87,8,40,-59,238,25,36,-20,-10,-41,781847
-3,-3,-2,-28,-15,-8,3,-181,-100,-66,30,48,42,43,-56,6,-8,0,-10,-24,123,56,-8,-16,-40,264,-19,-4,-53,-44,-7,781848
79,2,-12,-22,6,0,99,-98,-69,-90,89,-15,89,250,-53,83,-53,-49,-99,36,319,58,-45,-110,116,623,-108,-61,-102,-100,-169,781849
98,5,-8,-11,12,1,122,-36,-81,-24,-245,-38,-15,149,0,90,-68,-60,-136,39,349,29,-74,-132,128,756,-110,-92,-122,-119,-258,781850
76,5,-8,-14,-3,-8,106,46,-59,12,-222,-2,-81,108,48,96,-43,-42,-109,37,307,26,-55,-79,106,742,-63,-65,-89,-73,-138,781851
-26,5,32,-13,-25,-10,3,-3,-4,63,-126,-12,8,103,-23,-21,-22,-7,-38,-88,-17,-85,-22,-13,-152,308,-14,-42,-60,-35,187,781852
-26,16,46,22,4,4,-12,3,-29,77,-36,-41,-15,-66,-58,-31,8,19,32,-96,-139,-127,5,29,-221,159,20,-7,13,11,127,781853
-7,3,33,8,3,0,-5,129,-51,197,17,-50,189,-106,-54,-14,-20,-12,7,-70,-114,-150,-20,-2,-180,251,-26,-23,23,-4,-9,781854
-41,-19,32,-20,-19,-4,-90,-40,-7,103,-23,14,76,-245,-53,-68,-36,-39,-2,-135,-236,-205,-43,-16,-268,103,-42,-42,11,-18,7,781855
-40,-27,24,-34,-11,-3,-137,-123,11,14,46,-26,15,-93,-79,-74,-42,-41,-10,-142,-272,-206,-59,-7,-277,84,-25,-39,28,-4,-17,781856
-53,-19,17,-14,-9,-6,-128,-12,-94,-104,-14,-32,59,103,-54,-82,-34,0,24,-143,-300,-180,-37,26,-286,12,15,-15,59,27,59,781857
69,5,-8,12,9,4,120,-46,-126,-75,111,84,-36,175,14,91,-29,-39,-58,30,107,-58,-24,-65,55,575,-78,-48,28,-28,-164,781858
148,26,-33,6,14,-2,303,91,-183,-41,64,38,52,55,-38,171,-58,-80,-185,118,432,12,-64,-179,258,1057,-188,-124,-81,-129,-330,781859
103,21,-42,-10,-6,-12,300,103,-113,-5,229,53,52,127,-85,139,-90,-90,-230,75,445,18,-105,-218,203,1066,-205,-160,-155,-168,-296,781860
3,10,-8,-24,-18,-20,107,259,-41,40,-98,-62,128,-28,-46,59,-54,-33,-116,-29,209,10,-58,-105,8,671,-90,-72,-123,-98,-26,781861
-86,-17,29,-42,-22,-11,-131,-26,89,-75,-222,-119,176,-65,9,-57,6,28,41,-128,-95,-12,11,29,-236,115,31,20,-74,-9,140,781862
-43,-9,51,-22,-4,7,-116,10,33,-98,-164,-65,101,75,-43,-36,43,49,88,-80,-78,28,53,58,-202,33,63,57,-24,24,171,781863
-39,-3,22,-6,-16,-17,-87,159,1,84,-45,-14,227,11,-56,-26,53,59,84,-50,-44,54,48,61,-169,23,72,60,-14,23,130,781864
-48,-2,19,2,-17,-30,-93,-15,21,111,-158,-15,60,7,-5,-34,47,56,71,-68,-77,46,27,60,-198,-72,67,62,-34,9,128,781865
-48,-2,11,0,-7,-29,-82,39,91,123,-32,-30,35,-29,-12,-56,2,20,41,-87,-66,17,-4,10,-196,-94,15,28,-78,-43,25,781866
-14,2,30,1,15,7,-48,58,125,18,158,3,91,-152,12,-30,5,13,46,-62,-29,20,11,11,-149,-38,20,28,-69,-40,-11,781867
81,-2,9,-19,21,18,76,-3,50,-10,1,91,-77,80,5,73,-43,-31,-61,46,251,59,-22,-87,66,405,-76,-30,-101,-99,-248,781868
143,-2,-29,-48,5,21,147,218,-37,-76,-206,55,-94,68,7,144,-78,-76,-184,104,464,74,-52,-193,225,826,-164,-109,-161,-173,-369,781869
140,13,-41,-26,-9,13,128,32,13,-28,-57,28,98,-25,-19,148,-54,-68,-205,98,470,49,-50,-188,215,917,-159,-132,-154,-166,-251,781870
106,16,-15,-2,1,2,102,-165,-15,-9,172,49,78,-113,-8,123,-38,-54,-180,55,386,3,-41,-151,128,845,-133,-125,-134,-139,-191,781871
-23,-3,9,-11,-24,-17,-23,-54,-53,41,132,-1,90,-84,44,-4,-18,-8,-42,-67,29,-77,-9,-22,-144,367,-16,-41,-31,-41,101,781872
-58,0,31,4,-19,-13,-80,163,33,33,192,-3,-67,-61,75,-34,24,21,38,-85,-155,-99,12,49,-236,153,55,11,77,36,144,781873
-52,-14,24,-30,-29,-25,-152,0,-79,-24,62,2,-148,-165,-6,-45,4,7,34,-99,-203,-125,-1,35,-249,146,26,-10,105,51,124,781874
-97,-9,28,-17,-36,-35,-271,-39,-73,-62,-42,1,-91,34,26,-56,38,42,90,-103,-299,-122,57,93,-298,9,81,35,173,99,271,781875
-98,-15,24,-14,-32,-37,-325,13,-31,-95,-35,-34,-3,63,-43,-33,35,41,84,-75,-281,-105,52,93,-257,51,93,43,198,120,205,781876
-73,-14,20,-24,-26,-31,-309,-26,-12,-91,-28,-54,45,17,45,-30,30,37,83,-71,-264,-93,31,91,-240,65,89,59,189,121,156,781877
-12,-27,8,-44,-15,-16,-92,-46,13,-228,-181,36,-11,3,90,-2,16,11,42,-29,-147,-70,9,40,-138,206,38,30,139,77,33,781878
107,-5,-17,-19,-7,-2,173,-53,-38,-89,51,26,-36,8,41,108,-40,-52,-100,84,236,5,-33,-101,133,746,-99,-60,23,-39,-216,781879
115,15,-24,-3,-1,-10,190,63,-80,-71,202,-3,-108,-105,-13,121,-48,-46,-136,83,320,31,-47,-132,154,827,-135,-80,-64,-94,-245,781880
49,9,-22,-6,-27,-26,74,-9,-97,-84,109,-25,-101,67,22,58,-23,-30,-84,15,192,17,-19,-84,19,571,-82,-44,-98,-74,-127,781881
-51,2,26,21,-14,-28,-63,-67,10,-124,84,-15,-75,-204,17,-73,-15,8,10,-112,-104,-33,-6,9,-221,46,11,2,-97,-15,104,781882
-76,1,34,8,-4,-14,-82,-233,-3,-123,-66,-41,31,-85,44,-79,10,30,55,-106,-153,-21,6,42,-242,-111,52,35,-64,15,168,781883
-44,1,24,-2,-9,-3,-43,0,-13,-34,-121,-8,64,16,-46,-23,48,54,80,-54,-83,26,50,59,-174,-78,83,74,-39,29,121,781884
-43,-5,24,-14,-18,-8,-46,-38,22,-23,-52,120,167,-32,-15,-42,22,33,34,-70,-65,12,38,11,-171,-91,35,42,-69,-19,130,781885
-34,-3,20,3,-6,1,-10,51,-30,131,-279,55,-21,-7,-6,-68,-31,-29,-27,-104,-53,-24,-7,-50,-163,-69,-28,-1,-119,-83,-7,781886
4,10,34,14,16,4,19,1,37,-52,-185,31,45,-110,15,-36,-19,-23,-38,-73,-1,-16,-12,-40,-106,15,-27,-4,-96,-67,-52,781887
18,-3,11,4,-2,-6,-9,15,-21,-27,104,19,92,53,50,8,2,-13,-36,-37,62,0,8,-39,-43,121,-34,-6,-74,-53,43,781888
36,-2,-21,-5,-22,-29,-6,-4,14,65,-52,9,-17,186,69,76,11,-14,-61,33,193,50,28,-59,78,335,-57,-5,-55,-63,-28,781889
65,9,-43,-32,-33,-41,7,-8,-18,-77,63,74,-90,246,43,146,-3,-23,-128,112,341,90,3,-99,210,643,-89,-34,-61,-93,-169,781890
46,4,-14,-45,-35,-23,-47,49,-36,-108,-101,122,-87,64,-51,133,35,35,-53,99,272,83,32,-25,144,576,-16,1,12,-24,-78,781891
-18,-15,25,-34,-31,-13,-90,-39,1,-193,5,81,-5,-1,-22,53,74,83,68,25,16,28,62,78,-27,255,89,69,114,65,94,781892
-42,-12,17,-8,-29,-27,-21,74,-19,-9,-73,-90,126,-83,-42,-43,10,12,-3,-51,-143,-60,14,26,-120,136,29,10,101,23,53,781893
-52,-3,26,10,-35,-29,27,178,-60,-51,12,-81,-42,-235,-33,-99,-34,-39,-54,-98,-230,-112,-27,3,-165,84,-20,-32,99,4,26,781894
-33,9,26,31,-23,-15,98,98,24,-71,161,-57,-123,-42,-71,-71,-38,-42,-51,-57,-188,-95,-32,2,-119,166,-22,-28,135,12,42,781895
-14,4,27,28,-27,-16,127,114,1,42,88,17,-192,-32,-37,-29,-18,-24,-35,-20,-131,-68,-12,15,-62,270,-7,-18,154,35,22,781896
-36,9,39,32,-21,-17,80,125,36,47,92,49,-79,-2,44,-55,18,5,3,-48,-210,-69,22,57,-117,148,34,15,172,70,91,781897
-109,-3,39,27,-26,-22,-90,12,49,37,-137,-72,72,-116,-1,-118,35,29,67,-117,-383,-95,44,102,-271,-202,88,51,168,96,185,781898
-46,1,26,15,-12,7,-80,-90,67,53,101,7,-39,23,40,-32,48,36,68,-36,-191,-24,59,71,-114,-9,62,56,124,94,212,781899
-30,-1,27,-6,-20,8,-80,-246,76,-73,-16,42,-62,38,66,-25,48,45,94,-32,-167,-11,62,84,-97,-45,72,86,94,88,219,781900
-26,-9,23,-10,-24,-6,-96,-346,33,30,-156,3,-135,70,14,-33,48,32,88,-49,-168,-17,50,68,-103,-111,74,88,51,66,77,781901
-21,-11,7,0,-25,-24,-45,-135,-78,47,-128,-36,-211,13,3,-43,11,4,24,-57,-115,-25,18,2,-66,-69,8,37,-19,3,-21,781902
-9,-11,-12,-4,-34,-18,-8,8,-144,68,-304,-85,-237,-11,-4,-24,-12,-22,-22,-50,-64,-35,-17,-34,-31,4,-36,2,-68,-33,-60,781903
25,8,8,15,-16,6,37,-2,-106,60,-207,-41,-26,34,35,-3,-17,-27,-47,-42,6,-18,-9,-63,4,60,-47,-17,-103,-54,-64,781904
18,7,13,16,-29,10,26,2,-166,-48,-56,-4,2,247,2,-23,-23,-28,-57,-62,0,-38,-3,-68,-1,45,-36,-9,-115,-64,-33,781905
-8,-6,4,-4,-32,-1,3,-81,-152,52,-130,28,-33,214,6,-33,-14,-22,-45,-68,-29,-36,2,-56,-16,-2,-25,-3,-99,-61,69,781906
0,10,13,9,-23,1,30,73,78,55,-121,17,52,76,-48,-22,0,-7,-29,-54,-20,-26,12,-32,-2,0,-13,11,-70,-39,54,781907
20,3,10,5,-23,-6,62,169,6,-78,-55,53,81,14,11,-14,-19,-31,-70,-34,22,-31,-20,-61,40,97,-52,-20,-78,-68,-19,781908
54,15,0,21,-16,6,127,102,-116,30,44,46,86,24,15,32,-28,-40,-94,4,104,-10,-42,-86,114,264,-80,-35,-77,-79,-114,781909
59,17,2,14,-24,19,164,63,-90,26,-50,28,-39,24,13,46,-20,-27,-99,24,140,5,-33,-64,140,322,-62,-24,-55,-60,-88,781910
38,16,8,-3,-27,8,144,-48,1,12,278,-26,-10,-129,-64,25,-14,-20,-95,18,90,-1,-25,-49,108,302,-54,-30,-21,-58,38,781911
-7,20,18,12,-23,1,65,-79,50,-61,-52,-45,179,45,29,0,9,1,-48,5,-11,4,-5,-3,43,167,5,-3,38,-11,47,781912
-33,21,16,7,-30,4,-6,-124,64,-31,51,-67,113,50,-18,-18,10,6,-46,16,-69,6,-3,19,17,118,18,-9,80,22,101,781913
-41,8,11,3,-29,2,-45,-179,16,-9,-28,-67,40,-48,31,-14,12,7,-58,26,-76,13,2,14,38,157,16,-20,106,36,84,781914
-79,-13,4,-9,-36,-13,-75,-134,5,-9,-143,0,11,-65,83,-62,5,2,-28,1,-161,-1,1,31,-19,43,42,-10,123,51,190,781915
-68,-8,10,-4,-40,-13,-19,-15,25,59,-56,24,73,68,41,-39,37,25,23,26,-140,30,26,63,3,60,50,26,150,75,226,781916
-65,1,1,1,-38,-25,7,80,1,6,-77,10,-114,232,-61,-8,76,49,75,61,-104,70,91,100,56,83,70,75,185,104,145,781917
84,20,-43,-23,-31,-12,105,102,-94,-46,40,25,9,205,19,166,46,9,-44,222,317,166,60,-17,398,712,-36,21,121,30,-232,781918
149,8,-58,-49,-47,-9,87,-12,-15,-92,-174,191,-220,36,68,234,25,4,-123,261,511,165,30,-91,521,1024,-85,-24,28,-21,-277,781919
169,4,-63,-51,-44,-17,81,-120,-89,-62,-34,61,-233,42,24,226,-33,-48,-200,211,568,114,-31,-157,529,1165,-158,-93,-75,-93,-350,781920
116,-1,-31,-43,-43,-10,2,-56,-111,78,78,-34,-140,29,-5,117,-71,-74,-190,72,389,12,-73,-153,343,909,-141,-121,-143,-104,-189,781921
-26,10,41,-5,-41,4,-154,-65,75,111,102,21,-53,46,-22,-22,17,29,18,-85,-62,-63,-10,34,-19,162,62,20,-48,27,192,781922
-43,2,37,-10,-30,8,-152,-159,87,-57,158,83,85,-11,3,-3,66,75,79,-69,-113,-44,50,79,-14,40,94,78,8,80,160,781923
-41,-2,28,-8,-31,2,-117,-83,75,-37,-54,-11,-63,-155,63,-5,61,68,80,-67,-121,-45,55,68,-7,-1,72,81,6,66,172,781924
-4,14,32,3,-11,22,-36,52,-22,79,-15,-79,-72,-193,59,-1,37,40,44,-66,-73,-35,25,22,30,58,37,51,-11,34,36,781925
3,9,23,8,-13,13,-31,58,-18,37,-80,-34,-90,-76,-14,-14,16,14,-15,-75,-84,-57,10,-16,21,46,1,7,-36,0,89,781926
-7,-5,3,-13,-37,-4,-32,-117,-28,120,-126,3,-147,88,-76,-22,2,2,-25,-72,-81,-61,1,-19,22,51,-4,-3,-38,-8,120,781927
132,10,-48,-14,-26,-4,180,-8,-53,-7,148,-24,-44,-5,14,166,-13,-36,-129,135,397,62,-23,-127,419,787,-118,-56,-52,-79,-304,781928
286,24,-99,-42,-20,-14,350,111,-212,-182,212,90,11,-80,56,324,-112,-130,-367,288,894,125,-114,-320,769,1643,-318,-201,-190,-231,-619,781929
293,38,-53,-43,-1,9,318,20,-142,7,408,175,34,46,45,316,-134,-133,-400,259,931,111,-142,-342,747,1770,-332,-234,-233,-248,-540,781930
210,23,-27,-45,-27,6,221,52,-15,-11,315,65,48,-32,50,224,-135,-113,-351,163,722,64,-146,-297,563,1540,-278,-221,-228,-230,-405,781931
-17,12,24,-21,-58,-23,-60,-2,63,20,-61,-47,16,-131,-56,1,-41,-6,-98,-36,102,-16,-67,-59,77,590,-37,-67,-97,-52,35,781932
-82,5,32,-17,-64,-27,-145,-268,34,2,-144,-1,29,39,-36,-52,-10,19,7,-39,-63,-1,-28,32,-12,284,42,2,-7,23,177,781933
-74,15,34,8,-40,-1,-128,-324,53,-180,-63,25,92,158,-50,-32,36,53,45,1,-74,41,19,78,16,202,93,40,65,66,210,781934
-65,10,23,4,-46,-16,-85,-141,29,-152,55,6,35,113,-53,-24,46,68,52,26,-79,65,34,90,22,175,94,44,76,74,143,781935
-48,16,5,17,-40,-25,5,-215,98,32,102,-92,66,-37,-4,-2,44,65,56,52,-20,77,60,75,78,227,70,47,80,72,73,781936
-43,9,-3,12,-35,-15,10,-224,133,1,117,13,148,-28,-35,4,24,33,20,51,2,68,36,43,99,274,48,23,47,46,42,781937
93,23,-16,-2,-14,8,78,59,38,129,252,1,-142,-121,33,150,-2,8,-68,191,351,138,8,-45,393,831,-39,-21,14,-7,-167,781938
229,19,-78,-61,-29,-17,196,116,-46,15,481,100,-31,115,72,320,-71,-86,-277,323,830,184,-67,-247,742,1653,-243,-153,-110,-163,-526,781939
206,18,-74,-79,-53,-38,138,146,-124,-13,60,145,5,151,-4,342,-63,-65,-289,299,886,164,-65,-239,747,1805,-226,-162,-142,-162,-421,781940
102,18,-41,-70,-65,-37,-19,180,-59,-174,-175,28,-21,56,-34,231,-25,4,-144,153,579,95,-48,-102,474,1366,-90,-81,-92,-62,-91,781941
-80,17,29,-40,-54,-32,-230,-27,-12,-47,-280,2,59,117,6,28,48,87,69,-57,7,-6,15,90,20,484,106,49,11,75,299,781942
-102,-2,51,-61,-43,-8,-225,110,116,-27,-83,2,65,6,-24,-41,30,70,80,-119,-174,-55,13,97,-89,197,105,49,34,85,252,781943
-49,-7,53,-31,-19,21,-127,-49,42,5,-78,-13,130,63,-26,-59,-23,21,10,-140,-187,-87,-37,35,-79,198,49,-1,6,37,101,781944
-21,11,39,15,-13,22,-35,-47,108,-123,164,72,-6,55,-65,-37,-9,15,9,-114,-126,-76,-16,22,-25,268,32,-8,11,35,73,781945
-25,22,29,23,-25,7,-12,6,131,-212,313,-10,95,-15,-6,4,22,37,30,-75,-95,-47,13,39,12,315,54,15,43,62,103,781946
-32,9,12,15,-31,-3,-41,15,30,-63,123,-72,3,54,3,-3,-7,8,3,-83,-91,-45,-11,12,24,322,18,-4,22,27,79,781947
63,10,-16,-1,-22,-4,55,62,3,-107,177,-78,52,58,7,62,-54,-47,-99,-4,138,-9,-55,-98,208,684,-77,-75,-29,-46,-137,781948
222,22,-51,-24,-15,-2,251,4,-2,-77,238,50,-34,-31,-24,227,-106,-109,-267,161,613,61,-112,-249,559,1432,-223,-180,-118,-155,-428,781949
299,21,-67,-55,-9,-5,379,12,-41,-55,314,62,29,68,46,341,-135,-135,-370,274,947,124,-145,-322,783,1992,-298,-232,-176,-213,-595,781950
227,27,-43,-64,-25,-2,273,96,-22,-112,-72,21,82,23,19,288,-120,-101,-312,205,824,99,-132,-260,643,1863,-240,-197,-197,-186,-373,781951
-47,16,29,-34,-46,-21,-102,-123,63,-1,23,-161,-8,-10,-122,-17,-33,11,-49,-79,50,-29,-59,-6,19,641,20,-49,-104,-12,176,781952
-88,7,37,-32,-46,-28,-170,-257,33,-45,2,-134,59,-135,-74,-54,-7,23,17,-72,-73,-19,-24,38,-39,363,56,-7,-51,21,189,781953
-109,2,40,-23,-37,-7,-157,-56,105,105,-50,-198,257,-50,-78,-82,8,20,39,-78,-134,-11,-7,44,-76,187,51,11,-48,12,237,781954
-48,0,34,-21,-14,8,-63,-205,43,153,-58,-188,227,-184,-141,-55,-20,-4,-6,-25,-50,-2,-23,-1,9,303,-5,-16,-82,-25,32,781955
-23,8,35,-10,-2,19,-49,-78,64,-7,26,-64,145,-88,-56,-60,-19,-3,-6,-24,-57,6,-27,-2,12,259,-3,-16,-81,-31,23,781956
-18,16,37,3,0,13,-68,-46,-11,175,45,-132,-69,-81,-75,-69,-26,-6,-18,-31,-49,-14,-25,-22,6,250,-16,-33,-81,-44,82,781957
184,43,-20,9,15,7,183,255,-120,259,188,131,-127,47,-1,181,-78,-97,-202,202,571,108,-65,-214,518,1210,-215,-147,-137,-160,-421,781958
550,54,-154,-70,17,-3,606,354,-257,43,401,296,-211,262,88,629,-228,-253,-650,606,1794,311,-214,-612,1437,3255,-585,-410,-352,-436,-1226,781959
497,43,-136,-108,-21,-27,506,324,-203,-270,165,177,41,199,78,629,-217,-221,-680,538,1824,273,-242,-580,1356,3509,-551,-436,-409,-439,-1009,781960
255,37,-46,-110,-37,-33,166,426,-105,-86,-41,97,236,55,33,372,-127,-95,-422,237,1130,122,-169,-318,746,2542,-287,-291,-306,-253,-448,781961
-72,9,70,-76,-51,-42,-264,151,-50,67,-163,-149,291,-33,-81,10,31,93,19,-125,53,-51,-21,82,-82,870,105,-14,-53,54,362,781962
-123,0,63,-42,-52,-49,-228,-173,13,28,-109,-124,255,-12,-58,-53,37,90,99,-164,-160,-67,4,126,-185,494,139,37,47,105,315,781963
-128,-1,39,-26,-46,-48,-145,-282,30,0,-290,-49,15,-81,-58,-75,-9,35,64,-180,-199,-98,-32,80,-181,450,73,9,38,64,231,781964
-108,-6,38,-13,-28,-19,-130,-268,-26,-47,-359,-241,-38,-96,-83,-84,-20,3,72,-177,-212,-115,-45,65,-169,426,54,3,42,60,160,781965
-80,6,37,-17,-25,-15,-134,-133,31,-150,-77,-92,153,-72,-86,-70,-9,11,86,-155,-195,-100,-33,75,-147,446,66,16,66,73,180,781966
-57,15,40,10,-11,1,-99,-154,28,-12,-87,-49,77,-33,-77,-42,-7,22,57,-114,-135,-67,-22,57,-85,504,55,4,69,66,113,781967
17,25,34,13,19,28,7,-165,35,210,-49,-6,-32,-92,-59,21,-31,3,-50,-31,53,-22,-45,-28,64,777,-13,-54,31,3,-103,781968
105,22,19,-7,9,32,136,73,6,27,-18,0,55,-141,9,127,-72,-53,-171,60,347,14,-94,-134,279,1258,-118,-120,-38,-80,-325,781969
82,26,24,-9,6,20,141,142,44,-171,58,-55,48,-120,-2,114,-61,-43,-130,38,337,9,-74,-113,239,1234,-108,-109,-67,-75,-147,781970
12,14,23,-9,0,-1,50,35,0,11,31,-127,-90,-91,8,25,-69,-42,-78,-48,153,-38,-76,-70,85,924,-71,-75,-93,-65,-72,781971
-47,10,16,-3,0,-4,-98,-44,17,-166,111,-173,39,-132,-40,-65,-46,-20,15,-119,-89,-65,-54,26,-96,512,18,-22,-75,4,74,781972
-58,7,31,-6,1,-7,-227,-25,48,57,-85,11,5,-23,14,-42,12,44,114,-76,-115,-14,6,104,-97,362,119,62,-5,83,156,781973
-61,4,22,-21,-8,-12,-324,92,-5,135,-270,47,-70,0,-28,-56,10,28,80,-62,-125,-13,7,62,-98,293,65,34,-48,31,151,781974
-46,6,11,-26,-5,-9,-370,68,-13,96,-310,-7,60,-80,33,-11,30,48,76,-19,-61,11,34,59,-32,331,73,43,-45,36,129,781975
-80,0,19,-25,-10,-19,-309,-59,-26,59,-136,-59,22,116,77,-1,69,93,132,-12,-93,43,72,106,-57,220,137,96,-8,85,203,781976
-74,-7,24,-9,-5,-12,-121,-254,4,30,37,-16,64,-48,-12,-21,42,74,135,-32,-126,25,59,90,-91,147,119,85,-11,70,152,781977
-95,-9,43,7,7,2,-83,-174,30,127,-52,-34,42,-6,-83,-112,10,48,111,-134,-295,-60,23,79,-220,-43,91,52,-24,32,224,781978
-258,-7,113,56,20,19,-267,-23,62,154,-188,-193,176,-15,-88,-327,64,104,294,-343,-872,-173,72,271,-664,-948,269,171,104,157,525,781979
-245,-14,100,72,31,28,-216,29,85,100,-76,-197,153,-282,-72,-355,47,71,283,-349,-935,-179,49,255,-666,-1078,240,162,155,166,406,781980
-181,-7,65,78,38,33,-62,-39,135,-310,116,-131,112,-170,-17,-274,38,45,213,-266,-760,-139,39,198,-496,-816,157,122,174,115,330,781981
-1,6,1,70,44,45,192,99,0,-43,157,-1,-34,-17,31,-73,-30,-41,16,-71,-225,-41,-6,17,-61,54,-22,15,115,-5,-22,781982
1,20,-7,80,31,19,169,-79,-22,120,356,-1,-126,-25,12,-58,-42,-57,-28,-65,-122,-40,-24,-21,-31,245,-35,-17,66,-31,-5,781983
-41,1,-25,27,-5,-24,66,9,-27,13,285,27,-7,11,-49,-46,-18,-34,-3,-58,-111,-25,-6,-1,-23,306,-14,-9,87,2,-10,781984
-56,-18,-6,-9,-1,-24,-11,-119,20,89,39,20,11,84,30,-55,12,2,20,-59,-154,-9,28,49,-67,254,29,6,113,37,41,781985
-60,0,18,-7,14,-6,-40,-182,26,105,53,-25,98,25,0,-54,35,28,66,-67,-204,-12,43,93,-92,171,87,40,128,87,43,781986
-80,-10,4,-8,6,-6,-65,-121,-74,147,-243,-84,173,37,-15,-80,28,22,104,-74,-247,-17,41,99,-112,110,96,68,137,97,83,781987
-171,-11,26,33,5,0,-220,-84,24,-25,-302,-79,-52,-16,-37,-186,59,68,234,-193,-566,-69,72,213,-373,-423,201,139,173,161,351,781988
-387,-32,89,54,-10,-19,-491,-346,188,-122,-218,-109,-42,-33,-70,-430,142,167,470,-430,-1225,-180,150,431,-874,-1527,413,280,284,299,802,781989
-484,-44,105,64,-10,-23,-602,-155,191,-69,15,-152,83,-123,-117,-548,185,200,587,-500,-1583,-227,211,522,-1098,-2198,496,353,374,377,956,781990
-360,-43,78,75,18,4,-443,-79,121,101,54,-69,169,175,-45,-413,182,177,533,-339,-1324,-145,229,446,-822,-1936,420,347,383,347,621,781991
3,-27,-14,48,56,35,43,-93,-44,126,93,179,14,159,74,-57,41,-1,133,31,-288,21,98,63,-5,-391,31,111,155,64,-113,781992
49,-13,-29,47,57,41,168,-11,-57,94,-28,16,-88,82,41,-54,-14,-55,11,12,-135,-10,22,-40,45,-139,-61,21,-12,-50,-160,781993
56,9,-20,55,60,43,214,0,-74,63,-116,36,-156,-5,48,-28,2,-13,45,25,-95,13,36,-5,46,-94,1,54,-23,-24,-126,781994
67,17,5,56,61,58,215,253,44,70,10,74,-122,112,67,-14,7,-14,48,23,-45,14,47,-6,62,-37,-3,53,-35,-33,-147,781995
48,-10,-11,22,34,40,153,158,-111,-57,34,137,-38,94,47,-16,-20,-36,-6,14,-9,3,35,-44,66,24,-45,3,-75,-80,-184,781996
58,3,1,17,47,50,79,108,-80,47,57,65,128,5,80,29,21,8,11,45,27,41,51,-11,92,77,-6,26,-44,-38,-120,781997
-201,-20,58,32,5,22,-269,-180,22,-44,-242,-68,32,-96,-33,-275,52,70,186,-263,-695,-136,72,175,-522,-1004,185,122,15,78,485,781998
-562,-34,165,100,0,18,-707,-338,139,60,-451,-253,58,-199,-109,-712,179,216,631,-677,-1906,-340,198,585,-1420,-2955,580,377,288,377,1240,781999
-508,-42,157,119,36,37,-641,-136,253,212,-309,-111,160,-23,-22,-690,196,210,678,-594,-1937,-293,229,585,-1334,-3131,585,424,419,420,1029,782000
-270,-42,58,83,56,38,-267,-81,140,137,-138,127,59,-40,-51,-368,171,130,458,-255,-1223,-103,216,382,-698,-2085,369,326,411,293,469,782001
26,-45,-68,47,51,35,215,-195,-136,-82,88,194,-74,112,14,-22,49,-21,104,79,-249,69,121,45,72,-518,25,99,238,52,-208,782002
72,-17,-87,66,42,15,286,59,-167,0,66,7,-118,255,-36,-5,-25,-83,-37,81,-54,43,19,-57,149,-120,-69,-9,104,-53,-253,782003
48,-11,-59,50,36,10,184,115,-89,113,107,-4,-57,317,5,-16,-27,-65,-46,62,-59,24,17,-51,103,-76,-65,-29,73,-50,-182,782004
7,-19,-55,23,24,0,84,34,-34,122,3,113,82,195,-6,-26,-1,-30,5,48,-118,22,36,2,51,-134,-12,11,100,-7,-59,782005
-7,-23,-61,16,21,2,56,-37,-21,-130,-51,68,-36,3,37,-10,44,12,87,64,-100,68,84,65,57,-122,35,70,139,46,-17,782006
5,-18,-35,37,37,18,59,115,29,-71,80,21,114,-47,102,-2,83,41,126,68,-109,88,128,107,29,-156,71,103,153,75,63,782007
-226,-34,40,46,18,10,-234,48,38,28,-128,-73,106,8,17,-296,100,95,270,-236,-826,-97,132,274,-561,-1246,244,175,179,172,577,782008
-485,-44,124,92,26,26,-534,-255,139,142,-230,-158,61,-283,-35,-615,176,188,594,-516,-1679,-247,193,530,-1175,-2676,499,349,340,359,943,782009
-506,-60,130,109,23,40,-554,-264,190,225,-267,-221,-48,-251,14,-663,198,203,684,-534,-1884,-263,222,579,-1256,-3140,564,419,411,420,939,782010
-384,-46,79,110,42,36,-398,-173,84,250,-124,-171,109,54,-20,-527,196,166,597,-364,-1564,-177,227,483,-958,-2790,468,380,397,368,662,782011
37,-19,-29,73,81,64,83,89,-18,195,10,146,-32,178,102,-59,87,20,189,91,-355,61,145,95,2,-990,73,161,212,91,-84,782012
126,-21,-47,43,86,75,214,323,-31,60,43,173,-60,114,148,37,38,-14,20,124,-30,73,91,-27,184,-460,-44,62,72,-28,-245,782013
139,-21,-40,34,67,54,264,366,-12,95,136,194,-118,71,142,54,-19,-45,-44,100,59,42,35,-73,213,-268,-76,7,-10,-70,-308,782014
142,-19,-61,38,54,39,284,357,-67,-53,46,33,-173,25,91,47,-46,-84,-94,78,138,25,-8,-121,219,-126,-113,-31,-71,-107,-288,782015
112,-20,-62,23,35,35,208,246,-58,-38,-171,65,-76,77,50,21,-43,-77,-95,42,99,-2,-31,-114,162,-132,-112,-40,-96,-109,-212,782016
109,2,-38,14,34,27,154,215,-73,47,-10,88,35,103,76,37,-31,-53,-92,46,132,10,-17,-107,181,-64,-89,-34,-82,-91,-155,782017
