-107,-43,-21,-20,-21,-11,10,25,-58,213,38,-14,-1,-13,-32,-358,-278,-5,42,-292,-262,-24,12,67,-732,-689,53,-35,26,89,160,804988
-104,-31,-17,12,-3,-6,-16,-191,53,50,-27,2,-175,92,-28,-379,-307,-22,45,-187,-294,-51,8,49,-753,-798,37,-42,-7,56,107,804989
-27,-17,-25,9,11,8,-10,-367,-13,91,23,84,-231,-11,45,-304,-314,-19,6,53,-87,-1,20,-2,-601,-566,-4,-63,-50,-1,-38,804990
-14,-42,-27,-14,4,12,-19,-369,-52,232,-19,144,-172,-110,20,-256,-304,-5,8,266,3,31,44,-12,-554,-508,-2,-55,-93,-33,-48,804991
-1,-48,-20,-17,9,27,-20,-238,66,13,-111,68,-345,3,-14,-247,-312,-6,13,424,39,39,38,-24,-560,-549,-11,-58,-142,-74,-45,804992
11,-27,14,-8,24,45,-10,-220,-3,-83,33,20,-246,49,-8,-243,-275,35,58,512,32,67,69,20,-578,-653,30,-14,-129,-57,22,804993
27,-27,-2,-3,19,27,17,-92,-119,-34,161,14,-229,72,5,-258,-292,27,31,526,60,56,45,1,-570,-665,11,-35,-156,-93,26,804994
19,-36,-6,-2,11,4,-7,-282,-100,-26,-13,12,-337,-122,17,-314,-350,-21,-23,452,35,13,-14,-51,-604,-709,-40,-76,-198,-147,-31,804995
41,-30,-24,-8,25,17,24,-252,80,-192,-135,62,-230,-74,44,-320,-382,-73,-83,375,101,15,-35,-109,-518,-567,-95,-113,-201,-179,-142,804996
117,-15,-58,-2,28,12,172,26,17,-36,-82,185,-259,130,20,-207,-371,-68,-137,365,425,118,-10,-137,-204,-15,-139,-116,-142,-169,-258,804997
117,-12,-77,-16,-10,-30,209,99,-62,9,107,128,-283,217,109,-176,-373,-56,-164,269,562,155,-11,-136,-45,327,-131,-97,-107,-132,-255,804998
96,-9,-68,-20,-15,-26,173,-98,-92,74,76,117,-337,170,102,-197,-370,-27,-167,144,551,146,-26,-110,-11,455,-116,-92,-69,-94,-161,804999
25,-22,-16,-16,0,-11,40,-374,-83,96,126,3,-340,14,-39,-328,-355,-30,-110,-80,258,49,-31,-36,-199,125,-53,-72,-28,-33,17,805000
-15,-44,-2,-26,6,7,-30,-347,25,81,-3,-97,-269,-37,-1,-408,-345,-49,-79,-209,78,-4,-46,-26,-300,-84,-44,-74,-14,-9,-12,805001
20,-51,-7,-28,-2,23,20,-201,18,-41,-82,-6,-208,111,-5,-392,-365,-92,-133,-223,137,-15,-91,-77,-214,59,-98,-122,-35,-35,-131,805002
22,-40,2,-20,-5,20,56,-119,-39,-86,-32,47,-175,65,41,-372,-348,-76,-112,-224,116,-10,-75,-53,-197,89,-83,-114,-12,-5,-103,805003
-1,-34,4,-7,1,13,54,-299,-39,-285,-29,12,-265,-38,38,-363,-321,-37,-72,-238,40,-22,-48,-24,-227,15,-49,-84,-2,21,33,805004
-14,-38,-20,-11,-9,-8,32,-93,59,-139,-49,-18,-230,-53,-41,-375,-329,-63,-82,-228,22,-41,-54,-44,-221,13,-67,-105,-35,9,0,805005
-2,-33,-43,-20,-14,-23,57,175,10,4,176,-47,-40,46,-25,-340,-309,-57,-66,-155,89,-14,-44,-41,-146,72,-73,-99,-32,-1,-57,805006
116,-20,-57,-25,0,-5,210,-68,-27,27,222,87,-196,102,14,-181,-291,-67,-145,39,426,73,-56,-119,125,568,-135,-136,-63,-50,-192,805007
131,-23,-51,-25,-5,2,227,-75,-56,-68,232,32,-416,114,25,-167,-303,-90,-196,71,494,69,-88,-163,142,694,-173,-164,-134,-91,-262,805008
113,-20,-28,-25,4,3,176,-42,-62,-2,172,-47,-430,-55,43,-191,-308,-91,-186,73,430,54,-90,-155,72,589,-160,-182,-177,-104,-294,805009
0,-44,-6,-48,-14,-21,-18,-267,-20,-13,-112,-94,-234,-100,-7,-314,-266,-45,-83,-1,148,1,-62,-75,-183,103,-71,-136,-166,-68,36,805010
-78,-50,23,-29,-14,-14,-136,-181,-84,70,-219,-79,-156,-142,-34,-403,-203,12,33,-61,-107,-24,-15,28,-384,-405,27,-57,-115,-15,201,805011
-94,-54,18,-20,-16,-24,-135,-83,-8,11,-219,-116,-172,-43,-45,-394,-195,26,60,-45,-138,-8,4,35,-413,-607,40,-28,-100,-18,205,805012
-78,-56,3,-18,-12,-25,-108,-254,-21,99,-49,-79,-202,-118,19,-358,-175,42,80,-6,-80,39,22,32,-352,-612,46,11,-75,-12,158,805013
-62,-57,-17,-24,-17,-26,-103,-205,-77,125,-39,-59,-94,39,-14,-349,-197,32,59,-17,-51,43,8,25,-310,-590,35,2,-74,-37,66,805014
-60,-50,-9,-17,-13,-26,-101,-193,-53,-8,-50,-70,-408,115,-64,-343,-177,46,58,-31,-76,56,18,55,-294,-637,60,22,-36,-21,113,805015
39,-23,-25,5,2,-20,49,-152,-188,57,-90,6,-342,120,61,-197,-143,45,17,117,234,153,49,12,14,-175,8,24,6,-24,-67,805016
269,-15,-115,-35,4,-31,367,9,-156,92,-197,179,-311,186,110,92,-255,-81,-283,374,1020,264,-53,-264,669,1172,-266,-146,-123,-210,-603,805017
348,-6,-127,-65,4,-27,416,235,-154,-5,181,259,-285,130,93,196,-307,-120,-432,449,1358,280,-118,-374,913,1867,-359,-241,-206,-288,-693,805018
262,-14,-84,-95,-16,-23,190,67,-172,-170,131,246,-336,173,105,135,-287,-92,-386,363,1207,210,-116,-294,770,1777,-288,-221,-206,-232,-573,805019
3,-36,-3,-94,-44,-31,-251,-156,-8,-123,-3,2,-322,113,-25,-154,-215,1,-148,76,405,24,-66,-52,150,651,-57,-92,-122,-49,60,805020
-102,-29,45,-43,-30,-25,-407,-46,-21,-60,6,6,-87,-1,-50,-269,-136,60,24,-22,-54,-43,-18,84,-130,-46,89,1,-7,83,241,805021
-88,-58,37,-47,-26,-20,-232,51,-7,44,-50,32,-130,-6,-47,-282,-152,23,21,-2,-94,-57,-39,57,-101,-95,57,-13,9,68,163,805022
-50,-58,17,-26,-22,-21,52,87,106,-18,-90,-51,70,-20,-80,-246,-180,-30,-25,56,-12,-73,-60,3,-2,46,-21,-52,-19,21,49,805023
-45,-29,15,13,-7,-2,110,42,-41,-107,-72,-39,127,-73,-22,-230,-175,-56,-43,64,-23,-81,-69,-22,8,26,-39,-69,-42,4,58,805024
-22,3,29,22,13,15,57,3,-57,-99,148,-72,-77,-86,-5,-196,-134,-19,-13,104,-18,-42,-33,11,38,7,-13,-41,-24,24,39,805025
11,-8,2,3,2,4,27,-58,6,-120,31,0,-133,24,-47,-120,-89,-5,-7,179,110,27,-2,10,170,184,-9,-38,-3,32,-19,805026
166,7,-52,-13,15,-10,200,-112,-39,1,-33,162,-180,35,57,69,-141,-64,-195,332,586,113,-71,-157,552,946,-167,-136,-84,-87,-355,805027
264,7,-75,-51,10,-21,265,-159,-133,-195,224,125,-278,-41,18,138,-237,-164,-370,334,888,107,-182,-324,737,1473,-320,-275,-220,-231,-597,805028
230,-16,-68,-72,-12,-32,241,-47,-146,-225,40,46,-227,-192,27,106,-236,-177,-366,237,878,83,-199,-329,679,1488,-314,-279,-260,-253,-502,805029
26,-6,17,-40,-9,-17,30,-89,19,-137,52,-52,-1,-161,40,-89,-101,-32,-112,-47,294,11,-101,-75,190,559,-65,-113,-152,-70,13,805030
-115,-3,55,-9,-17,-13,-116,88,-94,-47,8,-186,-26,-116,-41,-246,-29,51,85,-273,-167,-43,-13,88,-148,-254,96,13,-26,52,234,805031
-99,-21,24,-17,-18,-13,-58,-79,-65,-115,-62,-172,-100,-122,-76,-244,-65,-4,14,-364,-111,-38,-56,7,-77,-212,17,-41,-49,-7,136,805032
-123,-36,10,-10,-17,-29,-105,-177,153,35,-91,-117,-16,-136,-68,-289,-91,-38,-24,-466,-167,-64,-100,-31,-117,-322,-14,-67,-69,-43,95,805033
-113,-32,17,2,-12,-29,-90,-115,148,122,-108,-127,147,70,-20,-261,-89,-26,-43,-470,-112,-32,-103,-37,-48,-290,-15,-50,-46,-40,51,805034
-108,-32,4,-3,-24,-31,-31,-287,126,102,-108,-120,24,97,13,-209,-59,-3,-15,-428,-63,11,-77,-8,28,-222,12,-20,1,-16,102,805035
-16,-19,-12,-1,-19,-25,47,-48,-7,141,-2,25,96,83,23,-104,-46,0,-28,-281,138,71,-45,-32,223,64,-25,-14,19,-15,-43,805036
277,-2,-71,-36,15,6,336,220,-110,183,263,108,36,-50,51,198,-126,-101,-291,107,878,183,-115,-280,833,1290,-262,-162,-99,-183,-605,805037
341,19,-68,-45,18,16,424,330,-114,74,399,47,45,-183,56,273,-160,-131,-401,260,1110,184,-151,-356,974,1766,-345,-236,-202,-263,-618,805038
229,16,-29,-36,6,2,366,140,-14,-103,68,44,-10,-206,48,186,-153,-117,-348,260,890,99,-160,-294,759,1529,-292,-232,-226,-239,-458,805039
47,-6,15,-31,-26,-16,161,142,98,-3,-113,-71,-82,-125,-19,-21,-100,-47,-152,140,294,-46,-114,-115,285,650,-113,-139,-176,-125,-128,805040
-44,5,63,12,-6,10,39,13,67,-13,40,-95,56,-93,-99,-103,2,30,38,129,-102,-86,-32,41,36,4,40,-11,-54,12,216,805041
-35,3,65,0,8,20,-25,78,69,60,-107,-99,-51,-45,-51,-73,9,14,29,213,-100,-69,-26,23,83,-26,15,-9,-46,2,129,805042
-35,-18,48,-25,6,16,-140,62,1,48,15,-32,-54,-57,-7,-30,19,7,10,278,-86,-62,-33,5,133,-19,4,-16,-47,-8,133,805043
-19,-18,26,-30,3,-1,-152,85,1,124,74,0,180,-115,-17,8,49,22,36,332,-55,-42,-14,28,187,-21,20,3,-7,-1,121,805044
-22,-11,23,-22,-6,-20,-114,-86,54,105,171,-18,161,7,56,15,72,29,63,316,-95,-28,4,61,177,-99,45,28,25,11,160,805045
-15,-10,10,1,-10,-22,-55,103,6,-77,193,-59,186,51,0,35,52,5,30,297,-50,-25,-22,19,224,-43,12,8,8,-6,127,805046
88,-2,-10,-7,4,-13,51,25,-52,21,189,49,164,31,5,139,-6,-56,-86,328,258,7,-75,-96,481,449,-103,-62,-52,-86,-162,805047
206,4,-46,-34,12,-4,169,18,-117,-264,85,141,66,92,26,274,-18,-81,-222,378,652,92,-111,-200,776,1069,-201,-129,-104,-170,-449,805048
202,0,-46,-41,2,-10,167,134,-67,-98,-89,84,134,-10,15,289,5,-54,-225,286,711,127,-101,-186,797,1198,-190,-116,-100,-153,-393,805049
38,5,19,-17,-16,-4,-28,57,47,-32,-137,-46,183,-262,-39,93,68,10,-54,-49,223,29,-58,-24,383,459,-24,-13,-33,-22,-52,805050
-43,13,47,4,-10,-9,-115,-56,92,-11,-4,-81,291,-18,33,-23,106,35,57,-302,-55,-10,-33,59,188,-9,61,52,45,56,153,805051
-13,1,23,-6,-11,-21,-53,8,45,2,129,20,204,-5,-73,11,104,14,5,-413,52,13,-47,16,298,156,24,26,58,41,38,805052
-11,0,16,-7,-11,-15,-38,166,88,-195,-6,51,123,11,9,20,125,23,6,-501,58,16,-33,25,319,174,23,47,77,48,81,805053
-21,-12,2,-30,-13,-24,-49,51,139,-54,-39,4,154,152,5,32,126,8,1,-521,72,24,-26,19,341,196,13,53,93,49,-3,805054
12,-1,2,-26,4,-11,-13,139,62,34,72,115,109,81,-35,79,114,2,-10,-469,158,49,-23,5,425,339,4,55,105,35,-102,805055
54,15,6,-14,2,-8,52,187,70,59,132,73,101,16,32,142,127,8,-17,-342,258,73,-12,-7,507,488,-12,51,97,38,-74,805056
259,16,-57,-48,2,-1,306,347,-114,-41,581,137,91,41,58,381,37,-96,-260,37,877,162,-92,-245,988,1510,-232,-119,-50,-132,-554,805057
326,17,-79,-82,3,11,388,149,-183,194,437,92,-32,-27,12,472,-13,-154,-407,234,1124,168,-141,-374,1125,2006,-351,-238,-191,-259,-658,805058
294,29,-50,-62,13,20,351,135,-73,91,288,46,82,77,-34,444,1,-140,-375,299,1007,122,-149,-342,984,1871,-313,-239,-240,-263,-561,805059
90,34,30,-27,-8,9,127,226,48,-78,82,2,93,48,-10,250,105,-8,-132,210,388,10,-62,-120,455,916,-95,-95,-172,-113,25,805060
-48,30,67,-1,-20,-10,-10,168,113,8,30,-35,116,53,-32,157,197,79,76,196,-54,-37,25,53,156,179,57,45,-52,22,289,805061
-62,37,55,5,-9,-17,-63,244,98,-188,36,-138,267,26,3,181,227,64,107,267,-105,-33,42,63,153,38,65,72,-10,27,255,805062
-47,24,47,-14,-15,-26,-166,20,26,-102,-81,-92,232,-150,-67,189,235,60,110,296,-137,-42,35,62,144,-56,69,78,-14,17,233,805063
-4,36,60,-8,7,-5,-166,219,70,-40,-97,-23,198,-84,-51,229,271,81,144,357,-93,-14,59,92,209,-54,89,106,34,35,126,805064
-5,26,63,6,10,20,-144,225,45,-4,63,-31,169,60,-50,249,277,84,147,346,-100,-21,54,87,222,-88,85,120,48,28,88,805065
83,33,29,3,7,24,19,131,65,13,150,79,70,-41,-8,346,226,12,23,387,162,28,7,-32,449,322,-27,43,-9,-51,-150,805066
432,55,-79,-39,34,24,456,330,-172,41,392,151,47,122,125,745,105,-147,-373,703,1265,231,-124,-390,1317,2098,-381,-185,-179,-305,-924,805067
559,61,-140,-98,13,-6,589,501,-206,-82,146,178,124,142,73,936,63,-206,-605,773,1873,312,-201,-568,1704,3163,-550,-315,-301,-444,-1205,805068
527,69,-123,-116,-8,-18,525,497,-288,7,198,128,164,45,47,936,94,-159,-596,641,1896,297,-204,-530,1642,3352,-509,-314,-325,-415,-1011,805069
155,59,-1,-80,-45,-39,73,295,-73,-51,-80,-9,244,45,-43,522,213,-2,-235,75,827,73,-116,-166,740,1785,-157,-93,-189,-152,-50,805070
-104,38,59,-29,-53,-56,-230,119,41,-106,-37,-150,288,-32,-76,213,315,95,80,-322,-12,-53,-24,106,149,442,112,95,21,90,418,805071
-42,56,55,-8,-29,-43,-130,91,-49,57,-112,-81,258,-63,65,283,352,103,100,-368,67,19,18,106,300,546,113,126,134,150,244,805072
-16,53,39,-17,-37,-54,-84,138,27,112,-123,-2,350,64,9,295,299,61,45,-423,117,16,-16,64,371,648,52,92,132,127,116,805073
8,40,46,-28,-20,-28,-87,224,122,-1,-231,-51,301,-109,-58,282,241,-7,-8,-450,148,-9,-67,-2,391,728,-3,51,97,84,18,805074
32,47,50,-12,-4,8,-78,60,121,69,29,-37,346,-4,-86,300,259,11,1,-419,161,0,-41,9,421,749,14,57,110,93,42,805075
156,53,4,-40,-7,6,122,321,-7,110,97,33,303,52,-79,482,241,-31,-108,-176,551,96,-77,-100,749,1360,-97,-11,59,26,-334,805076
660,82,-168,-115,10,18,751,485,-292,46,553,266,108,107,121,1082,60,-273,-670,505,2129,364,-265,-647,1953,3908,-626,-375,-231,-367,-1468,805077
902,107,-232,-171,17,24,1032,409,-374,-89,656,269,144,131,112,1392,-69,-395,-1045,856,3051,467,-402,-962,2501,5539,-924,-637,-540,-653,-1928,805078
778,112,-183,-185,-11,-8,876,612,-310,-84,392,75,138,99,79,1272,-59,-342,-998,785,2813,361,-415,-894,2156,5344,-842,-637,-656,-657,-1505,805079
150,96,25,-108,-57,-46,125,282,25,-124,-55,-121,298,3,-20,616,138,-56,-379,182,1032,8,-253,-299,640,2624,-236,-277,-481,-267,-44,805080
-245,82,147,-23,-67,-59,-334,-126,187,-50,-258,-224,339,-176,-36,182,334,153,174,-139,-319,-184,-40,181,-337,364,220,60,-160,105,684,805081
-195,76,120,2,-49,-43,-319,-240,148,21,-45,-180,307,-401,-24,211,346,139,210,-20,-366,-141,11,172,-265,159,212,101,-68,119,545,805082
-138,72,101,10,-28,-27,-323,-184,80,4,-28,-267,74,-158,-28,259,351,138,211,67,-316,-94,36,160,-168,124,199,122,-16,106,405,805083
-104,55,83,-12,-34,-34,-298,-32,135,53,17,-177,198,-141,-26,292,333,123,187,114,-250,-67,39,136,-80,165,173,118,3,79,314,805084
-86,48,96,0,-22,-15,-227,-153,97,83,-91,-77,336,-115,16,308,328,125,178,135,-207,-51,49,119,-17,179,145,130,29,76,367,805085
54,68,65,5,5,6,-20,-94,77,84,-38,68,179,6,69,455,269,60,49,273,188,27,1,-17,326,775,13,64,10,-19,-86,805086
484,80,-85,-63,19,17,496,575,-92,-148,344,250,238,174,122,919,93,-147,-429,687,1545,266,-142,-453,1391,2957,-424,-218,-197,-322,-1085,805087
718,108,-144,-115,15,9,773,743,-140,33,575,324,224,144,134,1208,17,-216,-713,883,2408,412,-229,-680,1982,4459,-657,-376,-351,-503,-1441,805088
823,124,-179,-157,-5,-3,879,695,-254,58,433,433,78,180,124,1330,-66,-272,-924,902,2900,457,-329,-840,2258,5450,-809,-517,-494,-623,-1553,805089
239,95,10,-110,-58,-45,146,388,-62,116,-29,37,221,-29,16,676,53,-65,-436,122,1285,83,-242,-330,862,3132,-302,-253,-357,-284,-252,805090
-156,73,133,-44,-63,-54,-342,-30,287,-9,-181,-167,316,-64,-38,211,209,110,91,-347,-33,-105,-70,122,-71,1050,140,69,-27,112,449,805091
-69,69,115,-39,-24,-9,-269,-26,205,-58,-221,-200,423,-85,-9,242,196,62,93,-312,38,-50,-52,96,96,1124,107,90,86,136,271,805092
-64,52,94,-57,-35,-8,-230,-17,86,-129,-242,-132,389,-21,-131,231,190,49,79,-338,15,-58,-42,87,127,1115,90,80,123,147,208,805093
-71,54,78,-36,-39,-18,-182,-141,39,-57,-151,-39,-56,-175,-134,259,240,82,121,-299,24,-27,8,109,170,1113,112,116,177,187,266,805094
-83,59,65,-8,-42,-36,-192,2,61,-46,-172,-144,138,-172,-61,231,231,57,109,-301,-15,-35,-7,91,151,1037,84,103,156,175,221,805095
122,54,1,-25,-20,-28,55,257,74,-79,54,-59,123,-77,-37,400,124,-56,-99,-72,499,49,-88,-112,571,1834,-118,-37,51,26,-357,805096
761,100,-181,-104,20,4,849,772,-247,-238,518,305,173,154,114,1138,-86,-310,-749,707,2457,413,-273,-740,2078,4946,-739,-451,-280,-426,-1704,805097
1175,148,-285,-183,31,22,1342,832,-374,-110,696,480,64,126,176,1664,-248,-460,-1279,1202,3943,628,-460,-1189,3059,7491,-1163,-776,-643,-798,-2423,805098
965,145,-213,-215,-15,-20,1070,705,-317,-32,506,257,179,-29,76,1465,-243,-385,-1209,963,3558,469,-505,-1068,2530,7167,-1016,-763,-788,-780,-1759,805099
114,106,63,-120,-74,-60,43,23,0,-86,-11,-115,277,-189,-83,533,23,-25,-356,65,1119,-16,-272,-253,473,3402,-198,-277,-513,-242,178,805100
-326,75,182,-30,-80,-68,-470,-336,200,-153,-331,-291,203,-298,-64,17,208,179,257,-354,-415,-243,-55,252,-618,812,290,87,-170,152,856,805101
-244,63,153,-3,-63,-39,-405,-229,88,-102,-121,-300,164,-317,-46,66,198,151,258,-248,-412,-200,-22,202,-488,679,251,89,-82,124,654,805102
-193,60,148,1,-41,-17,-407,-52,145,-134,-16,-211,274,4,-71,85,201,148,262,-186,-407,-164,21,195,-428,582,234,123,-25,129,523,805103
-153,58,137,-1,-30,-19,-352,-130,224,147,-139,-157,154,105,-88,104,198,139,256,-131,-363,-130,49,174,-360,559,221,140,14,114,498,805104
-123,54,104,9,-19,-17,-265,-88,78,21,-11,-51,203,-62,-36,118,166,100,207,-100,-273,-119,32,106,-258,662,167,98,13,71,378,805105
-32,46,64,-3,-14,-24,-130,17,31,-6,39,-36,55,-154,-17,184,97,39,90,-37,-39,-79,-19,15,-61,994,56,37,-13,-11,61,805106
207,65,1,-18,2,8,172,130,-11,-243,215,-14,-25,80,-40,460,36,-43,-129,230,687,91,-55,-178,515,2124,-141,-67,-68,-139,-397,805107
343,81,-33,-45,9,4,354,323,-102,35,203,74,-123,128,71,650,8,-84,-298,392,1214,198,-95,-313,894,3025,-285,-157,-134,-221,-625,805108
368,92,-44,-73,-5,-3,382,205,-72,-67,251,128,90,30,45,695,-27,-92,-392,402,1414,210,-137,-363,997,3469,-345,-219,-196,-264,-636,805109
52,58,42,-50,-34,-30,-17,-124,-6,73,-219,-35,-5,-10,-62,324,38,32,-119,33,528,17,-76,-79,258,2186,-65,-61,-90,-73,112,805110
-116,43,85,-20,-39,-39,-216,-238,155,-27,-200,-128,85,-17,-81,116,84,80,95,-159,-40,-69,-31,98,-116,1302,108,67,58,92,335,805111
-121,55,95,5,-28,-34,-244,-46,121,-58,-184,-70,288,64,-36,107,107,92,151,-153,-121,-51,10,150,-127,1158,146,129,158,168,337,805112
-86,38,68,-1,-24,-33,-220,90,-43,-76,-49,-163,125,-78,-58,127,93,74,144,-119,-63,-29,16,123,-42,1262,118,109,191,175,300,805113
-78,43,52,-14,-21,-33,-228,51,-74,-198,53,-111,42,-175,-30,125,115,82,162,-103,-72,-16,34,129,-39,1251,124,118,201,187,259,805114
-57,38,56,-31,-21,-30,-200,85,-51,-188,-41,6,160,-80,-12,154,115,85,157,-49,-9,11,45,121,24,1335,118,124,196,193,214,805115
-48,31,60,-31,-16,-24,-138,5,-61,-98,-24,0,-90,2,-8,156,98,79,141,-43,-16,-1,40,115,15,1327,120,116,180,183,221,805116
18,45,33,-1,-6,-25,25,78,-78,-11,-33,-38,-109,110,-79,197,40,22,38,5,148,-5,-21,19,122,1547,16,37,75,82,-4,805117
-168,34,98,25,-20,-39,-226,-85,114,-80,-244,-172,295,92,-34,-49,62,75,199,-240,-427,-146,-1,159,-381,609,165,105,71,143,330,805118
-198,37,116,43,-6,-15,-312,-49,127,44,-90,-138,232,-82,-58,-99,101,119,293,-271,-634,-155,66,230,-524,180,229,173,121,190,453,805119
-112,29,80,29,8,-6,-202,-81,33,33,27,-141,258,-167,-80,6,76,77,192,-154,-364,-88,50,118,-296,499,133,126,83,110,278,805120
-69,11,43,1,-8,-22,-120,-133,-44,-12,64,-119,20,-184,-63,56,35,35,103,-96,-153,-57,15,44,-146,786,66,73,34,34,82,805121
-71,26,39,19,-15,-31,-73,-150,-52,-4,50,-21,-83,64,-16,74,33,57,130,-85,-108,-28,34,59,-136,809,78,100,42,32,104,805122
-103,22,40,29,-18,-37,-44,-130,-77,24,-109,26,98,75,10,38,23,58,134,-118,-144,-47,31,68,-198,715,97,93,28,35,114,805123
-117,27,38,41,-24,-28,-26,-123,-16,55,-161,-3,68,-36,-54,22,10,43,99,-134,-150,-60,26,43,-213,692,82,71,2,12,98,805124
-117,20,34,27,-22,-17,-46,77,48,-80,-310,37,40,-115,-78,17,4,35,90,-133,-165,-64,26,30,-219,675,66,73,-12,2,76,805125
-101,14,60,15,4,13,-87,106,32,-93,-276,21,245,-150,-60,-22,17,54,116,-153,-243,-76,45,62,-284,533,100,80,22,24,151,805126
-162,15,81,26,-4,4,-158,-231,117,-139,-212,-69,191,-193,-41,-123,38,76,179,-235,-495,-105,58,138,-467,130,161,126,75,76,348,805127
-298,13,122,58,-1,-1,-311,-369,186,58,-183,-144,78,-5,-24,-286,90,136,351,-376,-966,-181,124,299,-803,-636,316,236,185,203,753,805128
-335,16,133,101,13,7,-332,-298,193,117,-175,-149,193,183,-23,-322,129,163,448,-367,-1143,-183,175,375,-876,-992,381,295,286,283,781,805129
-140,-5,35,66,6,-7,-80,-119,50,-12,112,-105,-12,149,42,-118,6,29,173,-111,-515,-67,69,116,-335,-18,113,128,197,97,154,805130
3,11,31,47,42,20,48,11,-72,-90,50,19,-184,-29,-21,5,-51,-20,26,33,-150,-5,29,-9,-51,628,-8,44,129,13,-98,805131
16,3,17,29,33,31,29,69,-29,-46,-19,2,-46,-83,-50,-43,-96,-50,0,6,-178,-51,-19,-26,-84,683,-39,12,92,1,-43,805132
25,14,11,42,29,26,58,53,-38,64,41,-29,25,-17,-34,-30,-82,-38,5,53,-143,-27,-16,-14,-49,781,-22,8,97,28,-22,805133
34,24,34,55,39,42,13,18,-46,43,91,60,-93,-20,11,2,-39,7,45,91,-109,10,31,24,-13,844,30,40,120,71,79,805134
-38,15,37,35,25,16,-138,26,63,135,-44,5,-42,29,67,-67,-34,26,97,21,-273,-34,39,74,-158,605,77,58,121,108,194,805135
-94,-1,35,19,11,2,-293,-105,-76,115,-16,-38,-50,115,-5,-126,-46,27,121,-52,-412,-87,31,91,-286,386,91,61,101,108,199,805136
-357,-13,138,50,14,14,-578,-257,200,163,-198,-122,-136,-53,-65,-390,94,184,435,-336,-1171,-192,160,390,-898,-924,383,279,240,318,833,805137
-624,-33,225,115,3,20,-742,-126,339,-7,-486,-227,6,-150,-95,-732,204,308,781,-652,-2115,-341,282,702,-1602,-2597,676,503,415,548,1413,805138
-591,-43,194,140,22,33,-644,-346,210,-70,-561,-234,-51,-167,-67,-781,139,237,759,-674,-2206,-369,251,638,-1595,-2915,605,474,430,494,1154,805139
-128,-24,51,105,62,59,-95,-200,-61,98,-329,-67,50,-138,50,-297,-23,16,309,-189,-908,-110,114,189,-512,-1003,159,216,274,167,9,805140
126,-11,-48,51,55,46,192,79,-102,63,-36,27,28,-31,49,-17,-124,-89,-7,54,-32,23,23,-88,103,398,-96,25,73,-54,-381,805141
99,-2,-22,46,55,42,133,143,-29,151,-45,83,6,152,22,-19,-83,-19,15,16,-18,21,67,-32,30,437,-36,44,48,-34,-212,805142
44,-5,-5,35,38,26,70,195,106,56,130,42,-29,133,40,-52,-66,2,30,-34,-78,10,73,-2,-71,334,-3,49,43,-14,-51,805143
9,2,16,32,39,30,8,75,34,-4,167,-22,-53,103,39,-106,-54,19,51,-77,-179,-3,72,37,-171,183,42,71,44,11,3,805144
-32,-10,16,18,22,8,-43,-21,-5,21,-146,-14,-5,28,5,-146,-60,17,86,-115,-257,-14,64,70,-242,49,80,85,53,31,7,805145
-115,-3,43,35,18,2,-89,-13,100,78,-315,-31,104,-3,43,-209,-11,77,181,-161,-454,-40,110,165,-404,-276,167,157,114,112,332,805146
-413,-31,96,66,-10,-22,-390,-182,174,24,-369,-158,55,-34,-37,-534,61,164,441,-462,-1303,-209,177,402,-1071,-1625,398,291,227,279,866,805147
-612,-46,148,122,3,-12,-642,-416,98,68,-302,-242,-54,-266,-118,-811,101,204,652,-694,-2052,-358,234,583,-1600,-2878,574,401,344,409,1217,805148
-651,-44,176,172,41,29,-724,-548,192,-40,-530,-307,-75,-301,-149,-931,130,213,758,-746,-2419,-401,271,661,-1788,-3587,649,473,435,477,1335,805149
-174,-33,23,127,78,59,-111,-138,-2,-181,-49,-37,5,-125,-33,-413,4,33,347,-164,-1131,-124,168,251,-667,-1653,237,235,329,216,219,805150
156,1,-57,82,81,72,330,44,-121,-38,96,163,-41,12,72,-19,-110,-90,-39,202,-42,55,66,-65,125,117,-78,8,131,-29,-327,805151
107,-10,-53,76,48,36,280,117,1,-22,396,259,-166,81,49,-69,-142,-89,-69,150,-46,6,20,-71,51,216,-84,-24,37,-68,-217,805152
57,-9,-48,72,48,30,219,-9,-61,-53,274,194,-210,-33,41,-106,-148,-84,-45,115,-126,-28,16,-59,-45,151,-63,-26,9,-59,-167,805153
44,-8,-41,67,42,29,223,-103,-28,-37,201,98,-92,11,25,-126,-133,-55,-34,86,-194,-41,16,-29,-116,83,-46,-27,4,-32,-116,805154
57,-2,-39,52,47,30,266,3,-85,44,-6,67,103,-102,68,-119,-137,-54,-52,97,-159,-33,0,-38,-119,159,-51,-44,-14,-28,-133,805155
-110,4,28,83,48,30,41,-120,46,12,-170,-82,161,-168,12,-303,-84,21,93,-95,-603,-119,67,102,-517,-555,101,31,29,53,329,805156
-685,-44,190,134,2,0,-731,-641,256,-38,-522,-322,215,-65,-132,-931,118,264,711,-726,-2326,-418,260,676,-1871,-3355,662,414,314,446,1525,805157
-920,-88,223,168,-16,-28,-1062,-660,344,5,-648,-279,-91,-111,-179,-1202,219,351,1032,-956,-3160,-513,363,938,-2385,-4905,911,625,553,653,1883,805158
-808,-84,194,195,8,-8,-917,-533,325,149,-317,-177,-115,22,-91,-1089,248,340,1043,-792,-2975,-397,428,919,-2107,-4909,877,670,665,682,1570,805159
-177,-51,-14,136,62,29,-115,-246,38,239,56,161,-263,35,90,-398,70,96,452,-77,-1154,-10,290,334,-591,-2199,294,333,473,286,114,805160
178,-28,-93,61,82,52,282,189,-37,46,172,266,-312,177,99,-24,-101,-76,-37,228,21,155,121,-69,225,-278,-101,45,181,-47,-438,805161
118,-25,-59,41,69,47,188,111,-9,17,56,212,-183,317,6,-91,-85,-51,-28,114,-60,105,103,-13,54,-330,-59,42,115,-30,-252,805162
112,-25,-65,27,56,50,207,25,-139,59,91,162,-254,67,52,-92,-130,-69,-74,85,-10,89,57,-45,50,-186,-84,2,62,-59,-235,805163
95,-25,-48,38,59,63,184,-24,-148,-62,67,55,-334,168,51,-137,-149,-73,-76,33,-51,46,35,-39,-17,-212,-80,-13,27,-56,-176,805164
99,-14,-35,36,55,64,152,115,11,45,14,-32,-255,23,1,-131,-142,-53,-73,27,-34,50,44,-34,-43,-173,-68,-14,18,-52,-191,805165
-33,-24,-19,37,34,35,-28,-54,1,108,83,-70,-56,45,-97,-254,-97,-5,29,-103,-357,-19,73,67,-326,-646,43,38,37,16,115,805166
-336,-38,84,89,30,29,-415,-148,52,298,-262,-49,17,-170,-96,-572,29,139,378,-410,-1289,-186,171,387,-1043,-2151,351,250,202,244,773,805167
-532,-67,119,100,5,15,-635,-235,187,129,-376,-104,98,-87,-84,-803,78,195,602,-597,-1956,-302,247,568,-1500,-3277,541,378,322,394,1126,805168
-696,-86,163,124,4,12,-782,-358,222,124,-433,-267,108,-55,-13,-976,161,282,853,-723,-2541,-376,349,778,-1871,-4350,744,542,485,554,1361,805169
-185,-39,9,109,63,60,-136,-60,120,72,150,71,43,76,71,-416,64,102,462,-97,-1186,-67,276,354,-688,-2379,328,332,400,298,246,805170
156,-24,-110,51,57,59,293,350,-77,113,114,302,-125,192,57,-36,-107,-92,-49,259,-39,82,90,-73,143,-485,-101,11,102,-57,-429,805171
101,-33,-112,28,20,15,274,157,-96,128,225,239,-269,90,-3,-37,-123,-82,-101,238,21,44,50,-95,100,-300,-122,-46,-2,-95,-373,805172
78,-16,-85,44,31,20,254,-62,-72,79,256,196,-256,109,76,-34,-96,-46,-64,228,-11,34,56,-58,26,-307,-72,-26,-17,-75,-269,805173
87,-24,-75,35,32,21,266,130,-117,112,123,129,-78,158,43,-57,-132,-76,-102,194,-13,6,16,-80,-20,-259,-101,-67,-69,-106,-241,805174
60,-27,-60,28,35,25,233,7,-113,30,182,95,-120,46,-17,-88,-121,-57,-79,153,-82,-8,27,-48,-101,-353,-63,-59,-58,-82,-140,805175
-108,-27,-9,38,16,20,12,-190,-31,-15,80,-10,-11,-139,-9,-266,-64,8,83,-53,-553,-104,71,98,-506,-1083,82,38,-15,11,305,805176
-601,-57,138,103,-8,3,-642,-465,328,64,-370,-237,138,-293,-121,-838,102,224,623,-620,-2076,-368,238,606,-1696,-3572,578,368,251,376,1342,805177
-713,-82,161,130,-4,-2,-818,-465,248,14,-460,-194,-24,-108,-97,-981,177,270,819,-712,-2537,-391,328,757,-1931,-4496,719,504,439,519,1441,805178
-546,-80,103,136,18,9,-612,-506,177,-13,-389,48,-74,42,-81,-807,177,238,732,-506,-2143,-254,348,659,-1512,-4070,609,478,501,479,1026,805179
-84,-52,-42,74,56,37,-28,-80,36,69,70,177,-149,272,5,-299,32,32,255,-16,-785,26,229,205,-389,-2010,161,202,330,169,-68,805180
156,-33,-99,29,61,66,246,172,-97,94,126,141,6,340,53,-26,-90,-92,-99,211,66,159,100,-89,200,-597,-124,-10,124,-70,-495,805181
122,-24,-84,22,53,54,202,18,-70,92,-48,176,-61,7,55,-80,-116,-100,-133,128,75,118,44,-91,133,-520,-127,-44,44,-87,-334,805182
99,-21,-66,17,36,41,186,-58,-26,56,1,121,-67,-5,81,-86,-107,-76,-121,89,81,104,29,-69,84,-488,-103,-38,24,-80,-249,805183
84,-28,-70,8,30,29,164,-116,-137,89,91,93,86,-25,77,-76,-98,-56,-101,84,93,114,42,-46,69,-430,-90,-41,17,-61,-250,805184
67,-31,-75,-1,18,10,135,28,-122,105,79,42,-73,53,46,-75,-84,-57,-109,76,90,108,37,-25,53,-409,-92,-43,5,-48,-201,805185
1,-24,-53,7,9,2,47,-183,-105,92,84,95,-82,110,45,-131,-41,-20,-44,27,-44,73,67,29,-68,-585,-20,2,25,0,-46,805186
-173,-33,-2,16,-1,2,-193,-207,58,124,-160,43,-89,187,50,-307,26,69,158,-165,-583,-41,121,191,-494,-1420,154,107,98,131,319,805187
-213,-41,32,54,14,30,-260,-296,164,44,-244,-12,-27,82,13,-387,50,119,263,-221,-834,-76,159,289,-668,-1876,246,169,157,198,444,805188
-271,-45,58,72,17,30,-317,-279,74,54,-51,-59,-221,71,21,-490,49,104,324,-282,-1101,-148,151,324,-854,-2338,284,193,174,221,522,805189
-37,-34,-31,32,30,30,-1,7,-30,69,285,81,-172,194,26,-227,-36,-26,88,7,-436,-33,78,75,-286,-1333,49,44,89,56,-112,805190
88,-36,-95,-7,14,7,169,62,-125,-47,159,107,-48,171,59,-40,-107,-84,-112,169,41,10,8,-96,35,-509,-114,-75,-43,-84,-311,805191
101,-13,-68,7,29,31,197,-9,-165,9,247,57,-129,22,111,-1,-79,-52,-109,207,87,3,33,-88,37,-390,-97,-74,-62,-88,-281,805192
84,-12,-47,5,20,40,168,22,59,136,96,85,-166,98,119,-29,-79,-56,-110,181,26,-25,20,-68,-45,-445,-87,-71,-77,-88,-238,805193
56,-18,-42,20,16,31,148,-15,51,10,-153,9,28,111,131,-64,-79,-55,-77,139,-64,-73,4,-44,-132,-584,-64,-62,-80,-74,-215,805194
63,-9,-43,26,20,30,177,213,28,-103,-164,11,-163,126,35,-58,-78,-61,-87,135,-56,-78,4,-58,-120,-546,-84,-83,-82,-88,-224,805195
16,-17,-46,14,7,16,122,-157,103,-130,-12,-27,-33,93,-34,-110,-94,-62,-89,75,-134,-93,-20,-62,-207,-670,-79,-83,-85,-96,-116,805196
-71,-42,-25,3,-13,0,-42,-255,-21,-32,35,16,108,103,35,-224,-74,-41,-21,-53,-370,-115,5,14,-390,-1037,-4,-50,-48,-37,56,805197
-16,-22,-35,14,11,24,-31,-22,-17,82,-9,124,-142,116,33,-150,-40,-22,-6,9,-215,-27,31,27,-248,-859,10,-23,-4,-8,-46,805198
3,-30,-58,-17,-8,1,1,53,-48,-39,264,51,-19,104,43,-100,-52,-32,-50,39,-33,31,11,-21,-106,-609,-28,-46,-5,-32,-56,805199
-8,-28,-67,-23,-15,-5,-8,209,-69,-23,109,98,-132,109,71,-99,-34,-19,-37,10,-22,51,36,15,-85,-589,-6,-32,10,-10,-107,805200
31,-7,-54,-6,11,10,18,-25,-113,55,35,169,-79,158,39,-55,-26,3,-54,30,78,91,40,1,-11,-452,-23,-30,15,-3,-93,805201
42,-19,-45,-13,5,6,25,-47,-46,33,210,72,43,124,42,-78,-40,-29,-88,9,118,87,10,-35,6,-385,-52,-70,-23,-36,-148,805202
51,-16,-43,-10,11,18,56,-24,-19,-29,215,60,-43,128,10,-84,-37,-37,-89,-8,133,89,11,-43,21,-355,-63,-66,-34,-46,-162,805203
57,-18,-46,-21,20,21,57,233,13,-141,-124,59,-137,32,18,-70,-30,-28,-71,-5,150,100,19,-32,29,-333,-65,-40,-27,-41,-151,805204
92,-20,-43,-21,34,30,61,-94,-49,-116,25,-23,-63,71,59,-53,-44,-34,-100,13,218,100,2,-60,74,-228,-92,-75,-45,-60,-116,805205
60,-20,-35,-10,22,28,14,-159,-3,88,-155,-97,-275,47,14,-93,-64,-45,-103,-28,156,69,-16,-56,18,-300,-92,-89,-80,-64,-91,805206
4,-12,3,20,20,33,-57,-105,10,184,144,-72,-302,-55,-34,-132,-19,11,-3,-65,-26,29,37,34,-124,-582,6,-30,-31,3,80,805207
20,-9,-23,16,8,18,2,-3,-13,50,153,68,4,-85,34,-75,-9,10,-14,12,73,43,37,16,-44,-427,-8,-20,-15,-1,-33,805208
63,-20,-59,-21,-16,-6,76,-112,-62,-53,7,85,-89,-55,-26,-22,-59,-34,-112,69,230,20,-18,-68,74,-126,-89,-89,-73,-67,-227,805209
49,-10,-37,-17,-3,4,61,-204,-43,-110,-21,117,-57,-9,-38,-16,-39,-27,-81,68,154,-24,-2,-45,4,-189,-55,-81,-74,-52,-98,805210
-3,-8,-29,-6,-2,1,10,-35,28,120,117,95,-116,75,-15,-50,-24,0,-32,56,-29,-77,14,-3,-137,-397,-5,-61,-54,-11,17,805211
-11,4,-16,4,1,-9,-14,-173,46,-19,-167,20,-160,172,48,-34,-3,21,-14,91,-123,-109,40,16,-207,-488,13,-44,-21,23,5,805212
1,4,-17,3,4,-1,-15,43,5,-76,-19,24,178,-22,6,-3,15,34,2,129,-135,-111,32,33,-203,-479,24,-27,-4,36,4,805213
-1,4,-29,-13,-2,-15,14,50,-5,12,-81,-28,75,-14,-5,-14,-13,2,-23,131,-133,-127,8,-1,-205,-451,0,-53,-12,13,-71,805214
37,-7,-32,-5,-6,-9,87,-77,-46,3,-53,80,-202,-51,-9,31,-21,-13,-43,170,-38,-95,3,-28,-128,-288,-31,-63,-17,-3,-121,805215
-23,-9,-5,0,0,4,39,-179,42,-38,-188,98,-171,55,33,-37,5,20,3,86,-184,-94,15,36,-245,-530,40,-24,0,37,40,805216
-181,-25,27,14,-20,-6,-164,-258,57,-192,-391,-87,-180,-194,3,-234,37,65,126,-125,-623,-161,54,168,-587,-1279,177,44,50,113,379,805217
-168,-25,18,18,-6,-12,-193,-354,26,-28,-172,-149,-56,-8,37,-219,80,96,189,-122,-592,-86,110,197,-510,-1361,190,100,114,141,342,805218
-166,-25,4,25,-10,-13,-188,-265,-40,35,-38,-118,-105,-53,50,-195,100,107,201,-136,-493,-13,142,197,-415,-1333,187,128,134,148,299,805219
-102,-29,-24,16,-6,-11,-115,-17,-17,-24,76,43,-101,1,-5,-148,71,62,125,-93,-280,50,109,130,-229,-1102,108,94,96,89,184,805220
7,-44,-59,-8,-2,-5,22,57,-12,-156,74,133,105,-66,6,-39,-2,-19,-45,-4,123,108,25,-30,63,-517,-42,-21,4,-36,-120,805221
5,-36,-50,-12,0,6,34,-7,11,-148,-97,31,123,-59,3,-45,-32,-39,-85,-37,184,111,-22,-67,88,-422,-75,-56,-39,-78,-156,805222
44,-17,-59,-7,11,16,67,33,-29,14,-204,139,20,-74,44,-21,-36,-41,-104,-18,302,147,-34,-83,176,-254,-101,-73,-79,-100,-233,805223
43,-17,-54,-9,6,6,71,137,27,-108,70,140,0,-299,11,-1,-26,-29,-93,-10,369,165,-15,-83,207,-175,-101,-79,-85,-103,-173,805224
40,-1,-40,18,1,-1,92,127,17,-116,134,157,-78,-56,28,12,11,-4,-56,-9,363,176,6,-39,188,-188,-65,-53,-64,-85,-134,805225
-53,-20,-17,6,-18,-19,-50,13,-16,-183,110,82,-167,88,26,-95,9,2,-5,-120,74,89,-3,17,-55,-583,-4,-29,-68,-53,33,805226
-295,-36,67,34,-17,-14,-387,-168,66,-76,-41,-134,-50,-26,-58,-404,54,88,254,-403,-778,-115,52,261,-718,-1890,239,111,39,125,564,805227
-322,-47,75,31,-15,-3,-423,-199,122,126,-309,-216,90,86,-41,-454,71,114,343,-401,-1005,-148,82,320,-821,-2269,289,169,130,193,589,805228
-235,-53,41,34,-9,-3,-270,-42,138,76,-235,38,116,-26,59,-318,90,112,322,-241,-793,-83,122,281,-607,-1969,243,167,186,188,412,805229
-58,-25,-7,43,24,10,-31,91,46,174,-129,207,-65,117,118,-113,53,49,156,-1,-301,-8,105,124,-212,-1184,82,76,149,91,-2,805230
68,-23,-52,10,30,22,108,140,-51,173,30,76,-20,169,77,28,-26,-41,-45,156,62,-14,26,-57,32,-458,-83,-60,38,-31,-236,805231
55,-18,-39,-2,24,27,91,64,-68,74,-122,-57,151,67,-7,30,-37,-44,-67,164,-8,-98,3,-59,-82,-405,-76,-93,7,-16,-171,805232
51,-9,-36,-12,14,24,82,59,-47,224,25,2,-68,80,19,17,-57,-51,-117,165,-33,-152,-23,-97,-149,-343,-91,-138,-33,-27,-156,805233
60,-12,-21,-15,20,39,47,-61,-30,28,12,64,99,41,42,13,-57,-45,-105,156,-79,-179,-28,-89,-211,-349,-86,-140,-34,-9,-45,805234
82,-30,-48,-29,3,17,40,-23,25,-39,224,48,67,59,6,16,-81,-72,-146,144,-34,-177,-55,-119,-187,-260,-112,-169,-52,-35,-182,805235
-14,-41,-27,-29,-24,-4,-78,158,16,190,96,27,35,73,-18,-81,-43,-23,-47,7,-282,-199,-34,-17,-371,-656,-14,-97,-29,30,38,805236
-410,-46,108,38,-40,-19,-531,-121,128,247,-275,-164,90,-55,-178,-512,113,171,408,-441,-1429,-342,118,400,-1218,-2580,397,187,170,304,951,805237
-539,-60,128,82,-26,-9,-638,-239,94,230,-286,-264,131,-27,-129,-664,195,249,638,-563,-1890,-331,225,577,-1417,-3559,554,357,338,451,1094,805238
-403,-68,64,81,3,10,-439,-168,91,39,-429,-179,-1,154,-92,-506,180,190,541,-408,-1486,-181,217,464,-970,-3151,431,318,331,356,686,805239
-109,-64,-18,39,23,20,-61,13,48,-88,-187,62,33,208,67,-172,93,59,242,-94,-535,50,142,175,-120,-1831,131,163,215,136,15,805240
129,-54,-91,-7,27,29,226,122,61,87,152,211,-69,149,86,80,-11,-60,-78,116,297,192,31,-110,533,-537,-136,-25,13,-110,-347,805241
108,-60,-95,-30,0,18,166,123,10,42,175,69,-106,59,0,58,-42,-65,-133,70,366,174,3,-130,545,-408,-156,-65,-81,-165,-289,805242
82,-39,-51,-4,20,27,63,178,-8,85,-231,50,-53,-51,-74,-1,-28,-42,-100,1,275,162,-2,-85,481,-548,-117,-69,-102,-143,-152,805243
40,-44,-60,-9,-5,-6,21,183,52,26,-80,44,-54,73,10,-21,-32,-51,-101,-34,251,147,-33,-88,476,-572,-113,-80,-122,-151,-137,805244
39,-20,-51,3,-9,-11,69,42,17,165,113,95,107,97,-1,17,7,2,-48,1,282,163,4,-28,514,-510,-52,-35,-83,-102,-109,805245
4,-8,-25,19,-7,-10,59,15,2,108,47,48,151,-27,59,-20,14,17,-11,-38,167,112,12,0,414,-655,-20,-29,-75,-83,38,805246
-329,-55,34,37,-52,-50,-337,-295,45,103,-176,-85,121,-42,-76,-405,81,97,237,-393,-801,-119,64,254,-380,-2122,226,84,-1,79,687,805247
-439,-54,75,79,-27,-38,-477,-305,87,20,-274,-220,13,-94,-118,-542,154,154,428,-475,-1297,-196,140,406,-704,-2972,374,194,150,228,864,805248
-365,-62,43,89,-16,-31,-393,-239,174,60,-246,-190,173,-159,-71,-468,154,126,402,-368,-1198,-171,167,349,-567,-2855,325,176,197,232,575,805249
-112,-56,-35,51,11,6,-77,-48,16,136,-47,-19,29,-149,-62,-194,60,12,135,-66,-522,-66,103,103,-11,-1798,73,7,130,96,7,805250
158,-48,-90,-15,26,43,207,-31,-121,67,389,127,-217,-148,44,90,-42,-95,-162,207,201,14,-14,-172,499,-551,-183,-193,2,-93,-457,805251
153,-38,-65,-9,34,35,153,30,-30,-44,61,126,-74,21,75,48,-47,-87,-156,169,92,-55,-45,-150,336,-581,-143,-220,-5,-75,-293,805252
144,-36,-67,-18,20,12,126,46,-148,-155,70,107,-87,17,41,22,-84,-104,-183,146,48,-123,-75,-177,262,-544,-161,-257,-30,-78,-283,805253
115,-29,-71,-14,5,6,109,103,-187,-94,192,87,-82,-27,-4,27,-79,-96,-185,128,33,-131,-59,-173,250,-505,-141,-257,-33,-54,-279,805254
92,-30,-58,-5,8,6,96,156,-53,18,185,67,-100,132,-6,26,-60,-71,-150,115,26,-114,-48,-136,239,-513,-120,-227,-27,-35,-202,805255
11,-29,-10,20,8,13,-16,-43,-88,-56,-65,40,-73,76,4,-49,-2,-1,-11,12,-202,-119,2,-5,73,-901,1,-136,27,54,116,805256
-519,-69,119,48,-50,-32,-608,-349,72,-38,-484,-254,-31,-127,2,-604,183,222,516,-564,-1680,-353,168,492,-1065,-3323,500,217,230,372,1217,805257
-716,-79,160,112,-33,-28,-767,-361,267,16,-391,-361,37,-110,-125,-847,277,303,825,-769,-2396,-386,285,735,-1475,-4701,720,418,420,559,1478,805258
-525,-65,116,135,16,15,-518,-243,239,186,-161,-229,91,-38,-81,-672,240,228,709,-569,-1982,-230,275,589,-1011,-4260,566,386,414,456,967,805259
-105,-51,-1,114,58,57,-64,-164,88,2,101,-33,-18,29,-25,-269,99,55,306,-151,-800,14,150,203,-33,-2555,170,168,241,154,121,805260
196,-54,-110,42,50,49,268,191,-134,32,0,49,-298,33,42,49,-65,-131,-139,117,248,154,-17,-171,731,-877,-211,-113,-44,-167,-481,805261
165,-33,-96,23,39,20,264,271,-54,115,165,148,-207,89,80,96,-44,-93,-166,114,365,179,-13,-141,752,-652,-180,-117,-94,-172,-420,805262
88,-26,-89,10,11,-10,209,68,-60,25,210,165,-117,4,80,67,-18,-62,-122,76,313,183,-6,-91,681,-706,-130,-97,-97,-142,-257,805263
65,-27,-72,12,4,-6,173,-81,-78,92,237,181,-194,282,37,34,-23,-62,-120,41,291,148,-31,-88,655,-718,-118,-103,-119,-147,-252,805264
46,-17,-55,16,18,3,131,-27,-61,44,216,110,-198,166,11,9,-25,-52,-98,8,243,124,-27,-80,611,-766,-95,-101,-117,-136,-183,805265
0,-36,-52,-1,-3,-10,57,145,-75,-15,158,63,-52,-27,41,-15,-3,-18,-42,-24,141,113,-2,-28,521,-915,-47,-93,-85,-87,-53,805266
-172,-51,-6,12,-28,-25,-148,37,22,-72,-299,-124,155,-112,18,-207,77,68,145,-194,-409,15,63,154,81,-1761,133,3,2,46,332,805267
-238,-52,20,35,-7,-19,-205,-64,38,-18,-92,-77,51,-46,-20,-287,116,79,248,-252,-692,-47,102,212,-88,-2218,202,43,79,118,372,805268
-153,-35,15,47,23,15,-119,58,26,-7,372,14,-36,88,-31,-213,119,65,230,-161,-583,-2,120,177,50,-2056,169,30,121,116,308,805269
19,-35,-47,35,35,25,51,-20,-12,-62,110,-23,-108,197,62,-70,32,-10,56,16,-190,51,54,10,374,-1401,5,-97,63,8,-91,805270
195,-28,-92,15,43,33,230,71,-39,-94,105,83,-89,146,114,83,-69,-95,-171,161,272,80,-31,-180,707,-583,-170,-280,-57,-111,-393,805271
142,-48,-89,-19,9,15,158,286,-62,-79,116,46,-57,-16,16,33,-91,-104,-189,111,176,11,-66,-179,602,-595,-165,-322,-92,-119,-289,805272
150,-34,-69,-18,27,18,154,196,-102,-31,-19,95,-103,-110,28,74,-60,-62,-171,144,229,37,-38,-164,665,-475,-137,-307,-62,-86,-246,805273
137,-36,-50,-24,2,10,114,187,-26,101,29,150,-318,-48,-2,98,-37,-37,-162,155,268,54,-30,-146,687,-389,-109,-282,-45,-61,-207,805274
90,-41,-57,-45,-17,-11,-2,-15,-54,62,16,14,-74,11,-9,71,-51,-51,-163,118,224,35,-64,-148,641,-429,-112,-267,-57,-62,-181,805275
101,-30,-56,-45,-12,-18,-81,219,-106,40,183,122,-102,-38,6,80,-66,-70,-187,121,286,46,-82,-165,696,-320,-138,-262,-83,-86,-276,805276
72,-14,-30,-38,3,0,-173,133,66,82,-64,90,11,189,28,41,-44,-40,-125,70,192,36,-57,-109,598,-502,-83,-187,-70,-54,-171,805277
38,-35,-7,-44,-7,-4,-130,-26,-4,15,-35,85,-2,-99,59,4,-26,-21,-72,17,97,28,-41,-53,523,-662,-26,-131,-52,-28,-57,805278
85,-11,1,-14,12,24,110,24,78,233,-2,126,-63,-149,81,61,-18,-17,-72,54,186,85,-22,-35,604,-542,-30,-101,-48,-34,-132,805279
113,11,-15,0,8,21,252,63,29,235,109,49,-91,-67,47,88,-47,-34,-109,65,295,106,-49,-91,663,-372,-79,-116,-90,-80,-199,805280
43,5,-25,19,-17,-10,211,108,-84,101,136,-8,-21,62,3,17,-46,-51,-80,-8,155,63,-56,-67,533,-565,-64,-113,-113,-98,-111,805281
26,12,-24,28,-8,1,197,-34,-91,48,75,11,-155,67,-9,13,-11,-25,-37,-14,121,63,-19,-29,522,-628,-40,-71,-87,-60,-89,805282
8,-3,-30,-6,-19,-8,175,65,29,-28,41,-67,-55,22,-76,29,-3,-16,-25,10,138,54,-2,-31,531,-604,-30,-63,-64,-48,-75,805283
1,-5,-29,-17,-27,-16,157,-242,-152,-8,-3,-52,80,71,5,26,-16,-29,-48,9,136,38,-14,-43,541,-575,-42,-85,-75,-65,-65,805284
-5,-19,-36,-24,-18,-10,84,-70,-115,-57,-160,-47,-19,-126,6,-14,-60,-72,-76,-24,86,11,-64,-79,498,-603,-77,-126,-105,-91,-96,805285
86,-5,-52,-12,13,10,153,128,-139,-167,3,-70,-187,-87,5,61,-84,-102,-145,55,261,45,-90,-135,657,-315,-139,-167,-118,-130,-275,805286
342,14,-115,-47,24,18,479,255,-167,-60,-43,82,-155,-39,119,355,-141,-170,-378,345,1026,215,-154,-362,1263,906,-342,-305,-199,-263,-772,805287
414,22,-128,-68,-5,5,562,180,-205,-44,82,150,-318,84,89,468,-147,-161,-456,421,1335,274,-174,-415,1453,1478,-384,-372,-258,-304,-754,805288
347,28,-116,-76,-15,-6,466,304,-139,-76,155,121,-250,107,119,425,-124,-137,-435,349,1254,252,-164,-373,1342,1435,-339,-374,-273,-280,-636,805289
135,29,-45,-55,-26,-29,173,165,-88,30,69,-42,-194,38,29,199,-45,-13,-222,115,665,159,-103,-154,859,548,-115,-247,-177,-116,-154,805290
6,19,-17,-42,-38,-50,-17,-157,-32,-46,-175,-47,-183,103,-19,64,18,42,-69,-11,304,120,-46,-26,615,-85,19,-162,-82,-10,52,805291
11,0,-14,-63,-36,-33,-52,-37,-80,72,-97,40,-81,46,-26,66,-1,19,-82,-19,332,140,-55,-45,661,-110,4,-182,-72,-17,-35,805292
5,-20,-16,-82,-47,-37,-41,38,-3,-49,-145,-26,-201,344,25,65,-6,5,-72,-30,364,159,-37,-38,705,-130,10,-167,-40,-9,-83,805293
30,-2,-10,-41,-43,-31,84,21,-17,107,34,9,-99,247,79,104,25,45,-54,7,429,202,2,-14,781,-77,20,-126,-9,15,-86,805294
16,21,-23,10,-28,-30,198,39,-93,54,110,-117,-142,91,28,46,-7,11,-81,-44,360,131,-33,-54,732,-180,-24,-141,-59,-27,-68,805295
104,22,-47,3,-12,-28,350,249,16,-14,98,-124,15,-6,4,106,-81,-82,-215,35,596,129,-91,-202,915,228,-168,-224,-121,-147,-368,805296
454,51,-114,-24,30,16,751,510,-154,-19,563,145,93,-27,24,473,-210,-249,-565,399,1578,299,-230,-546,1680,1893,-510,-417,-291,-383,-1106,805297
594,70,-128,-49,37,46,826,501,-198,-173,751,211,145,-88,55,625,-303,-343,-793,519,2041,301,-337,-725,1943,2850,-677,-548,-470,-537,-1339,805298
539,60,-120,-87,11,22,666,395,-125,-142,491,234,135,-202,69,592,-307,-317,-793,474,1982,248,-354,-696,1805,2976,-641,-557,-506,-529,-1099,805299
190,37,-20,-93,-42,-18,188,180,-47,-6,26,-101,68,-242,-69,242,-195,-146,-453,114,987,18,-265,-356,943,1589,-303,-345,-380,-294,-256,805300
-84,42,78,-41,-43,-28,-170,-60,41,-45,-219,-207,64,-116,-124,-55,-24,35,-20,-137,-32,-125,-95,34,201,5,74,-60,-116,18,346,805301
-49,43,61,-14,-24,-20,-102,99,-21,-84,-240,-32,78,-147,-103,-13,7,50,43,-50,-61,-82,-37,62,258,-66,103,0,-20,66,252,805302
-29,38,52,6,-14,-14,-63,85,-33,-62,69,-88,133,87,-48,0,3,42,60,-26,-101,-80,-31,63,279,-119,100,16,21,76,172,805303
1,39,45,14,-6,-5,-17,24,-9,21,-139,-79,-31,4,-83,16,-2,24,33,-2,-106,-85,-37,40,295,-131,87,2,28,66,132,805304
4,24,35,-7,-5,-1,6,-14,46,-24,-166,10,-64,43,-2,14,-33,-7,-13,15,-78,-90,-63,-15,342,-60,41,-37,9,38,64,805305
145,34,-8,-28,-5,2,200,45,12,11,-167,89,-64,14,-1,175,-57,-57,-130,168,341,23,-78,-124,713,554,-78,-97,-21,-36,-265,805306
736,83,-166,-92,47,31,912,493,-193,46,376,263,-201,252,152,845,-217,-271,-713,824,2178,408,-226,-694,2183,3438,-632,-437,-263,-421,-1555,805307
1011,89,-264,-185,26,8,1213,718,-210,-176,711,395,-223,268,227,1199,-362,-406,-1169,1096,3333,565,-385,-1057,2952,5435,-989,-718,-557,-725,-2093,805308
969,95,-242,-222,-18,-9,1112,550,-321,-78,622,358,-126,127,61,1180,-403,-403,-1254,1004,3462,541,-473,-1080,2918,5836,-1006,-779,-711,-788,-1963,805309
311,55,-33,-174,-88,-57,301,117,-81,-101,39,-14,179,-69,-67,464,-221,-151,-655,205,1682,190,-351,-494,1413,3165,-423,-446,-563,-414,-385,805310
-180,33,111,-71,-97,-77,-233,-278,144,-138,-114,-270,207,-290,-97,-79,-2,79,-20,-310,195,-4,-128,53,353,616,102,-55,-224,13,508,805311
-108,42,85,-34,-61,-48,-111,-238,-10,-58,-163,-171,-12,-138,-122,-24,22,82,21,-233,313,125,-83,44,604,558,82,6,-108,35,267,805312
-106,36,69,-26,-61,-52,-112,-62,19,-98,-372,-242,21,-71,-105,-45,18,72,41,-253,267,168,-76,63,657,354,86,36,-74,30,220,805313
-95,43,57,-20,-43,-49,-109,1,111,-30,-60,-196,-105,-27,-61,-31,23,53,36,-221,295,190,-67,45,738,310,64,42,-63,11,152,805314
-76,47,61,-27,-36,-27,-94,-170,64,56,-136,-100,109,-232,23,0,50,81,55,-169,353,230,-14,57,826,353,88,79,-33,24,129,805315
145,53,-15,-53,-8,-10,228,-67,-38,-97,102,26,49,-140,75,279,11,2,-123,137,990,345,-24,-124,1376,1350,-93,-10,-54,-88,-465,805316
1228,109,-342,-171,50,20,1583,817,-480,-210,1109,484,-275,185,257,1484,-395,-486,-1281,1326,4215,872,-411,-1212,3887,6644,-1168,-706,-557,-831,-2789,805317
1618,164,-431,-294,26,8,1963,1106,-624,-214,982,670,-188,35,205,1946,-627,-686,-1924,1696,5680,964,-685,-1721,4717,9494,-1633,-1117,-1010,-1256,-3346,805318
1414,174,-326,-319,-21,-19,1543,892,-506,-409,785,420,-116,47,134,1743,-602,-585,-1827,1442,5248,738,-724,-1559,4104,9347,-1464,-1114,-1118,-1170,-2647,805319
360,128,8,-211,-117,-101,198,145,-89,-355,91,-146,52,-208,-83,632,-261,-127,-791,296,2174,85,-440,-544,1489,4914,-438,-532,-741,-451,-231,805320
-423,87,217,-78,-142,-139,-672,-421,269,-270,-272,-448,237,-287,-137,-187,80,245,239,-407,-371,-307,-92,330,-359,842,420,79,-127,275,1133,805321
-342,71,178,-53,-102,-96,-497,-442,96,-117,-227,-300,64,-161,-80,-134,88,214,289,-244,-432,-260,-56,303,-222,647,376,124,57,314,857,805322
-239,53,143,-40,-79,-70,-342,-397,151,-210,90,-283,-31,-160,7,-68,46,144,215,-145,-360,-243,-60,214,-83,743,282,110,101,256,499,805323
-133,53,136,-14,-46,-30,-252,-214,95,-141,7,-147,121,-199,-24,0,40,124,180,-67,-279,-202,-40,173,21,819,241,101,131,238,386,805324
-103,49,131,-22,-34,-30,-237,-142,62,-134,-126,-112,223,-128,-64,-20,16,76,143,-74,-290,-218,-45,124,45,774,178,75,122,197,345,805325
33,50,93,-27,-16,0,-64,-9,63,-25,1,-48,141,-14,-17,100,-30,10,28,62,55,-140,-72,1,365,1261,56,28,90,107,-46,805326
543,87,-82,-108,10,24,593,168,-240,-161,476,225,-2,179,41,709,-198,-203,-510,643,1728,218,-220,-509,1710,3849,-460,-266,-130,-263,-1215,805327
1014,124,-223,-201,11,29,1186,631,-335,-187,541,416,122,246,101,1286,-391,-407,-1113,1150,3444,544,-418,-1033,2977,6662,-970,-599,-476,-661,-2187,805328
1136,146,-232,-263,2,17,1282,539,-343,-152,702,367,-13,268,123,1447,-463,-436,-1348,1207,4096,632,-528,-1188,3312,7863,-1114,-741,-717,-826,-2191,805329
298,100,34,-211,-99,-66,212,61,-58,-280,-45,-152,75,-80,-20,544,-207,-76,-582,201,1847,191,-339,-419,1376,4447,-344,-288,-526,-343,-169,805330
-380,62,213,-59,-106,-90,-587,-275,152,-73,-612,-480,232,-359,-196,-213,98,237,281,-502,-256,-65,-41,338,-126,865,381,261,-73,215,1000,805331
-268,68,171,-23,-67,-59,-416,-321,253,92,-261,-339,201,-287,-114,-124,97,186,265,-394,-35,79,-4,260,211,856,290,283,-17,172,616,805332
-240,61,151,0,-51,-49,-340,-398,177,40,-226,-290,365,-224,-112,-128,86,156,237,-380,22,132,19,221,322,760,250,295,-23,125,528,805333
-218,30,125,-25,-52,-36,-349,-196,236,-111,-212,-289,238,-310,-160,-152,38,97,194,-375,35,134,-9,171,368,662,191,269,-38,59,409,805334
-177,35,141,-31,-30,-7,-325,-180,221,31,-206,-129,146,-234,-41,-112,78,134,228,-321,54,178,31,199,410,609,232,296,25,85,427,805335
-34,43,77,-28,-15,-4,-97,121,126,30,-89,3,-17,-173,-40,52,55,96,115,-113,405,244,22,82,721,1163,122,232,20,30,20,805336
655,89,-125,-80,32,34,785,529,-171,-3,436,283,-125,153,109,810,-169,-202,-608,679,2371,555,-201,-586,2262,4447,-549,-217,-249,-415,-1479,805337
771,117,-146,-128,6,15,874,310,-233,75,394,345,-105,196,120,963,-274,-280,-893,783,2849,481,-348,-790,2445,5584,-735,-438,-453,-580,-1529,805338
392,81,-47,-145,-55,-45,335,154,-138,-170,-6,48,47,-34,-23,556,-220,-180,-614,367,1790,138,-317,-497,1481,4269,-441,-321,-392,-384,-715,805339
32,65,84,-69,-54,-43,-122,-194,-44,-67,-237,-94,113,-203,-33,153,-91,-31,-208,1,556,-144,-200,-123,499,2544,-65,-107,-180,-74,127,805340
-149,64,168,-20,-37,-15,-339,-193,134,43,8,-182,190,-172,-73,-51,16,84,107,-150,-209,-252,-77,130,-34,1382,193,83,60,169,481,805341
-182,32,146,-33,-51,-29,-384,-117,118,15,-120,-236,222,-59,-65,-92,2,61,133,-167,-427,-295,-74,137,-144,1074,198,82,121,195,473,805342
-143,32,139,-10,-31,-21,-323,-136,18,136,-264,-126,58,-112,-1,-82,-1,57,134,-116,-454,-298,-63,128,-129,1046,183,92,166,214,385,805343
-131,32,137,-1,-22,-1,-269,9,129,93,-221,-193,49,-181,-21,-79,-5,41,154,-102,-502,-307,-57,128,-141,977,172,117,196,236,358,805344
-122,26,132,-7,-16,8,-250,-165,213,123,-139,-226,124,-113,-91,-86,17,56,174,-97,-546,-298,-31,154,-156,859,190,144,230,249,360,805345
-107,19,118,-10,-22,10,-211,-287,141,46,138,-214,175,-34,-119,-46,34,74,184,-60,-490,-244,0,152,-83,876,185,187,246,240,334,805346
-29,20,96,-6,0,24,-139,-97,36,-81,229,-44,92,9,-74,5,-22,4,79,-15,-250,-191,-48,57,123,1193,72,132,172,152,175,805347
-141,26,142,31,14,34,-314,-114,54,86,41,-66,63,-286,-35,-181,-21,25,176,-215,-599,-241,-48,157,-188,539,167,202,169,188,402,805348
-304,13,160,50,4,8,-456,-151,111,76,-289,-151,309,-250,-95,-343,45,102,338,-378,-1006,-264,24,308,-475,-285,326,327,236,283,700,805349
-179,15,106,48,4,14,-246,32,115,226,-148,-67,109,-221,-51,-171,72,88,289,-222,-576,-84,61,226,-79,147,251,334,230,213,364,805350
-106,8,68,14,-15,0,-110,-81,52,182,-60,-17,75,-228,-24,-77,51,70,194,-158,-201,60,50,145,202,504,165,334,141,102,190,805351
-93,11,52,19,-12,2,-78,-169,50,12,189,28,-98,-117,-4,-66,64,70,169,-169,-23,153,59,118,303,538,131,352,66,22,214,805352
-83,19,63,32,4,17,-98,-246,136,8,226,-14,-124,-195,10,-93,59,64,159,-207,25,176,58,113,298,454,112,357,3,-31,218,805353
-122,17,49,21,-1,-2,-175,-177,85,135,-82,-36,105,-140,-29,-122,53,60,181,-240,-10,177,54,124,270,334,113,371,-11,-52,247,805354
-109,30,65,13,9,13,-229,-35,40,-32,-36,26,39,-14,42,-65,86,97,203,-172,70,230,101,153,345,397,154,391,30,-21,203,805355
-223,15,110,17,0,10,-436,-260,27,-76,-78,-170,116,53,83,-192,129,148,311,-290,-311,126,128,274,6,-155,279,428,81,73,596,805356
-819,-50,249,69,-51,-35,-1153,-618,193,94,-410,-365,161,-174,-120,-854,324,387,900,-894,-2222,-308,314,845,-1482,-3074,840,732,398,506,1859,805357
-949,-62,300,140,-30,-23,-1194,-598,386,131,-519,-436,82,23,-168,-1035,434,469,1196,-961,-3006,-426,455,1068,-1911,-4372,1059,891,700,758,1986,805358
-791,-69,252,170,20,13,-895,-582,309,141,-465,-363,-177,-17,-140,-962,367,367,1100,-795,-2924,-464,410,930,-1724,-4275,925,805,760,715,1555,805359
-246,-31,82,150,79,50,-218,-127,119,105,54,116,-93,115,14,-426,168,99,546,-198,-1557,-258,242,407,-543,-2084,380,452,604,394,366,805360
167,-21,-50,58,90,70,237,179,-88,104,189,140,-87,180,90,39,-48,-128,-45,238,-220,-90,40,-104,427,223,-119,86,303,20,-477,805361
89,-40,-19,17,53,41,59,161,86,70,10,95,-20,-133,63,-26,-69,-120,-44,135,-348,-188,-2,-73,221,221,-86,57,237,30,-242,805362
81,-22,-2,30,55,50,2,16,-18,20,-9,186,111,-45,18,-17,-34,-81,-20,136,-363,-187,19,-21,173,281,-34,75,258,97,-136,805363
54,-34,-23,-2,41,45,-32,200,-34,48,132,11,-15,-34,62,-12,-37,-71,-17,132,-360,-193,4,-12,145,368,-20,76,237,110,-109,805364
16,-22,-19,-11,11,24,38,330,-49,53,29,45,-89,60,87,13,4,-14,44,145,-343,-169,33,45,130,383,29,136,256,159,-89,805365
-106,-1,27,25,10,4,-40,127,55,95,63,-11,93,143,39,-102,54,51,157,20,-620,-199,73,157,-143,-77,147,204,272,238,250,805366
-589,-20,172,121,1,-16,-675,-267,256,20,-195,-215,149,-63,-165,-695,192,226,650,-576,-2139,-483,213,624,-1383,-2565,597,502,435,526,1316,805367
-906,-54,256,196,14,-9,-1085,-606,283,56,-287,-306,198,-265,-213,-1130,313,347,1077,-974,-3313,-665,343,975,-2225,-4682,930,772,647,765,1902,805368
-893,-78,228,231,25,4,-1004,-630,294,156,-590,-389,165,-136,-150,-1135,348,356,1164,-925,-3401,-579,409,1004,-2173,-5184,953,863,752,798,1819,805369
-280,-43,53,182,81,74,-198,-171,142,98,-184,-5,1,76,59,-449,190,115,613,-219,-1565,-127,310,446,-646,-2636,392,588,555,392,334,805370
148,-38,-79,88,93,84,314,280,-34,-90,184,251,-116,374,79,24,11,-82,40,179,-37,160,121,-58,412,-361,-93,272,164,-58,-431,805371
114,-35,-75,56,77,65,246,222,3,-237,206,82,-4,226,66,15,22,-55,2,114,127,220,98,-51,394,-216,-85,275,7,-151,-339,805372
107,-16,-54,61,76,65,216,73,-42,33,212,66,-33,-43,5,43,53,-13,15,99,258,281,105,-30,404,-90,-60,285,-60,-186,-212,805373
57,-10,-35,55,61,55,145,40,-56,-90,4,170,80,69,44,6,56,2,36,40,231,266,107,1,309,-173,-37,273,-92,-197,-80,805374
39,-22,-36,31,47,34,103,62,-55,-77,-76,213,12,162,59,-27,46,-9,24,5,187,229,83,-1,238,-226,-20,249,-104,-196,-59,805375
-61,-32,-2,34,30,38,-29,-142,-12,-21,-2,78,-33,31,18,-143,65,54,127,-107,-161,129,93,119,-56,-696,101,289,-47,-100,251,805376
-612,-67,157,81,-11,11,-707,-560,288,-35,-725,-269,47,-9,-128,-751,249,299,719,-676,-1934,-248,277,687,-1419,-3400,652,608,278,331,1499,805377
-794,-89,185,142,-9,-14,-907,-686,334,-45,-802,-286,122,123,-144,-968,332,366,992,-791,-2718,-394,380,894,-1857,-4681,840,744,547,565,1732,805378
-696,-88,148,166,13,-8,-766,-526,234,59,-412,-178,44,203,-52,-848,306,294,906,-614,-2581,-380,379,786,-1602,-4498,736,688,635,564,1294,805379
-264,-71,3,106,57,31,-211,-121,114,2,-187,126,-5,289,79,-343,186,122,491,-65,-1365,-148,285,381,-514,-2558,338,427,563,352,236,805380
136,-54,-109,50,76,54,277,179,-105,102,159,368,-7,182,152,100,29,-51,17,333,-138,30,131,-28,400,-483,-66,127,335,54,-503,805381
138,-24,-78,68,67,60,249,230,-4,216,228,242,-23,215,155,69,-6,-66,-35,259,-128,-51,76,-48,312,-311,-81,78,241,42,-350,805382
100,-41,-73,21,44,41,161,111,-38,232,-1,136,-32,75,112,19,-7,-71,-40,203,-219,-110,53,-50,177,-329,-75,46,193,61,-204,805383
72,-30,-63,18,46,38,133,-67,50,233,283,178,96,100,97,26,0,-51,-7,211,-229,-89,75,-16,139,-254,-40,54,195,97,-150,805384
58,-18,-42,41,49,47,115,-74,-61,120,252,98,-2,73,121,26,11,-33,16,201,-230,-72,77,7,100,-254,-23,68,183,114,-108,805385
-61,-29,-17,42,40,36,-38,-89,32,44,-66,79,24,-132,47,-117,13,-5,91,54,-510,-140,69,72,-186,-697,34,97,167,145,75,805386
-543,-63,111,92,-2,3,-604,-114,285,67,-299,-187,124,-244,-61,-642,176,208,573,-479,-1903,-384,219,542,-1350,-2981,508,400,346,445,1152,805387
-904,-88,220,176,-4,-2,-1023,-556,269,243,-798,-327,74,-194,-149,-1057,352,392,1070,-861,-3144,-534,396,968,-2256,-5189,917,722,599,761,1870,805388
-924,-101,217,200,18,16,-1042,-493,286,173,-713,-385,-68,-126,-88,-1144,355,362,1163,-892,-3403,-535,429,1003,-2365,-5885,944,793,690,785,1816,805389
-282,-67,17,154,95,71,-260,-59,23,139,96,70,-65,29,-28,-481,146,64,544,-183,-1588,-141,262,379,-873,-3314,314,459,460,325,272,805390
232,-21,-114,68,119,95,340,351,-106,40,250,283,-218,107,82,104,-24,-123,-67,340,133,204,85,-153,326,-672,-194,118,89,-130,-637,805391
161,-18,-85,37,91,69,255,405,-83,103,329,259,-42,73,120,86,10,-55,-48,260,214,228,93,-81,192,-586,-123,138,-32,-164,-390,805392
97,-28,-70,19,67,56,192,424,-149,-13,180,206,132,125,54,42,30,-35,-29,198,210,228,96,-55,78,-621,-80,143,-89,-171,-276,805393
94,-25,-54,27,68,62,179,-17,-120,-48,224,75,113,194,61,20,22,-30,-48,164,215,218,77,-59,18,-601,-78,115,-117,-202,-270,805394
89,-25,-62,30,57,60,159,175,-28,-56,50,-20,-104,51,-27,-20,-34,-80,-115,106,170,144,10,-101,-49,-615,-141,46,-178,-264,-277,805395
-45,-33,-20,24,34,48,-40,-43,-36,113,-227,-94,-5,53,-48,-181,-19,-54,-30,-55,-224,31,3,-7,-375,-1173,-51,65,-150,-200,97,805396
-593,-62,142,93,1,25,-732,-592,204,96,-493,-254,108,-143,-107,-768,225,229,599,-614,-1941,-291,229,585,-1659,-3835,542,434,190,259,1338,805397
-759,-84,190,158,21,32,-916,-553,340,129,-655,-370,-13,-229,-57,-946,354,342,936,-725,-2680,-395,380,842,-2035,-5131,784,633,493,523,1611,805398
-600,-81,130,165,48,61,-648,-386,168,378,-374,-100,151,11,30,-767,313,280,855,-507,-2378,-300,391,723,-1612,-4742,672,595,592,514,1224,805399
-135,-62,-28,119,78,76,-3,9,17,237,2,244,35,124,59,-291,130,61,394,-2,-1138,-82,237,264,-520,-2788,216,310,445,230,65,805400
203,-36,-134,50,75,65,437,120,-73,134,179,363,-170,94,101,80,-35,-119,-73,334,-33,48,67,-133,296,-922,-182,11,182,-63,-573,805401
178,-22,-105,52,70,58,414,202,-35,-163,256,180,31,158,110,86,-26,-97,-90,287,14,15,54,-123,258,-739,-163,-12,125,-55,-435,805402
117,-22,-87,38,50,37,314,400,-87,68,94,75,39,141,-13,51,-26,-73,-71,227,-60,-23,43,-108,166,-766,-145,-32,79,-38,-260,805403
94,-10,-84,63,45,17,237,318,-64,107,-64,185,57,3,-26,9,-16,-64,-61,186,-104,-38,44,-84,101,-790,-130,-34,53,-21,-262,805404
92,-15,-93,48,39,15,219,161,-30,56,132,208,-68,69,30,35,-16,-55,-76,202,-30,-6,44,-100,123,-650,-130,-40,30,-8,-275,805405
52,-15,-77,21,35,14,133,61,98,36,-36,171,-89,191,-5,13,12,-21,-21,164,-99,-1,52,-37,12,-763,-64,-6,38,38,-62,805406
-232,-38,26,50,16,7,-226,-253,143,172,-349,-21,-22,15,37,-309,105,110,283,-155,-940,-144,131,250,-710,-2118,233,182,138,219,594,805407
-493,-61,100,100,-5,-9,-529,-156,128,-127,-228,-214,-50,90,9,-598,222,217,608,-431,-1800,-280,240,530,-1370,-3598,501,378,304,412,1079,805408
-502,-67,102,126,21,17,-527,-198,152,-62,-354,-70,-42,-5,-49,-645,231,202,669,-426,-1930,-281,273,547,-1436,-3967,504,418,361,425,962,805409
-144,-64,-18,96,64,37,-88,-210,21,-25,99,80,-60,-53,5,-282,92,34,300,-16,-896,-69,169,202,-615,-2484,138,206,226,158,7,805410
177,-38,-105,37,74,53,300,184,-64,-59,374,218,51,130,109,90,-49,-115,-137,310,203,112,20,-162,137,-730,-230,-43,-30,-161,-560,805411
114,-24,-77,28,50,43,232,171,-106,91,-22,160,-80,168,117,60,-39,-86,-139,241,186,110,19,-117,-11,-702,-176,-23,-78,-165,-350,805412
67,-23,-75,6,25,28,159,116,-55,78,-33,161,-78,108,89,34,-42,-67,-121,202,143,86,-1,-92,-120,-741,-141,-24,-90,-159,-255,805413
68,-14,-66,20,48,32,160,32,-174,-64,16,118,-46,15,96,35,-30,-57,-126,194,155,75,-13,-87,-151,-691,-123,-38,-98,-154,-231,805414
49,-28,-75,11,40,17,186,152,-40,-64,138,80,-28,51,58,0,-56,-79,-156,152,120,39,-39,-105,-201,-684,-153,-67,-126,-180,-229,805415
53,-14,-45,32,41,24,198,195,17,-86,33,160,-92,74,-20,-14,-12,-42,-95,129,40,29,6,-60,-246,-786,-107,-41,-85,-137,-95,805416
-111,-22,11,50,21,10,-1,-14,106,-43,-306,-19,-105,-130,-12,-199,38,22,96,-62,-483,-76,59,106,-632,-1605,61,47,2,-7,238,805417
-144,-41,-1,53,18,8,-57,-32,44,21,-238,-72,-2,-29,-27,-217,34,23,152,-75,-600,-89,49,138,-647,-1811,75,80,58,41,263,805418
-25,-23,-53,40,25,20,29,172,-82,23,-162,30,-25,-10,-21,-64,11,-19,48,71,-245,-4,13,23,-297,-1264,-30,21,37,-12,19,805419
39,-15,-54,9,21,21,63,168,-23,-40,-130,-86,91,39,76,48,25,-9,3,156,-11,61,32,-17,-97,-925,-53,8,28,-17,-43,805420
61,-18,-45,4,12,8,80,86,-28,-49,-147,53,-69,3,20,63,27,7,-6,165,48,65,38,-28,-41,-831,-59,-8,7,-17,-89,805421
93,-17,-77,0,1,5,138,126,-122,27,170,63,-144,72,-3,85,5,-19,-50,187,154,77,23,-75,47,-646,-99,-36,-32,-44,-182,805422
83,-14,-73,1,0,0,157,78,37,-119,272,13,-66,93,32,79,-3,-14,-38,167,159,75,16,-71,48,-639,-93,-20,-50,-55,-155,805423
70,-2,-64,15,1,-22,174,48,-41,-144,97,92,-89,203,56,91,8,-5,-12,165,178,89,21,-56,55,-626,-83,-19,-49,-46,-77,805424
54,-13,-74,2,-14,-35,128,105,-118,-104,90,148,-192,161,38,78,-16,-32,-36,148,193,83,-1,-84,43,-581,-106,-37,-74,-68,-110,805425
72,-20,-63,-4,-8,-14,101,-32,-30,-128,-4,220,-228,133,63,69,-28,-40,-70,140,206,61,-21,-99,34,-545,-115,-66,-104,-75,-205,805426
124,-24,-81,-36,-8,-6,174,-115,-56,-76,-41,164,-64,45,38,149,-25,-36,-112,219,396,94,-16,-137,158,-245,-147,-77,-117,-98,-306,805427
252,-13,-112,-67,-13,0,332,120,-115,-58,108,129,-43,146,54,318,-54,-74,-261,374,831,186,-43,-261,473,480,-272,-153,-169,-189,-501,805428
319,9,-101,-65,9,15,380,253,-102,-105,345,195,-145,66,103,395,-74,-99,-343,443,1053,213,-71,-318,591,945,-345,-206,-221,-251,-641,805429
119,-9,-50,-56,-8,-16,116,122,-106,-127,28,100,-14,147,75,167,-47,-50,-202,212,520,64,-63,-167,97,232,-189,-138,-208,-154,-236,805430
-16,3,-8,-26,-7,-14,-28,-11,-81,130,107,81,90,157,49,27,-3,-3,-36,105,88,-23,-27,-20,-249,-394,-48,-51,-89,-29,-28,805431
-32,11,-3,-6,0,-17,-34,-4,-60,61,-92,-35,64,36,27,13,-8,-2,-11,103,-1,-46,-30,5,-317,-468,-32,-48,-26,-1,24,805432
-29,-1,-23,-21,-9,-31,-12,51,-29,41,7,13,73,60,45,33,-13,-10,-18,144,12,-51,-43,-2,-297,-401,-41,-52,8,3,-55,805433
7,-17,-37,-33,-13,-34,20,7,-61,136,55,40,-52,71,-15,57,-17,-18,-39,173,48,-46,-47,-29,-268,-291,-55,-66,6,4,-98,805434
21,-4,-19,-4,-3,-22,73,-110,-130,40,75,58,-28,55,2,80,-3,-2,-15,191,40,-40,-31,-5,-283,-285,-37,-55,21,31,-32,805435
89,12,-55,-3,-3,-30,228,-24,-67,45,198,110,-107,49,24,175,-22,-22,-76,284,282,18,-46,-74,-76,89,-107,-91,9,-4,-249,805436
407,27,-149,-43,13,-16,632,284,-99,25,245,216,-107,116,139,513,-145,-171,-419,583,1271,203,-156,-411,701,1638,-428,-301,-186,-258,-951,805437
519,37,-185,-97,-3,-21,709,562,-272,8,609,293,-220,-9,135,643,-223,-232,-626,650,1766,266,-226,-580,997,2485,-597,-436,-376,-419,-1122,805438
408,37,-153,-109,-28,-39,490,316,-258,-177,475,138,-25,137,83,564,-164,-151,-548,530,1638,258,-175,-479,823,2300,-501,-389,-397,-369,-759,805439
124,10,-72,-94,-53,-55,71,-82,-85,-96,253,-72,-139,140,6,268,-47,-8,-218,201,846,140,-78,-179,167,1035,-192,-191,-297,-174,-52,805440
-52,8,-7,-40,-54,-41,-147,-95,16,-123,-27,-139,-172,-227,-42,46,37,78,40,-9,225,55,-6,20,-287,-55,25,-27,-175,-15,244,805441
-7,5,-14,-32,-32,-34,-46,-173,-39,-61,-29,-106,-60,20,-60,71,26,59,11,22,297,100,-15,-17,-187,-44,-14,-41,-168,-36,73,805442
-19,14,7,-13,-24,-32,-18,-197,64,-140,-3,-52,-235,-2,25,50,21,63,27,3,258,98,-7,-7,-203,-190,5,-20,-152,-47,96,805443
-32,16,7,1,-25,-43,-4,-230,33,-140,-1,12,-120,63,-2,44,32,63,37,2,238,98,3,-5,-188,-283,4,-11,-134,-43,40,805444
-14,8,-3,-8,-22,-38,-24,-71,26,-88,22,-24,-70,-106,-85,54,24,47,11,4,259,97,-11,-16,-155,-264,-17,-24,-142,-72,11,805445
62,1,2,-25,-17,-5,21,153,-141,-152,101,-10,-188,-83,-35,111,3,12,-46,72,403,112,-32,-74,-18,-21,-67,-57,-150,-108,-109,805446
340,4,-76,-77,-6,13,350,216,-237,-47,277,68,-130,-12,35,408,-112,-123,-347,369,1206,237,-135,-358,639,1322,-352,-248,-265,-294,-745,805447
503,22,-106,-111,8,26,542,353,-22,4,246,116,80,-6,68,587,-187,-194,-561,540,1745,310,-200,-537,1006,2331,-509,-383,-375,-418,-990,805448
497,29,-114,-122,-3,10,494,366,-81,12,215,196,-136,116,85,568,-204,-205,-619,499,1755,266,-243,-550,936,2535,-524,-427,-431,-442,-953,805449
212,31,-31,-91,-44,-28,136,3,-74,-26,-102,27,-161,24,-19,275,-98,-64,-335,195,905,64,-174,-267,233,1399,-233,-272,-308,-227,-340,805450
-28,27,43,-40,-49,-20,-132,-221,38,-31,-124,-184,-71,-88,-78,36,7,48,-2,-13,73,-98,-59,22,-359,198,32,-85,-76,34,166,805451
-64,-6,32,-48,-62,-41,-162,-319,29,140,-185,-147,12,-51,-11,-7,-21,8,32,-12,-135,-180,-60,25,-440,5,18,-82,10,74,208,805452
-59,-15,13,-53,-53,-47,-192,-178,-23,69,9,1,-117,34,41,-3,-20,3,38,25,-198,-195,-56,41,-428,-18,23,-88,81,106,172,805453
-15,-6,21,-45,-31,-31,-254,8,-66,41,14,-70,-202,-22,19,21,-12,10,46,68,-182,-177,-49,47,-385,30,24,-75,113,132,123,805454
-14,-9,28,-52,-25,-21,-330,38,50,65,-93,-155,89,-22,-102,17,-27,-15,33,73,-191,-176,-51,23,-382,33,-3,-88,97,120,-15,805455
0,-13,24,-57,-26,-16,-261,111,46,5,-41,-109,114,71,-61,52,-44,-20,-7,97,-86,-145,-73,-22,-308,160,-41,-101,60,92,-93,805456
201,20,-11,-22,16,15,170,350,-125,56,385,153,84,17,63,263,-76,-73,-176,292,529,23,-101,-183,141,1014,-194,-189,-50,-25,-464,805457
278,37,-39,-19,14,23,368,240,-130,108,270,133,-84,38,47,292,-133,-131,-309,268,791,70,-145,-294,263,1374,-290,-283,-198,-156,-567,805458
251,38,-29,-27,7,34,285,177,36,135,187,4,-112,-139,-55,197,-153,-138,-326,145,716,47,-171,-307,115,1174,-286,-297,-300,-216,-443,805459
101,17,24,-22,-12,13,60,163,-6,179,30,-197,82,-99,-94,31,-101,-81,-192,-44,382,3,-136,-179,-213,532,-163,-209,-296,-174,-52,805460
19,13,48,1,-16,4,-61,-130,78,183,-38,-118,46,151,-34,-25,-21,0,-47,-110,158,30,-56,-44,-361,42,-31,-77,-211,-81,203,805461
13,12,42,-15,-20,-4,-72,-222,69,31,-175,9,11,28,-25,-5,6,37,-5,-84,181,79,-15,-14,-320,-36,2,-36,-174,-65,114,805462
34,20,42,-5,-11,5,-11,-114,87,-77,-253,53,109,112,-39,24,32,56,5,-62,274,122,9,-5,-236,3,6,-19,-146,-74,68,805463
15,-5,19,-35,-28,-11,-10,24,-11,-129,-83,-28,-111,106,-21,11,-8,16,-55,-100,269,82,-52,-51,-244,-47,-46,-38,-187,-124,-34,805464
23,4,13,-26,-23,-6,-8,-76,13,-85,-53,-105,66,61,-41,6,-7,8,-53,-94,251,67,-41,-49,-237,-83,-31,-34,-179,-128,11,805465
67,22,19,-14,-6,-3,37,-37,-44,-9,-42,-123,135,-58,-11,59,18,24,-42,-35,328,98,-2,-47,-132,46,-5,-19,-143,-114,-26,805466
187,38,-21,-9,6,3,189,57,-125,68,-60,71,-213,53,32,200,-9,-23,-151,115,654,150,-35,-143,144,600,-123,-93,-160,-168,-263,805467
249,27,-70,-41,-15,-13,287,-55,-141,60,140,188,-160,163,2,283,-69,-86,-288,210,905,154,-106,-257,352,1145,-239,-202,-223,-246,-488,805468
239,38,-67,-47,-27,-34,290,97,-129,-18,458,110,-43,136,-25,342,-50,-63,-300,261,977,157,-89,-256,425,1391,-232,-208,-197,-224,-425,805469
67,32,-9,-47,-43,-40,60,114,-6,-19,162,26,-46,71,55,178,7,31,-115,100,452,41,-37,-68,21,719,-47,-107,-84,-64,70,805470
-32,22,26,-33,-47,-41,-99,-153,88,-69,-170,-35,122,9,45,40,2,36,25,1,-16,-91,-24,52,-266,136,59,-43,31,59,162,805471
-6,0,11,-41,-44,-43,-109,-258,46,-77,-264,60,-22,-101,-78,26,-43,-30,-7,28,-124,-174,-71,-1,-253,173,9,-88,65,62,31,805472
23,-6,14,-8,-20,-11,-79,-280,95,-95,-161,-29,9,-159,-79,-3,-64,-56,-25,24,-219,-244,-92,-31,-287,134,-25,-119,79,71,-7,805473
24,16,22,16,-13,6,45,-35,114,-27,-32,-31,-90,-103,-22,9,-46,-38,6,45,-244,-237,-63,-13,-285,121,-9,-96,107,115,59,805474
-11,14,23,28,-26,-21,104,-133,31,107,177,-52,43,-60,-10,28,12,18,93,68,-279,-189,-2,65,-299,54,60,-29,182,193,118,805475
35,9,17,20,-21,-19,142,16,-12,94,98,-24,-30,-145,-33,69,-26,-21,52,110,-126,-139,-19,12,-186,253,6,-47,131,149,-23,805476
245,33,-27,-11,7,3,269,183,-82,47,86,44,103,-116,-21,264,-125,-118,-198,269,535,-2,-105,-224,271,1198,-222,-197,-48,-49,-432,805477
294,37,-34,-35,13,11,254,132,-74,-77,239,63,317,74,10,317,-139,-129,-302,270,827,77,-133,-303,381,1556,-290,-245,-178,-152,-595,805478
253,35,-20,-43,-2,-7,205,261,15,-73,165,71,204,-2,45,278,-95,-80,-258,199,824,117,-100,-247,285,1454,-236,-196,-226,-146,-476,805479
78,18,12,-52,-27,-24,17,119,-12,-30,111,10,24,-81,-34,101,-44,-19,-149,9,489,69,-75,-121,-66,807,-104,-123,-228,-111,-147,805480
-55,1,54,-31,-22,-19,-166,31,23,37,73,9,149,-43,-15,-63,4,37,-9,-157,85,20,-46,14,-412,46,34,-33,-171,-34,124,805481
-32,10,56,-10,-11,-6,-159,39,40,-18,-217,18,30,-53,-43,-65,3,35,13,-151,85,45,-30,23,-397,-61,33,-15,-152,-40,98,805482
-1,15,48,-16,-3,3,-98,52,-72,-40,-94,36,175,134,-22,-32,18,24,-11,-125,182,88,-23,-2,-323,-1,23,-16,-144,-60,-10,805483
15,6,32,-28,-1,15,-65,58,-73,-3,-12,-112,66,40,4,-8,31,39,-37,-100,245,121,-4,-12,-272,38,29,-7,-140,-73,54,805484
31,8,33,-20,-4,8,-48,-42,-26,37,-79,-134,5,-59,28,-11,20,41,-45,-102,242,108,-6,-6,-266,13,27,-12,-130,-79,15,805485
34,12,19,13,-5,-7,-31,155,0,158,-14,-71,148,-154,59,-9,-13,6,-63,-104,227,76,-27,-35,-248,22,-7,-34,-130,-112,-62,805486
110,30,-10,15,5,-13,85,175,95,-54,187,-51,126,53,73,87,-46,-40,-156,7,443,95,-49,-128,-39,437,-108,-96,-137,-160,-232,805487
194,24,-61,-22,-8,-35,208,135,21,-56,159,46,-5,-49,14,221,-79,-71,-268,154,775,147,-86,-220,259,1068,-207,-166,-173,-212,-458,805488
197,17,-67,-48,-22,-50,233,23,-15,-76,-45,16,-16,-80,14,264,-85,-72,-289,175,833,131,-101,-226,313,1297,-218,-181,-174,-204,-432,805489
68,24,-4,-22,-28,-19,65,36,77,-72,-82,-122,85,-2,-15,124,-37,-17,-143,42,365,5,-63,-88,-21,711,-77,-105,-89,-75,2,805490
-23,8,33,-9,-30,-37,-66,211,11,-21,-166,-122,-40,-11,-44,-2,13,31,28,-34,-82,-105,-2,51,-279,117,61,-20,44,68,185,805491
49,7,12,-17,-24,-31,9,158,39,19,16,-68,26,52,-72,63,-1,6,7,59,-16,-109,-6,13,-141,339,20,-47,83,87,48,805492
27,13,18,-12,-28,-31,23,50,142,-26,88,-87,0,80,-59,61,5,13,41,70,-95,-129,-3,40,-159,298,32,-27,111,129,93,805493
17,9,10,-12,-46,-41,34,14,104,-81,11,26,143,91,-20,65,15,16,67,89,-120,-130,9,56,-142,304,43,-15,140,149,42,805494
41,18,-3,-12,-37,-34,65,-128,-45,-118,85,76,54,144,5,102,22,21,58,123,-40,-103,16,26,-65,434,25,-13,130,154,67,805495
43,19,3,-6,-17,-29,42,-157,8,18,-59,39,109,105,98,119,33,21,46,128,19,-52,15,30,-40,474,19,-9,102,140,13,805496
184,28,-43,-34,-18,-26,142,-24,-73,-84,294,111,-42,119,78,272,-16,-33,-118,262,538,67,-40,-116,308,1186,-129,-96,-3,6,-356,805497
221,35,-41,-51,-13,-7,149,49,2,-97,256,123,-126,-6,59,281,-66,-77,-231,240,734,95,-92,-211,367,1449,-195,-164,-125,-95,-376,805498
171,30,-17,-47,-2,-5,125,-7,24,-97,13,108,-39,-42,104,224,-64,-54,-212,155,659,93,-86,-173,233,1277,-153,-141,-165,-101,-298,805499
52,9,13,-33,-15,-21,12,-66,-34,-3,-5,49,2,-46,-3,91,-22,13,-91,1,373,59,-43,-60,-51,753,-42,-66,-144,-42,-88,805500
-12,16,34,-20,-7,-7,-56,26,-3,2,-70,-40,94,-39,-22,-10,9,37,-22,-107,152,30,-14,5,-231,337,30,-16,-128,-18,46,805501
-36,14,39,-22,-1,-3,-95,-41,43,-66,-80,-113,159,-169,13,-47,-6,14,-50,-143,102,12,-35,-9,-284,195,13,-33,-135,-38,91,805502
-22,4,24,-37,-4,-6,-99,-4,41,153,124,-150,142,-277,-81,-36,-22,-15,-101,-129,137,16,-60,-47,-255,214,-25,-68,-147,-72,26,805503
-13,-5,26,-41,-3,8,-113,-99,71,139,-80,-92,178,-197,-57,-49,-32,-12,-103,-134,127,26,-48,-50,-261,181,-20,-60,-142,-83,32,805504
3,1,33,-16,11,13,-86,-16,-5,144,-194,-47,247,38,-6,-33,-11,7,-79,-109,132,33,-24,-32,-238,171,-6,-38,-104,-70,10,805505
7,-1,11,-21,-9,-21,-38,117,-12,-61,-117,-37,236,166,-29,-14,-20,-10,-96,-80,154,34,-33,-47,-198,236,-24,-43,-97,-73,-23,805506
95,21,-1,-19,7,-4,54,158,76,-45,226,4,205,89,15,72,-43,-39,-148,6,334,75,-49,-105,-26,564,-78,-76,-108,-94,-161,805507
121,25,-11,-20,5,8,88,126,60,-82,294,-34,-164,-60,9,120,-48,-45,-174,49,427,73,-63,-132,56,774,-103,-102,-107,-116,-177,805508
107,24,2,-14,-6,12,81,-25,-21,-66,50,-39,-148,91,28,130,-29,-22,-135,67,401,54,-44,-105,37,779,-68,-88,-83,-74,-175,805509
64,16,14,-14,0,4,41,95,59,59,166,-82,-29,-16,-20,86,-19,-8,-81,30,253,9,-36,-55,-45,623,-30,-79,-46,-30,15,805510
-20,9,23,-7,-17,-19,-43,-8,38,87,-50,-143,72,27,-83,13,14,21,3,-23,-1,-44,2,27,-201,292,38,-41,2,36,169,805511
10,21,33,10,-13,-5,19,144,21,-38,25,-14,99,100,-32,66,34,48,28,54,33,-15,34,38,-114,379,52,-23,55,87,93,805512
9,11,47,14,-6,4,23,128,59,-33,52,-81,43,22,-41,40,23,37,43,34,-48,-46,30,40,-143,307,48,-22,57,101,134,805513
-3,6,48,6,-16,5,12,294,184,10,97,-145,-13,-44,-38,-6,-8,0,15,-2,-108,-79,7,13,-179,232,10,-52,29,67,50,805514
10,-4,44,13,-7,15,12,154,58,115,81,-19,-27,-74,0,-23,-24,-19,-7,-21,-105,-84,-15,-3,-169,241,-1,-64,13,44,112,805515
21,-14,23,-4,-3,35,-21,92,7,-30,5,37,-1,-60,-49,-52,-60,-74,-47,-64,-108,-129,-49,-60,-178,226,-52,-100,-28,-11,15,805516
129,5,-8,-31,13,28,49,113,-67,-79,122,25,-107,25,-129,81,-85,-109,-149,65,277,-40,-78,-167,96,779,-158,-149,-81,-91,-295,805517
122,5,-25,-54,-14,-2,58,112,-107,-119,-137,25,-5,84,-36,160,-47,-69,-156,125,470,47,-59,-156,212,1045,-138,-116,-86,-84,-264,805518
83,13,-32,-37,-26,-20,82,177,-93,-117,-67,-11,-74,146,-37,172,-8,-20,-126,107,477,84,-49,-106,183,1032,-87,-80,-72,-49,-192,805519
-5,20,2,-10,-24,-24,11,-28,-87,-133,-96,37,-69,-15,-10,57,3,12,-66,-20,217,31,-30,-27,-61,622,-9,-34,-66,-9,-79,805520
-102,14,25,-1,-22,-33,-114,-82,-37,-334,-157,-57,21,145,-70,-39,40,52,38,-106,-39,-16,16,69,-258,176,90,41,-7,55,71,805521
-108,19,34,-7,-6,-3,-192,-58,9,-185,-241,-92,-60,100,-29,-40,67,75,99,-103,-106,-11,53,112,-293,32,133,86,41,85,190,805522
-41,-8,7,-34,-12,4,-223,39,-110,-80,-244,-46,74,-137,-49,-29,15,27,43,-83,-46,-13,19,53,-240,123,67,43,10,40,6,805523
17,9,37,-17,3,22,-191,-49,-115,-96,-108,-72,69,-129,-99,3,38,47,50,-47,14,14,39,54,-195,208,70,49,21,47,30,805524
3,-4,43,-11,-7,10,-140,-48,14,-39,173,-15,20,18,-3,-15,46,55,67,-54,-37,5,51,58,-225,123,84,58,38,67,149,805525
-5,-2,24,0,5,-2,-26,-2,34,141,193,-45,12,-45,2,-34,7,23,8,-72,-38,-21,9,12,-228,144,28,19,4,21,44,805526
39,1,1,2,9,2,55,245,-27,-58,66,-10,50,-125,-63,3,-29,-30,-77,-38,91,-22,-28,-69,-118,357,-44,-44,-44,-45,-121,805527
84,7,-19,5,-5,6,84,-34,-78,141,-67,20,-75,-11,62,60,-34,-37,-121,16,239,9,-30,-105,-19,586,-86,-78,-62,-76,-170,805528
68,14,-10,0,-12,-5,73,-197,-114,87,-99,27,-30,-150,31,56,-46,-50,-111,14,235,2,-43,-98,-29,612,-71,-94,-73,-75,-154,805529
24,18,20,10,-1,2,32,-170,44,80,-38,26,130,-48,-75,11,-44,-31,-69,-31,114,-15,-43,-49,-114,453,-24,-73,-57,-29,11,805530
-41,-1,11,1,-16,-19,-25,-89,50,131,-34,-47,-88,-125,-22,-39,-24,-4,-30,-81,-40,-41,-30,-5,-219,213,18,-37,-38,0,114,805531
11,18,-9,5,3,-6,48,71,-37,-132,212,-59,-43,-59,-38,30,-9,-3,-65,5,125,15,-11,-35,-63,435,-15,-47,-37,-6,-37,805532
0,26,28,14,13,8,-2,-119,-120,-81,-196,-52,68,-61,-51,-23,-10,-4,-21,-48,22,-1,5,-18,-149,278,4,-31,-32,3,60,805533
3,-5,23,-2,11,16,-37,-159,-29,2,-438,-32,208,-29,-64,-55,-41,-37,-23,-82,-37,-38,-22,-25,-182,198,-23,-39,-48,-9,44,805534
22,-3,30,11,17,35,8,105,29,-88,-303,-101,45,-27,-14,-56,-45,-36,-31,-90,-20,-40,-34,-28,-176,190,-28,-39,-49,-22,42,805535
19,6,7,26,5,2,54,50,-7,-190,-86,-88,-48,35,-2,-20,-15,-21,-34,-53,42,-3,-11,-30,-116,279,-28,-41,-38,-9,-10,805536
75,2,-44,-5,-5,-17,102,-116,-32,-59,-30,-73,-45,23,-54,84,-46,-57,-121,56,324,54,-26,-118,111,716,-99,-82,-57,-68,-182,805537
104,-8,-48,-39,-18,-25,90,211,-42,11,25,17,36,-129,-25,155,-35,-37,-147,116,465,85,-31,-132,214,1000,-107,-87,-60,-76,-196,805538
80,-9,-26,-48,-20,-25,56,147,-139,10,-23,26,-33,-114,47,140,-1,-8,-90,95,398,70,-10,-78,146,910,-59,-56,-35,-41,-168,805539
39,9,8,-20,-1,-4,0,25,-74,-46,8,36,-5,-35,23,73,8,21,-29,27,196,15,4,-22,-7,627,4,-20,-11,6,-101,805540
-49,6,21,-20,-14,-14,-77,-51,40,-131,-35,-127,13,-133,30,-31,0,23,17,-75,-67,-66,-9,24,-208,254,39,-7,3,31,32,805541
-42,11,24,5,-7,-4,-41,-24,-28,-11,211,-136,-36,-166,-11,-43,0,16,21,-67,-96,-63,-12,18,-218,218,39,0,11,26,6,805542
-65,-1,12,7,-15,-19,-36,-20,40,-18,237,-99,-201,-99,3,-48,-10,17,27,-65,-130,-73,-1,21,-241,163,40,4,18,35,51,805543
-44,2,12,18,-1,-9,-5,3,35,-17,38,-81,-105,-165,13,-25,4,7,36,-25,-91,-61,25,23,-196,222,39,1,34,39,23,805544
-46,13,13,21,7,-6,-22,21,-21,-125,53,-106,85,-150,-2,-45,-2,2,17,-39,-115,-65,10,10,-218,197,25,-11,14,25,46,805545
-50,-6,-12,-6,-6,-19,-47,6,-18,-144,-39,87,-81,79,31,-24,-2,0,-7,-25,-86,-44,-2,3,-191,237,13,-21,11,23,45,805546
-6,-10,-11,-27,-5,-20,-8,51,-2,-164,19,84,-63,-2,93,43,-3,4,-30,32,62,-2,0,-17,-78,463,2,-19,4,6,-45,805547
55,21,22,-9,19,6,35,11,33,-36,69,-65,165,6,75,87,-9,1,-26,61,170,18,4,-29,-11,613,-21,-15,7,-4,-56,805548
93,24,6,-16,22,25,59,161,8,30,-130,17,119,2,-21,86,-41,-36,-78,59,254,24,-36,-77,33,734,-73,-56,-39,-45,-160,805549
42,3,18,-18,7,15,-13,64,-118,-77,-236,7,55,-104,-62,12,-56,-40,-78,-32,117,-20,-48,-62,-109,528,-59,-56,-71,-47,-130,805550
-8,4,52,12,12,25,-81,-30,-23,-68,140,25,78,-211,-7,-62,-6,9,-6,-100,-47,-22,-24,0,-256,208,26,-11,-41,7,64,805551
-25,7,33,19,9,25,-73,61,-19,-18,51,-44,96,-53,47,-47,24,28,35,-88,-21,31,4,25,-229,163,42,18,-25,25,124,805552
-12,6,4,-3,-12,-21,-16,190,-66,-85,39,30,87,23,34,7,24,22,9,-49,101,91,15,3,-127,334,17,6,-24,6,36,805553
-44,-6,5,-13,-20,-46,-39,88,-66,91,20,76,17,-66,-25,19,40,48,23,-38,113,103,35,24,-136,316,48,32,-14,27,124,805554
-35,-1,-6,-26,-15,-36,-81,20,10,51,-88,42,91,-24,-41,19,24,31,0,-40,134,84,26,1,-139,319,21,10,-30,-5,39,805555
-37,-7,6,-16,-7,-11,-131,-57,22,16,-60,-14,42,15,-82,-43,22,38,13,-91,23,45,27,15,-228,163,33,12,-32,5,119,805556
-88,-19,28,-3,-5,-6,-161,-47,78,125,-73,-55,52,122,46,-115,40,47,72,-136,-196,-8,33,78,-361,-162,79,41,20,44,187,805557
-36,0,24,1,6,4,-61,-127,-2,71,-18,-29,-47,49,103,-32,44,52,69,-46,-95,26,36,75,-242,4,82,57,60,54,139,805558
-36,-12,2,-10,-7,-14,-46,-157,-3,17,123,26,-22,99,-3,-36,17,35,51,-47,-125,-7,2,54,-247,15,68,40,59,46,84,805559
-16,-5,3,1,-1,-3,-23,-137,-6,1,60,-1,-102,12,-15,-40,0,8,42,-39,-120,-38,-9,42,-235,69,47,27,57,34,53,805560
25,4,-8,14,14,-1,31,-89,-15,9,-2,-48,-56,22,-9,29,6,6,23,34,0,-13,11,16,-122,294,17,14,64,30,4,805561
11,-7,-8,7,9,-16,42,-53,-71,70,0,-39,-99,44,7,45,13,14,22,45,10,-8,13,16,-107,340,14,11,53,26,-12,805562
-34,-4,-6,15,-10,-24,34,-177,-78,-55,-18,2,-169,-55,46,4,-3,15,26,12,-72,-47,7,26,-178,263,23,8,49,27,78,805563
-57,-3,-9,4,-25,-35,25,-265,44,-1,40,77,-150,-47,-1,-14,-13,-9,42,-11,-138,-76,2,26,-225,200,26,10,53,29,75,805564
-50,21,-1,17,-16,-23,35,-167,153,81,22,82,-117,-69,-6,7,22,20,72,15,-109,-50,32,48,-210,209,50,38,73,56,40,805565
-51,14,9,-2,-19,-14,-5,-382,41,123,-96,7,-239,51,-5,6,37,34,60,21,-89,-38,36,48,-208,235,45,33,71,56,79,805566
-92,-16,11,-18,-32,-21,-84,-217,-77,40,-197,55,-68,-7,-73,-31,36,44,91,-21,-181,-52,40,77,-287,78,63,45,68,68,129,805567
-118,-14,42,-12,-20,-6,-201,5,-36,32,-260,75,111,172,-93,-100,37,43,131,-91,-351,-75,50,116,-433,-226,108,79,77,100,188,805568
-132,-26,44,-8,-14,-4,-318,148,52,153,-90,-82,212,-48,-66,-144,32,36,122,-135,-432,-84,46,111,-502,-408,114,71,74,93,301,805569
-37,-28,9,-11,4,5,-278,133,-90,-54,-111,-31,-26,-182,41,-58,16,10,40,-44,-174,-8,24,27,-305,-75,26,24,30,22,49,805570
27,-6,4,-14,20,31,-167,15,-21,-157,-37,86,31,-32,33,5,8,1,-12,-7,46,48,14,-21,-171,205,-14,1,-9,-20,4,805571
-28,-9,22,11,15,36,-48,-142,-5,-42,106,104,-23,-66,37,-74,-11,2,19,-106,-84,11,12,7,-315,-41,23,12,-39,-20,39,805572
2,-6,7,26,17,37,93,77,-36,41,141,-27,-110,-13,47,-56,-31,-22,-46,-104,12,25,-11,-50,-266,60,-16,-34,-77,-69,-83,805573
1,17,22,45,39,41,88,24,-85,-116,42,-74,-58,-91,33,-34,10,25,-7,-94,29,67,18,-15,-275,21,20,6,-45,-19,33,805574
6,12,14,28,30,17,26,-141,57,-67,-59,-50,-78,-220,27,-37,22,23,0,-91,20,74,33,4,-282,-6,24,10,-37,-21,17,805575
-13,-2,6,-1,5,-2,-26,-148,12,57,33,-69,-6,-160,-47,-67,14,10,5,-117,-49,44,11,17,-341,-80,35,13,-39,-27,28,805576
-255,-21,74,33,-7,-1,-287,-208,69,65,-33,-167,183,-66,-52,-328,89,112,238,-357,-800,-109,90,258,-914,-1224,271,154,84,147,636,805577
-337,-35,90,58,-8,-4,-341,-207,120,-81,-110,-201,81,-3,-89,-431,90,118,343,-411,-1129,-179,110,326,-1098,-1760,331,205,178,209,693,805578
-288,-28,87,60,8,7,-249,-194,147,76,2,-148,118,3,-123,-393,61,80,306,-341,-1068,-191,100,265,-984,-1666,266,177,188,177,482,805579
-122,-8,50,46,30,32,-57,18,84,-9,-28,-95,121,9,-39,-214,23,14,153,-135,-643,-104,56,125,-598,-1009,111,87,163,97,137,805580
42,-13,-5,20,40,44,121,126,-94,-63,49,31,-93,-65,11,-24,-38,-67,-26,62,-121,-17,5,-50,-194,-152,-63,-21,83,-28,-169,805581
68,-18,-14,20,33,39,125,30,-56,76,137,86,1,-157,21,-13,-54,-78,-50,77,-44,-14,-20,-73,-158,31,-87,-47,34,-55,-189,805582
30,-9,4,42,26,32,98,64,88,52,-87,-1,-93,50,60,-27,-5,-23,19,54,-127,-15,19,-1,-233,-54,-15,7,73,9,9,805583
28,8,2,51,26,31,112,139,154,56,52,32,49,149,68,20,31,19,64,85,-93,4,56,44,-206,-7,28,44,116,56,12,805584
11,2,8,17,15,18,68,116,31,83,27,71,-41,127,10,19,13,2,42,80,-64,-4,30,23,-202,48,10,14,79,34,9,805585
-13,-9,4,-4,1,17,-15,-32,-23,-12,64,-94,80,-65,-64,12,20,5,60,65,-77,15,42,42,-226,4,28,26,84,45,24,805586
-120,-24,20,11,-12,7,-140,-105,-47,121,-187,-101,7,8,-35,-88,68,60,156,-29,-335,-23,72,136,-448,-426,120,82,122,103,222,805587
-201,-27,47,42,-3,1,-192,52,-20,-67,-183,-52,185,-58,-72,-209,79,86,237,-150,-635,-88,91,215,-682,-936,200,134,145,160,333,805588
-189,-28,29,64,2,-8,-68,-72,144,-54,198,-80,192,99,-42,-219,42,59,211,-174,-641,-99,69,181,-661,-1002,164,125,129,138,325,805589
-84,-5,-6,72,11,3,123,-121,25,-32,63,29,214,37,29,-115,15,14,125,-66,-341,-28,47,90,-431,-611,81,83,87,73,130,805590
63,-3,-49,40,25,9,241,-43,-94,111,98,123,201,3,34,-7,-52,-73,-68,22,75,20,-22,-83,-151,26,-87,-32,-24,-68,-217,805591
64,-6,-28,23,30,29,67,-54,8,120,-110,25,-36,-196,42,-54,-54,-68,-85,-67,18,-11,-39,-87,-249,-58,-89,-51,-84,-92,-163,805592
36,-12,-26,5,9,18,-12,-84,7,5,-67,98,-98,-104,-34,-34,-19,-21,-50,-77,26,13,-7,-45,-268,-108,-31,-7,-69,-64,-93,805593
15,0,-24,6,7,0,13,-167,-6,-100,151,159,-111,99,-38,2,10,16,-2,-50,70,55,20,-1,-232,-68,25,33,-38,-25,-48,805594
-35,3,-18,12,-5,-15,-14,108,10,-128,-80,85,-118,76,-46,-1,51,57,83,-52,-18,61,55,72,-290,-214,90,84,20,39,36,805595
-29,10,-9,18,0,-29,-1,65,24,53,-77,42,85,-2,58,1,57,66,87,-38,-22,75,59,80,-285,-225,97,89,39,49,105,805596
-114,-9,7,17,-19,-40,-98,-145,64,-125,-485,42,88,101,36,-104,48,71,120,-137,-289,-4,50,127,-498,-605,136,96,46,69,286,805597
-147,-14,27,32,-2,-16,-160,-239,26,71,-79,-14,-23,36,-32,-156,88,95,203,-154,-480,-39,98,211,-616,-919,191,136,108,131,301,805598
-92,-11,46,39,23,28,-133,-291,49,16,5,-84,-1,-177,-3,-126,74,74,175,-82,-406,-29,97,169,-529,-800,149,111,127,110,256,805599
-34,-20,17,2,16,27,-87,-56,145,6,-50,-60,44,-129,17,-61,30,22,86,7,-209,-2,61,79,-359,-462,55,51,96,42,200,805600
-1,-20,16,-9,13,19,-3,76,143,247,83,79,78,-65,82,20,58,43,82,79,-68,44,72,76,-236,-226,53,52,109,50,140,805601
-25,-31,-17,-13,-17,-16,84,53,81,65,156,114,101,159,30,10,30,7,37,78,-44,26,45,39,-223,-138,18,22,85,30,-8,805602
-22,4,-20,25,0,-13,125,-95,64,-131,64,97,-69,269,-27,-21,6,-14,16,60,-71,9,22,17,-249,-155,-6,-8,55,9,30,805603
-32,0,-40,37,11,-18,98,67,31,-65,-166,52,-180,263,25,-62,-37,-48,-35,16,-102,-16,-35,-19,-293,-193,-41,-56,17,-26,-26,805604
-31,-1,-37,30,10,-18,96,168,-43,-71,-191,96,-103,-22,-17,-22,-46,-51,-63,43,-34,3,-41,-35,-246,-51,-64,-66,7,-35,-92,805605
-46,-1,-21,23,2,-15,45,6,-91,-172,-9,93,43,-88,-44,-7,-9,-11,11,48,-54,19,3,17,-256,-88,-3,-18,41,11,42,805606
-34,14,7,29,8,7,17,-237,-15,-27,49,-11,-55,-2,4,-19,17,13,65,39,-81,29,26,56,-281,-172,32,22,60,40,93,805607
-27,-1,13,10,25,31,10,-89,-13,-47,51,-68,25,-37,-50,-44,24,16,74,5,-122,5,31,58,-319,-266,38,22,46,44,91,805608
-2,-10,18,12,36,44,28,70,-95,-28,230,-44,181,-5,28,-38,35,25,62,0,-127,1,35,51,-332,-277,32,30,42,49,70,805609
-11,-23,0,-8,10,11,51,90,-91,-3,137,-48,-53,154,9,-45,18,15,42,-31,-127,-4,9,27,-340,-291,25,10,15,15,5,805610
26,-21,-18,-7,0,-5,108,94,-45,-121,-121,-17,-128,128,-37,2,-10,-25,-26,-6,26,13,-16,-50,-232,-58,-54,-43,-34,-39,-142,805611
-9,-17,-13,-4,-6,-18,18,109,28,-170,-33,-39,70,20,-75,-33,-28,-33,-20,-79,-38,-23,-31,-40,-310,-161,-49,-42,-62,-46,-39,805612
8,-1,-3,6,11,-7,3,80,76,60,18,72,238,157,-25,4,0,-3,16,-52,1,6,4,9,-288,-137,1,3,-36,-3,5,805613
38,7,-21,-3,-2,-12,27,-27,-15,62,173,27,33,6,45,45,22,-1,-10,-21,100,24,7,-20,-212,17,-16,-8,-42,-26,-89,805614
45,10,-26,-5,4,-9,53,-181,-62,85,182,52,59,100,76,62,24,2,-10,-8,141,38,6,-24,-174,75,-14,-11,-39,-31,-86,805615
31,7,-11,-11,5,5,44,-138,39,183,88,-14,45,108,85,45,-8,-7,-15,-19,117,15,-14,-42,-201,68,-20,-21,-52,-43,-73,805616
-28,-7,11,-3,-3,4,-30,8,-7,162,0,-47,-36,-154,-18,-53,1,-6,32,-96,-108,-33,-16,5,-382,-252,25,-8,-39,-5,34,805617
-28,8,32,23,15,25,-19,-134,13,113,-77,-82,43,-8,-21,-92,-14,-26,21,-105,-161,-52,-18,-3,-408,-336,-5,-20,-41,-16,0,805618
-23,7,30,38,22,29,-7,-240,87,-35,-138,-82,-25,87,-77,-77,-12,-24,10,-69,-133,-36,-9,3,-371,-290,-16,-19,-28,-18,97,805619
7,4,4,31,14,12,47,-56,140,-33,-28,-4,-17,21,-68,-26,-6,-25,-7,6,-16,17,-7,-18,-271,-123,-41,-26,-9,-26,61,805620
28,3,-11,19,-3,0,76,-3,16,106,16,26,38,75,-35,-5,-28,-48,-53,40,66,27,-29,-60,-208,24,-82,-57,-36,-56,-71,805621
28,12,-12,-2,-4,-6,71,-123,-42,181,73,61,111,87,26,31,-21,-32,-47,68,112,41,-4,-43,-171,103,-56,-52,-9,-29,13,805622
21,20,2,-4,9,6,53,-24,-29,212,43,105,144,110,33,62,4,-6,-19,97,141,72,8,-6,-157,150,-22,-28,15,-4,-11,805623
-6,-4,11,-17,18,29,-36,12,29,64,-155,48,145,-41,9,-9,-20,-16,-12,41,30,34,-25,-4,-257,-19,-32,-34,-3,-12,48,805624
14,-36,2,-22,16,26,-55,96,-36,26,-147,-6,31,-133,-68,-30,-63,-56,-43,10,14,10,-56,-42,-260,-24,-76,-62,-32,-40,4,805625
54,-8,24,-5,27,52,22,247,-33,136,-53,-91,47,-96,-2,8,-18,-20,-15,39,66,32,-18,-17,-219,38,-44,-34,-8,-11,-3,805626
76,8,7,4,20,31,77,110,-11,226,-81,-8,49,58,-2,37,-13,-5,-5,61,132,63,-16,-7,-174,114,-28,-28,4,4,-38,805627
43,10,-26,4,7,-10,88,-46,-42,90,78,57,-193,-90,45,47,11,5,2,64,142,65,0,0,-168,144,-12,-15,5,11,-10,805628
3,12,-22,14,0,-19,67,-47,13,-113,238,38,-157,-99,54,22,29,18,32,28,72,43,26,16,-221,55,22,-3,3,21,37,805629
-1,11,-29,7,-12,-28,87,-1,177,77,308,69,-5,18,37,25,28,16,30,14,63,22,28,8,-224,48,15,-6,2,23,16,805630
9,10,-33,3,-7,-27,87,14,2,-22,53,22,-101,51,0,39,5,-1,22,1,61,-3,1,-11,-215,70,-12,-22,-16,14,-2,805631
-5,1,-19,-19,-12,-21,-5,31,42,-83,-46,-35,-21,74,-59,19,-6,11,12,-40,11,-43,-23,-12,-256,7,-8,-23,-35,5,-23,805632
-10,-3,-11,-20,-5,1,-65,-22,24,-38,-88,-7,-210,-11,-29,21,14,20,23,-38,-18,-45,-8,17,-283,-47,15,3,-19,19,-19,805633
22,-3,-13,-23,-1,13,-24,36,-2,39,-32,-30,-142,180,55,42,2,-10,-11,-23,45,-48,-22,-24,-214,80,-21,-29,-35,-16,-85,805634
-28,-11,-1,-11,-10,-2,-42,-25,-101,80,59,-18,-224,-2,25,-10,-14,-10,-5,-87,-70,-79,-27,-18,-309,-72,-8,-24,-42,-10,-11,805635
4,19,7,3,1,6,27,86,-64,-4,154,77,-196,-135,95,39,13,13,-1,-20,19,-29,-2,-3,-226,36,8,-4,0,8,-63,805636
57,22,-13,-3,4,3,94,54,-56,-130,159,31,-190,-57,-12,94,-5,-24,-47,50,212,17,-15,-72,-82,338,-57,-42,-35,-38,-182,805637
43,20,-11,5,15,4,70,42,-13,-78,70,60,16,-57,-42,76,8,-10,-18,42,190,24,8,-51,-116,294,-46,-29,-28,-21,-97,805638
30,15,-14,0,8,2,30,87,-89,-8,53,92,-56,-112,83,62,8,-7,-29,38,183,37,10,-40,-146,254,-45,-35,-25,-16,-45,805639
-20,-6,-10,6,-3,-9,-31,-66,37,22,-77,51,38,5,72,0,13,0,-4,-12,38,16,13,-6,-248,40,-8,-27,-25,5,67,805640
-36,0,13,17,-10,1,-43,-80,-24,-3,-58,-40,92,48,1,-41,18,-5,14,-37,-37,18,12,9,-296,-108,-2,-20,-13,7,73,805641
-15,15,23,13,0,11,-40,-24,25,19,-89,-1,260,70,-30,-5,46,25,33,4,22,61,46,24,-254,-52,17,4,24,33,99,805642
13,6,35,-2,11,21,-44,6,-5,135,-42,7,187,-59,-36,18,69,40,36,33,48,69,54,28,-224,-42,27,10,27,37,85,805643
13,-10,32,-3,6,10,-62,140,-14,183,97,-71,128,-121,-48,-16,22,13,8,3,32,54,1,16,-233,-61,-3,-15,-5,14,35,805644
34,-4,28,0,23,37,-58,10,2,-87,45,-97,158,-8,15,-44,-38,-29,-17,-25,5,28,-41,-9,-261,-94,-23,-40,-19,-17,20,805645
31,5,19,14,26,39,-25,290,8,-64,-17,-47,138,-100,33,-49,-45,-34,-18,-34,-13,7,-39,-11,-272,-127,-26,-33,-20,-16,-40,805646
21,3,-2,-4,12,6,8,91,91,77,-163,-45,56,-183,0,-27,-37,-47,-34,-17,34,16,-51,-28,-215,-33,-39,-40,-29,-23,-36,805647
8,10,-21,0,-13,-17,66,178,19,53,-12,-18,-101,-123,59,6,-34,-40,-54,10,108,28,-44,-53,-147,107,-53,-53,-34,-30,-60,805648
19,26,-7,7,1,-3,99,-173,-66,16,-150,102,-106,42,31,35,16,-3,-5,34,125,41,7,-18,-131,134,-25,-20,-5,9,-56,805649
0,18,16,1,3,-2,74,-30,77,-12,-116,41,-93,124,5,40,48,25,52,24,61,24,49,32,-162,53,28,20,32,49,50,805650
-10,15,13,6,-2,11,45,32,74,12,-30,-31,-51,172,-16,58,73,53,100,36,14,28,77,77,-173,4,79,56,69,85,78,805651
6,10,-15,-16,-10,-13,27,-27,9,-20,-144,55,-39,124,-29,92,62,40,54,74,101,15,40,44,-92,176,42,27,46,61,66,805652
-38,5,2,-16,-10,-20,-62,-15,74,-68,-61,47,25,117,17,28,55,52,90,3,-77,-42,31,80,-213,-68,67,46,61,77,140,805653
-21,4,0,-15,-6,-4,-58,-30,96,89,-7,4,-54,-6,-39,-15,-16,-2,29,-34,-125,-92,-14,20,-253,-104,13,-15,14,17,66,805654
18,16,12,-4,10,13,-7,51,24,56,13,-55,-11,125,-28,-14,-66,-50,-41,-23,-53,-109,-62,-50,-213,35,-58,-74,-42,-34,-69,805655
44,13,13,-4,25,22,27,133,-57,39,-85,72,-18,125,-8,16,-60,-55,-69,11,43,-76,-51,-70,-133,175,-79,-78,-46,-45,-105,805656
165,22,-36,-21,18,7,180,357,-40,106,137,129,-138,80,97,185,-71,-77,-181,169,460,37,-68,-172,202,817,-177,-132,-82,-108,-453,805657
204,33,-52,-29,7,-5,236,321,-38,40,240,124,-45,211,54,247,-57,-66,-228,213,647,99,-69,-193,308,1099,-191,-152,-110,-133,-425,805658
171,32,-51,-24,-2,-7,195,467,32,-14,120,130,-58,88,26,226,-35,-48,-191,196,636,131,-49,-160,271,1068,-151,-126,-109,-109,-257,805659
75,28,-17,-13,-11,-10,71,16,0,10,178,48,-71,-83,-63,115,-17,-16,-101,79,392,79,-22,-81,47,690,-70,-76,-93,-66,-23,805660
-49,7,6,-12,-27,-23,-102,-165,77,48,152,-132,116,-33,-74,-54,-19,3,-14,-80,6,-13,-31,1,-264,74,7,-46,-70,-4,174,805661
-64,9,12,-3,-21,-30,-126,59,53,-13,30,-74,-124,-14,-52,-67,6,28,32,-92,-70,-1,-21,52,-298,-106,51,-6,-21,39,151,805662
-31,-1,-14,-16,-18,-30,-58,56,-32,94,-48,-49,-81,-120,-45,14,7,13,19,-8,101,67,-6,21,-137,114,22,-4,1,24,-9,805663
-29,11,8,-22,-10,-9,-53,-109,-36,-118,-6,-52,32,-153,-15,16,30,14,15,3,103,82,16,27,-129,118,32,6,5,24,30,805664
-10,14,8,-8,-13,-3,-56,-307,-60,-46,145,-92,139,-83,16,15,47,30,20,4,88,75,28,30,-125,82,31,8,12,29,28,805665
-3,14,-3,0,-9,-11,-25,-170,59,113,-12,27,24,92,19,7,19,12,-9,-7,96,51,9,1,-113,83,-6,-13,-1,-2,-9,805666
61,26,-12,5,7,1,73,110,21,-48,105,63,-14,136,27,70,-24,-26,-97,53,262,68,-14,-83,30,375,-78,-71,-40,-49,-156,805667
114,14,-17,-16,15,5,124,64,13,-34,-82,59,-35,-23,46,140,-56,-61,-166,115,454,80,-52,-150,181,734,-139,-115,-86,-101,-292,805668
72,3,-18,-48,-10,-9,47,116,111,-67,-318,86,-45,-90,13,104,-70,-66,-149,71,396,33,-76,-122,119,706,-123,-117,-92,-102,-264,805669
0,7,12,-39,-11,-5,-62,-14,19,3,-98,-58,-230,-60,-31,35,-22,-9,-38,-4,150,-21,-40,-27,-67,354,-33,-54,-51,-21,-131,805670
-67,13,44,-17,-9,9,-118,-57,-34,-37,-27,16,-214,-5,11,-18,27,48,96,-50,-105,-49,16,89,-219,-41,90,31,40,83,119,805671
-12,9,16,-17,-2,-9,3,-76,-10,72,17,79,-69,95,4,49,21,28,67,46,18,-20,27,57,-78,192,51,24,51,59,9,805672
2,17,24,2,9,-5,-2,-29,-27,-11,50,-57,-99,-160,34,33,13,4,51,38,-23,-54,10,20,-85,190,22,-1,33,35,-55,805673
8,7,15,-4,-1,5,-3,120,16,18,-16,-42,49,-139,-45,10,-13,-18,-4,26,-41,-85,-16,-15,-92,189,-21,-40,4,-2,-48,805674
10,4,2,-16,-13,0,-2,19,-24,-57,148,-33,106,-126,-18,8,-42,-35,-61,18,-17,-105,-54,-56,-80,254,-57,-86,-33,-26,-57,805675
-1,5,10,2,-4,2,-19,-8,-70,-96,155,56,41,21,-78,12,-14,-9,-23,9,-33,-82,-13,-16,-105,212,-17,-56,-9,2,-3,805676
5,16,24,7,8,17,-1,96,19,-62,346,53,75,-11,-1,33,13,21,22,26,1,-35,24,24,-63,192,9,-4,20,31,-21,805677
-6,4,4,-10,-14,-6,-1,108,84,-104,154,28,32,-161,28,20,-29,-16,-24,4,42,-39,-27,-34,-38,239,-36,-34,-21,-16,-17,805678
-25,-7,-13,-27,-29,-34,-6,40,-44,-54,-13,-10,-6,-21,-37,-10,-43,-37,-40,-26,40,-38,-36,-48,-48,207,-37,-51,-44,-33,-37,805679
-6,15,6,2,-7,-19,22,105,-174,-10,-87,-45,-48,75,67,14,-5,2,-9,-11,77,15,4,-8,-19,200,8,-10,-17,-2,-79,805680
1,6,-14,-3,-8,-11,17,-45,-181,9,-127,-66,-121,-36,46,30,-7,-2,-17,-6,125,48,-2,-23,11,243,-12,-14,-18,-8,-95,805681
3,9,9,8,10,19,-31,63,-105,-9,-145,-166,-140,-29,11,9,9,16,1,-28,87,47,2,9,-15,151,6,6,-12,-1,2,805682
-2,-1,6,-6,-4,11,-63,25,-16,-27,143,-131,-14,-81,6,-13,4,8,-9,-54,86,37,-6,3,-16,129,-6,4,-17,-12,-8,805683
-4,7,8,-18,-19,-7,-21,-32,-79,-165,385,-32,-27,53,-5,22,29,34,13,-27,121,61,41,12,23,173,14,18,0,10,-3,805684
-16,18,10,-9,-14,-11,1,-47,25,-138,189,-23,37,325,75,24,67,59,59,-13,99,75,64,55,15,114,58,56,34,42,90,805685
-22,28,9,14,-1,-2,-12,-161,74,-64,132,12,-27,81,52,11,49,42,46,-16,82,60,47,42,6,91,41,44,19,30,64,805686
-35,9,15,7,-7,-7,-50,3,48,-188,14,6,19,-50,-16,1,30,39,36,-29,45,30,46,40,-5,73,26,21,15,21,92,805687
-31,3,10,-11,-16,-17,-118,-166,11,-225,39,80,-60,83,15,29,21,28,22,-10,78,40,20,30,44,131,16,16,23,17,66,805688
-45,1,2,-34,-28,-16,-222,-96,-19,-40,-156,30,-54,166,21,22,9,22,10,3,55,24,-2,28,30,122,16,8,14,11,-7,805689
-30,1,6,-42,-10,-1,-260,-237,-54,-47,-288,90,98,112,42,22,-13,12,-13,14,64,-4,-19,3,43,173,-7,-17,-3,-6,-91,805690
-43,-8,14,-36,-4,-9,-197,-5,9,124,-28,49,142,-36,107,-15,-19,-3,-4,-15,-56,-56,-20,13,-37,71,17,-27,-5,5,30,805691
11,9,22,4,5,3,64,38,39,272,222,17,-109,-31,175,40,11,20,23,65,-22,-29,23,20,35,162,32,-16,31,43,11,805692
24,9,3,6,3,-2,167,-97,50,231,29,-34,-114,-39,90,16,-47,-45,-82,47,0,-87,-43,-72,58,264,-61,-97,-46,-42,-123,805693
4,23,14,23,6,7,120,-180,-3,20,-64,19,35,-22,70,-35,-80,-74,-86,-2,-81,-126,-92,-75,-17,172,-79,-110,-74,-58,-82,805694
-33,3,6,20,-18,1,69,66,55,-42,-178,-19,104,-98,-18,-33,-58,-47,-32,5,-123,-100,-47,-34,-37,125,-35,-66,-41,-26,-4,805695
-37,-7,0,10,-26,-22,60,117,-36,-282,-56,-33,-7,-75,-108,3,-28,-29,-30,36,-83,-68,-32,-28,7,172,-25,-52,-32,-8,-66,805696
40,15,-14,12,4,2,150,-28,20,-220,138,24,-68,-33,-10,102,-26,-22,-73,114,160,2,-23,-60,198,506,-62,-69,-37,-34,-85,805697
81,9,-26,-20,-4,-2,148,34,-35,-72,-3,-4,-107,-131,40,120,-55,-47,-139,105,296,24,-51,-120,271,697,-113,-104,-82,-94,-148,805698
65,-1,-14,-44,-19,-10,97,-105,-78,-11,68,-43,129,6,55,89,-64,-51,-129,59,275,28,-82,-120,228,636,-108,-102,-108,-95,-265,805699
7,-1,2,-42,-23,-13,0,-71,-177,115,20,-60,149,40,19,13,-27,-11,-50,-34,96,12,-43,-33,84,320,-18,-36,-76,-36,-130,805700
8,26,16,1,8,-8,1,-39,52,-49,2,44,-102,97,-28,10,19,33,29,-30,49,37,18,41,58,175,54,27,-2,23,39,805701
-3,14,8,-6,-3,-7,11,40,123,-61,-208,9,-171,65,-77,14,18,31,25,-35,59,43,10,36,73,169,33,18,-9,4,53,805702
-47,3,18,-16,-4,-10,-48,139,18,-161,-32,-4,16,83,63,-18,24,46,50,-64,-13,29,14,51,33,37,46,40,8,24,48,805703
-47,12,13,-13,-11,-18,-63,108,-91,-29,6,61,144,210,16,-3,29,46,53,-51,24,38,31,48,69,66,50,48,23,32,66,805704
-33,2,-6,-15,-26,-33,-96,12,47,53,-220,31,-100,12,-5,-9,27,26,38,-62,29,24,18,32,78,93,26,18,6,4,-14,805705
-26,-11,-16,-18,-32,-35,-87,-83,117,-8,-55,45,-269,132,-49,-4,25,17,30,-52,28,29,7,27,83,109,23,9,1,0,15,805706
22,-13,-18,-5,-20,-10,39,-39,-93,-145,300,1,-101,154,-36,44,12,8,-11,21,150,55,6,-16,193,315,-6,0,-4,-8,-79,805707
45,1,-23,-1,-16,7,148,-71,-95,-13,167,-33,147,282,-56,48,-24,-22,-61,21,199,28,-30,-62,224,411,-56,-54,-40,-67,-200,805708
89,12,-23,8,0,3,229,110,-142,-29,108,-52,-72,34,-20,77,-36,-45,-103,60,277,31,-43,-91,289,564,-97,-79,-62,-88,-183,805709
78,15,-7,21,8,4,162,-12,-83,-38,97,-22,-27,-114,-36,60,-30,-32,-97,43,210,19,-40,-71,238,514,-85,-77,-75,-76,-31,805710
-2,15,6,5,-6,-11,-36,-54,45,-68,76,-118,95,-86,-36,-22,-18,-3,-26,-22,-20,-39,-12,-3,60,181,-21,-48,-52,-32,56,805711
1,30,20,11,-1,-2,-126,-54,-19,48,202,19,13,-10,35,-11,1,16,16,12,-70,-40,6,28,59,108,22,-12,10,14,88,805712
11,17,9,0,-9,-4,-76,-8,-52,99,107,88,39,90,40,40,10,26,27,77,6,-7,24,27,155,245,27,-6,20,26,45,805713
-24,15,20,-11,-10,-7,-23,83,-10,8,54,99,84,56,53,62,50,63,87,95,-16,15,67,84,136,192,80,45,56,79,93,805714
22,19,12,7,11,20,75,24,-64,-32,13,82,155,-30,-22,60,30,29,46,103,33,14,34,41,186,258,35,19,25,45,-10,805715
44,-4,12,-2,14,35,45,-10,-10,-64,24,-113,17,1,-11,0,-33,-32,-15,38,-20,-46,-28,-29,133,206,-33,-58,-49,-25,-63,805716
109,-10,-5,-14,17,43,90,43,22,-61,-192,-46,31,-12,-21,44,-62,-61,-101,70,131,-13,-60,-98,248,446,-94,-102,-80,-77,-182,805717
130,-7,-47,-41,-8,13,176,118,-2,-14,-218,30,2,76,-36,125,-76,-75,-166,124,354,45,-91,-151,401,813,-145,-130,-113,-114,-254,805718
110,18,-32,-9,-11,-10,179,132,-13,-50,-334,3,17,-9,28,141,-45,-34,-129,108,376,66,-51,-103,402,845,-109,-93,-98,-86,-222,805719
42,24,-4,2,-13,-7,111,176,-30,-43,-257,-88,94,-65,-28,100,-18,0,-69,38,258,54,-34,-47,290,647,-49,-50,-67,-46,-98,805720
-41,15,3,-10,-23,-21,8,188,41,-34,-146,-26,-24,-124,-86,20,4,28,9,-44,57,17,-9,23,129,310,19,-3,-35,1,32,805721
-53,4,6,-2,-20,-33,-13,-68,-18,-80,86,-32,-78,-121,-51,-24,-14,5,11,-75,-18,-7,-12,5,91,195,8,-8,-26,-6,85,805722
-43,11,7,16,-19,-14,-9,-116,-10,-228,15,2,5,60,-95,-34,-8,8,37,-88,-66,-5,-7,44,81,103,34,10,1,12,109,805723
-19,16,0,14,-9,-7,57,-46,-44,-67,-185,56,-144,-28,-21,40,36,42,48,-20,50,36,36,55,177,236,45,44,34,35,21,805724
-49,11,9,8,-8,-13,57,0,-52,-25,-120,-6,-140,-15,-47,39,75,79,87,-10,18,44,72,87,156,168,80,81,58,72,24,805725
-17,6,17,-7,-13,-9,42,2,-63,-30,45,-77,-31,22,-2,26,51,34,50,-20,44,23,39,38,185,228,37,38,20,38,12,805726
212,20,-30,-29,18,27,279,230,-137,136,188,86,25,169,87,245,-51,-75,-174,198,648,105,-46,-188,654,1200,-174,-109,-75,-128,-467,805727
380,36,-57,-50,42,64,471,206,-193,-10,64,171,84,127,112,399,-150,-171,-412,344,1155,158,-151,-383,998,2093,-380,-264,-229,-291,-765,805728
400,40,-53,-61,32,55,498,422,-101,-32,245,49,163,96,76,412,-181,-185,-495,346,1259,161,-209,-444,1022,2370,-432,-340,-320,-351,-775,805729
215,37,-2,-55,8,34,279,305,-84,93,267,-70,251,-52,4,219,-119,-104,-337,151,780,62,-162,-274,594,1716,-262,-256,-282,-242,-338,805730
-44,21,55,-21,-11,5,-48,-88,28,-32,-128,-129,179,-138,-29,-73,-35,-9,-55,-113,-3,-86,-79,-21,-7,471,-23,-94,-164,-59,133,805731
-46,24,54,13,1,13,-115,-73,56,-42,-101,-297,212,-112,1,-102,-29,-6,-5,-100,-127,-91,-54,-7,-60,224,-4,-73,-115,-32,108,805732
5,16,20,-2,-9,5,-53,15,-55,28,77,-141,165,-89,-79,-31,-37,-17,-23,-12,10,-47,-50,-33,74,400,-29,-76,-98,-38,92,805733
3,21,19,17,-4,-16,-41,109,-15,-28,-14,-41,18,-26,41,7,10,40,48,23,19,-1,4,36,99,359,39,-5,-33,32,162,805734
-13,2,-3,-4,-23,-41,-56,107,103,-16,10,68,-77,38,48,24,31,53,68,38,9,19,16,53,119,312,62,24,-2,43,129,805735
-4,13,-2,-9,-17,-21,-33,-46,123,121,14,-4,73,60,64,55,46,61,80,66,60,43,36,54,169,358,65,37,16,45,87,805736
151,26,-34,-17,-4,0,165,-32,-89,-21,199,154,93,40,38,231,9,-5,-63,239,537,145,5,-88,563,1097,-97,-37,-27,-52,-306,805737
352,36,-76,-44,17,23,379,96,-222,-134,312,165,-13,90,112,434,-84,-101,-305,409,1141,224,-74,-296,990,2129,-301,-184,-154,-208,-675,805738
354,41,-74,-58,9,20,356,-3,-159,-179,289,178,77,182,101,434,-112,-109,-352,360,1196,193,-128,-322,976,2341,-323,-229,-211,-251,-664,805739
155,24,-8,-53,-7,3,107,49,-5,-47,133,29,85,-7,59,207,-91,-61,-221,94,648,48,-127,-180,506,1598,-176,-171,-192,-155,-160,805740
-96,7,74,-17,-21,-7,-206,3,56,-69,-66,-15,-63,-233,-62,-93,0,38,58,-188,-156,-99,-55,78,-97,333,87,0,-59,33,245,805741
-47,6,58,-15,-11,9,-142,-7,134,-83,-45,73,22,-143,27,-59,-13,12,49,-126,-104,-90,-43,41,9,382,47,-11,-23,26,116,805742
-15,22,52,-7,-2,14,-106,-62,80,69,17,13,0,-227,28,-54,-15,-1,28,-136,-116,-91,-47,6,32,380,22,-28,-31,8,62,805743
11,16,40,12,9,16,-49,-61,117,174,-64,-137,61,-120,6,-31,-22,-17,9,-114,-69,-81,-47,-5,92,426,-2,-43,-27,4,65,805744
14,16,28,4,7,8,17,161,198,130,-12,-38,-38,-248,-46,6,-17,0,11,-64,15,-48,-24,-8,167,541,-2,-27,-20,9,66,805745
43,25,15,4,12,4,74,-9,92,31,-11,30,77,-118,2,60,-4,2,3,1,127,2,-12,-8,273,723,-6,-19,-6,10,-91,805746
378,47,-102,-39,32,10,448,-37,-105,37,214,148,-84,-53,27,428,-134,-169,-367,367,1154,177,-144,-352,1090,2336,-354,-244,-172,-232,-863,805747
577,60,-174,-91,15,-6,679,339,-136,76,451,233,-61,154,73,688,-223,-250,-641,595,1903,301,-229,-580,1614,3640,-574,-416,-335,-405,-1167,805748
686,80,-187,-108,6,-7,808,396,-246,9,506,226,-162,248,95,836,-253,-263,-777,721,2350,398,-277,-680,1882,4469,-660,-488,-425,-482,-1214,805749
367,59,-75,-91,-37,-30,429,214,-219,-15,181,5,-50,-79,32,491,-187,-138,-546,346,1544,203,-237,-421,1123,3335,-388,-369,-417,-329,-420,805750
-128,44,73,-15,-53,-46,-159,-167,99,-12,-185,-284,194,-298,-107,-50,-6,75,4,-157,57,-57,-78,74,-37,944,96,-50,-167,35,450,805751
-126,29,63,-17,-44,-31,-201,-34,12,-136,-297,-178,225,-73,-96,-86,-13,43,45,-138,-56,-54,-62,70,-57,655,86,-26,-107,40,278,805752
-98,20,57,-24,-35,-14,-164,-30,22,-61,-141,-135,217,-125,-62,-51,-5,42,52,-83,-7,-8,-44,59,8,642,79,-12,-59,43,259,805753
-66,22,55,-22,-16,7,-156,-284,86,-84,-235,-156,106,-8,-114,-19,15,49,53,-41,26,21,-5,51,69,636,76,7,-36,51,189,805754
-67,16,54,-26,-1,-2,-173,-227,130,78,-72,-105,7,261,-25,-2,43,65,85,-24,3,42,27,83,80,560,99,35,1,65,209,805755
35,22,-1,-48,-3,-21,-33,-19,61,142,-68,-35,5,57,68,113,19,25,9,104,298,107,6,7,347,993,13,6,-1,10,-46,805756
676,64,-181,-96,34,12,711,531,-333,172,338,237,-68,285,187,794,-226,-268,-677,780,2180,428,-219,-643,1838,4023,-620,-409,-282,-432,-1464,805757
983,95,-229,-147,46,38,1030,541,-311,8,434,380,-246,251,223,1152,-363,-408,-1118,1030,3261,549,-394,-999,2542,6019,-966,-689,-576,-720,-2020,805758
828,103,-166,-164,17,21,833,550,-150,-27,311,332,-228,136,129,1017,-339,-337,-1030,822,2987,424,-404,-886,2199,5874,-858,-667,-643,-666,-1521,805759
297,64,-28,-147,-62,-47,214,277,29,-235,223,110,39,-127,-78,467,-201,-136,-549,237,1573,112,-303,-421,991,3835,-394,-415,-496,-346,-300,805760
-213,41,128,-60,-77,-69,-373,-196,173,-170,-231,-224,304,-150,-74,-68,20,121,104,-268,-48,-134,-79,169,-202,1260,182,-8,-147,105,671,805761
-183,52,124,-16,-49,-44,-315,-324,147,-37,-128,-283,263,-278,5,-62,38,114,172,-223,-165,-115,-41,176,-175,977,202,38,-26,164,506,805762
-130,45,103,-1,-36,-28,-236,-373,35,26,-226,-178,227,-199,-33,-47,27,83,150,-195,-156,-109,-31,130,-120,950,155,29,-4,136,404,805763
-109,23,80,-8,-25,-21,-183,-119,153,39,-216,-129,152,-232,-41,-45,-2,50,122,-181,-153,-106,-54,91,-67,949,120,9,2,110,276,805764
-95,21,81,3,-18,-12,-130,-91,92,114,-88,-36,4,-113,-61,-26,-11,34,95,-155,-118,-94,-54,68,-2,980,97,-1,10,102,222,805765
-58,26,63,3,-16,-15,-85,-193,-69,154,17,-27,70,-91,-20,9,-30,15,56,-117,-31,-72,-52,27,79,1083,53,-23,5,66,85,805766
103,44,2,-20,-4,-5,88,140,68,72,-12,39,67,-96,55,161,-79,-52,-113,44,410,6,-97,-135,440,1776,-116,-124,-68,-67,-310,805767
218,38,-32,-55,-8,-11,204,324,-12,21,-3,66,102,-206,26,287,-98,-89,-240,175,770,84,-124,-238,702,2376,-221,-185,-144,-150,-424,805768
363,58,-55,-74,5,7,375,81,-187,-65,158,155,-79,-192,-10,460,-143,-136,-391,333,1251,195,-165,-371,1041,3153,-349,-259,-224,-242,-673,805769
137,39,4,-58,-20,-18,134,285,55,-127,132,-31,-4,-117,-78,233,-95,-58,-229,80,713,70,-144,-188,540,2351,-166,-173,-209,-142,-150,805770
-130,44,101,4,-29,-24,-172,89,96,-104,70,-190,57,-116,-92,-40,52,111,129,-151,-80,-30,1,131,-52,1004,146,61,-9,101,382,805771
-156,21,84,-5,-32,-29,-203,-1,58,-119,-203,-87,77,-84,-94,-73,46,91,163,-140,-148,-9,25,145,-60,795,148,97,36,107,339,805772
-172,13,83,-9,-28,-18,-262,-95,110,-242,-349,-122,168,-121,-54,-88,62,110,203,-137,-219,4,51,174,-94,601,172,125,79,127,378,805773
-145,-1,60,-18,-29,-18,-273,-61,99,-244,-136,-139,16,-153,-61,-78,68,97,180,-99,-204,19,51,146,-43,576,150,108,92,107,251,805774
-112,7,62,-17,-14,-11,-272,-95,55,-139,-76,-168,107,-91,-71,-70,72,102,163,-99,-200,16,55,135,-32,550,141,105,101,102,255,805775
-81,19,37,-15,-16,-26,-190,-185,64,96,-112,-61,88,-12,-12,-26,58,85,135,-61,-99,36,51,101,73,685,109,103,105,87,183,805776
148,29,-49,-43,-16,-41,138,103,-104,92,35,100,135,111,-5,254,-29,-34,-117,219,638,173,-30,-143,671,1867,-129,-44,-7,-77,-388,805777
213,50,-56,-51,-11,-22,220,218,-152,120,57,159,141,48,-14,354,-54,-55,-213,284,908,186,-70,-201,835,2393,-193,-105,-83,-141,-443,805778
40,35,-1,-51,-23,-26,7,134,-67,161,123,57,38,-39,-44,171,-17,6,-84,76,437,76,-47,-50,439,1731,-38,-33,-48,-43,-26,805779
-79,9,46,-53,-33,-34,-151,-89,114,47,-205,39,-68,79,-27,34,14,49,39,-63,50,-19,-8,52,152,1169,55,31,15,48,190,805780
-126,0,84,-41,-22,-17,-210,-49,3,152,43,-129,221,-55,22,-29,47,85,138,-131,-167,-59,35,124,10,840,130,85,71,120,273,805781
-145,11,78,5,-18,-24,-180,-58,27,74,195,-157,239,-274,-7,-66,33,64,146,-153,-238,-79,26,111,-28,712,119,78,71,117,180,805782
-116,18,54,28,-11,-19,-98,1,57,78,94,-190,50,-73,-73,-66,-21,-11,64,-146,-185,-98,-22,34,22,807,45,15,25,43,80,805783
-136,5,43,19,-33,-18,-104,-80,21,40,64,-215,79,-73,-67,-106,-52,-27,48,-189,-263,-124,-49,24,-27,717,29,-7,4,22,96,805784
-149,5,50,8,-32,-13,-115,-358,-33,5,78,-125,99,-72,-30,-117,-20,10,105,-194,-327,-112,-14,71,-49,578,78,34,58,66,207,805785
-91,7,73,-1,7,25,-130,-191,54,-281,-309,-173,160,-135,-28,-103,4,23,127,-169,-333,-90,6,99,-28,530,97,70,86,89,204,805786
-181,6,99,27,3,9,-308,-236,72,-230,-260,-190,93,-163,-82,-230,63,83,256,-291,-720,-155,61,219,-321,-109,218,148,148,166,479,805787
-287,0,123,60,-1,-9,-453,-259,210,-63,-42,-223,-127,-144,-117,-339,120,148,400,-379,-1041,-179,129,346,-545,-716,347,247,231,278,771,805788
-519,-24,164,80,-15,-29,-699,-425,283,42,-505,-157,27,-71,-134,-571,204,246,650,-582,-1704,-283,222,575,-1024,-1868,563,406,371,442,1121,805789
-369,-26,101,81,-3,-13,-461,-205,164,26,-622,-27,88,-18,-47,-416,165,174,542,-361,-1332,-171,214,430,-630,-1458,413,361,397,361,669,805790
31,-4,-6,46,30,24,50,-64,-44,133,47,146,-25,125,4,-3,21,-8,83,53,-165,48,70,23,280,331,22,95,198,50,-134,805791
16,-24,-9,19,17,14,74,-102,-46,56,204,73,-67,68,-19,-6,0,-18,-2,22,-84,47,33,-21,262,490,-8,40,91,-10,-111,805792
-29,-9,19,38,26,25,21,-124,14,66,171,31,-55,42,24,-71,21,23,21,-47,-202,20,47,34,130,274,33,59,90,22,55,805793
-33,-15,7,25,11,11,-27,-130,31,-45,131,-12,112,-83,-81,-84,2,0,-5,-47,-192,2,26,6,132,298,2,36,66,-9,-4,805794
-16,-11,14,20,12,4,-42,-189,54,-170,-2,-28,146,11,-54,-36,23,6,10,-1,-116,30,41,20,203,414,14,46,73,-4,52,805795
-162,-3,43,28,-4,-17,-194,-179,13,-57,-28,-6,261,-77,-107,-175,61,68,136,-140,-475,-49,73,156,-95,-151,148,133,124,93,375,805796
-889,-59,241,99,-61,-59,-1040,-589,378,-26,-469,-429,179,-145,-240,-984,287,353,881,-944,-2661,-473,280,855,-1830,-3636,836,567,427,571,1987,805797
-1235,-82,344,209,-41,-46,-1420,-883,505,145,-762,-534,101,-139,-208,-1422,469,527,1430,-1293,-4023,-652,491,1300,-2703,-6075,1255,912,795,938,2494,805798
-1021,-91,274,216,19,14,-1150,-635,420,231,-366,-382,175,-161,-125,-1244,426,430,1319,-1062,-3709,-541,486,1145,-2259,-5821,1097,860,863,866,1970,805799
-458,-74,78,176,65,52,-443,-256,170,262,58,-134,4,44,0,-672,261,183,778,-447,-2200,-235,360,608,-962,-3604,546,549,690,500,659,805800
190,-26,-101,103,108,80,332,116,-78,123,177,290,-67,389,137,37,13,-105,24,203,-190,86,128,-71,557,-387,-125,101,304,-15,-509,805801
168,-30,-85,54,84,65,248,239,-2,-15,-32,317,-5,347,80,45,12,-77,-25,136,-81,65,89,-66,515,-84,-109,63,175,-54,-420,805802
127,-38,-67,17,61,44,131,241,-30,30,-91,190,86,237,105,32,24,-46,2,114,-74,53,84,-31,452,-16,-65,63,141,-19,-260,805803
87,-21,-52,5,46,29,-27,-179,-140,11,115,162,133,143,36,-28,-9,-50,13,49,-151,15,54,-15,360,-81,-47,53,103,-7,-119,805804
56,-33,-68,-13,20,15,-134,-67,-112,9,18,159,32,85,16,-50,-60,-84,-46,10,-162,-13,1,-44,314,-46,-75,1,54,-51,-205,805805
-47,-49,-50,-16,0,-4,-187,121,-72,151,79,144,74,-11,18,-86,-31,-35,7,-38,-291,-29,26,11,188,-236,-8,35,75,6,-19,805806
-552,-76,117,57,-36,-23,-619,-370,135,123,-141,-140,224,-123,-90,-628,147,189,523,-572,-1762,-292,184,500,-982,-2573,482,344,275,342,1113,805807
-820,-85,204,146,-23,-11,-834,-415,276,104,-317,-288,138,-176,-179,-990,294,328,927,-878,-2818,-451,342,840,-1702,-4429,811,597,526,599,1584,805808
-874,-90,211,205,11,0,-903,-546,285,42,-305,-277,212,-184,-133,-1097,361,364,1105,-929,-3213,-486,445,976,-1895,-5295,925,719,679,705,1825,805809
-417,-63,70,191,77,41,-384,-347,146,132,31,85,20,132,23,-595,272,204,753,-371,-2001,-182,390,596,-795,-3624,541,553,625,475,707,805810
210,-40,-133,67,92,64,334,248,-108,148,209,265,-106,239,81,111,26,-84,-23,305,-10,160,148,-88,718,-470,-125,98,256,-33,-564,805811
164,-37,-113,19,54,44,279,93,-93,127,153,268,-129,177,23,109,10,-68,-105,249,96,123,88,-94,672,-194,-138,38,117,-79,-398,805812
83,-27,-69,30,48,44,192,79,-49,38,213,236,-90,255,77,30,34,-22,-26,173,-63,92,85,-8,481,-407,-40,84,115,-32,-209,805813
86,-17,-56,20,49,47,217,206,-102,65,132,128,-25,225,88,19,14,-40,-45,153,-35,71,51,-30,464,-325,-62,51,79,-59,-185,805814
76,-21,-48,28,45,45,206,182,-127,39,15,45,-69,0,81,-2,-4,-57,-59,125,-42,31,43,-52,427,-296,-88,28,30,-82,-229,805815
-38,-34,-4,45,34,46,34,-18,-48,-102,-164,-26,1,-68,-37,-161,10,-5,39,-41,-410,-68,56,46,104,-839,13,75,37,-19,125,805816
-620,-63,176,110,1,21,-670,-366,283,-33,-652,-293,34,-243,-91,-809,212,251,651,-709,-2185,-391,232,628,-1307,-3664,612,436,299,395,1503,805817
-940,-97,242,175,2,5,-1012,-547,371,-70,-516,-383,130,-211,-179,-1184,339,375,1076,-1016,-3335,-540,364,986,-2058,-5685,945,685,585,685,1956,805818
-765,-99,166,193,36,24,-787,-489,215,43,-290,-376,52,-174,-185,-1031,296,275,964,-797,-2997,-423,364,844,-1658,-5382,787,633,622,612,1429,805819
-306,-69,15,173,80,60,-208,-290,32,36,38,-24,-58,259,-13,-534,179,98,558,-279,-1720,-151,271,441,-571,-3527,386,412,511,342,349,805820
215,-37,-152,82,89,74,425,285,-174,74,259,197,-123,254,103,41,-44,-145,-90,244,-74,110,59,-139,667,-871,-182,14,178,-85,-631,805821
200,-34,-138,45,68,61,363,236,-237,85,128,143,-110,262,11,37,-61,-129,-158,188,36,80,22,-153,628,-564,-194,-34,59,-135,-462,805822
128,-47,-105,21,47,39,256,-32,-28,-14,-63,287,25,222,-64,-5,-29,-78,-101,127,-49,47,36,-79,500,-642,-120,-5,48,-88,-298,805823
106,-36,-84,25,41,32,240,222,-38,34,159,207,-141,111,46,-13,21,-44,-65,103,-86,56,58,-39,441,-678,-72,23,56,-58,-216,805824
109,-6,-65,45,46,29,261,243,-100,51,230,120,-99,264,107,-13,-4,-52,-73,83,-69,41,29,-41,429,-625,-81,16,40,-66,-186,805825
22,-23,-52,53,28,16,170,264,27,74,244,-32,-20,110,53,-105,-24,-53,-39,-14,-252,-35,23,-17,257,-869,-54,17,14,-47,-6,805826
-424,-64,75,75,-6,1,-425,-95,134,139,-194,-208,-6,-47,-40,-577,121,133,395,-475,-1509,-259,156,402,-776,-2883,368,266,185,237,970,805827
-749,-92,166,121,-10,-2,-853,-553,194,134,-339,-331,-56,-32,-86,-944,272,280,811,-789,-2598,-417,301,760,-1547,-4755,718,525,429,517,1538,805828
-855,-103,182,160,1,3,-952,-309,301,366,-476,-288,46,138,-77,-1071,346,337,1005,-866,-3065,-472,399,898,-1787,-5694,853,654,591,650,1568,805829
-411,-83,37,141,52,40,-357,-254,182,234,-24,69,85,77,7,-602,218,140,639,-338,-1886,-202,307,497,-727,-4034,449,447,524,394,468,805830
208,-56,-135,44,87,66,382,211,-108,54,252,409,-188,254,101,59,-47,-148,-95,290,-8,111,58,-161,711,-1028,-191,14,156,-109,-730,805831
207,-51,-126,16,75,62,340,178,-76,108,80,211,-286,104,43,65,-41,-131,-175,247,126,81,23,-194,689,-724,-211,-48,29,-165,-508,805832
159,-52,-119,8,46,41,252,155,-111,209,-6,62,-248,68,19,33,-36,-119,-158,196,74,34,22,-158,571,-734,-182,-47,-18,-164,-356,805833
96,-47,-96,11,33,19,205,267,-175,259,167,27,17,156,99,3,-30,-85,-109,157,1,19,21,-109,467,-808,-127,-19,-20,-136,-262,805834
89,-13,-72,36,29,30,227,189,-148,83,193,192,95,-44,82,26,0,-48,-66,173,32,43,44,-66,477,-761,-79,6,6,-90,-264,805835
24,-23,-39,34,29,42,111,126,-23,59,95,92,-17,14,35,-36,20,-17,-22,94,-132,8,51,-4,314,-980,-32,30,13,-52,-55,805836
-561,-68,129,86,0,19,-659,-542,203,228,-434,-297,68,-279,-77,-723,192,210,554,-602,-1923,-358,207,547,-1139,-3793,509,351,227,311,1224,805837
-897,-129,196,136,-17,3,-1034,-614,245,225,-496,-433,223,-216,-206,-1133,323,345,988,-942,-3126,-535,373,909,-1951,-5892,862,615,515,620,1826,805838
-734,-107,156,177,17,29,-762,-544,165,2,-377,-166,106,33,-106,-963,349,329,973,-718,-2842,-395,423,850,-1588,-5705,807,650,631,625,1474,805839
-277,-64,20,163,60,48,-163,-181,40,166,-94,75,-117,103,81,-460,232,155,564,-195,-1565,-98,338,454,-505,-3839,403,437,527,351,416,805840
160,-63,-160,56,49,42,355,-27,-127,119,220,313,-263,257,94,37,-2,-103,-55,249,-86,118,103,-105,586,-1459,-135,41,193,-72,-600,805841
163,-68,-164,12,32,28,315,102,-220,93,103,366,-206,260,27,51,-50,-127,-166,214,95,102,33,-158,624,-1049,-181,-39,62,-143,-504,805842
165,-52,-144,3,36,18,294,273,-30,35,259,240,-355,81,81,56,-49,-101,-168,196,140,103,15,-143,606,-928,-169,-39,25,-136,-452,805843
168,-44,-131,10,38,12,306,247,50,-113,130,274,-289,196,102,61,-41,-88,-174,192,207,110,17,-140,593,-795,-169,-50,-2,-137,-403,805844
148,-34,-116,15,35,19,296,258,-102,-80,117,138,-13,149,79,46,-15,-68,-151,171,193,109,25,-115,531,-784,-141,-39,-23,-114,-301,805845
101,-20,-92,41,37,18,251,220,-163,-61,144,193,-122,213,79,9,7,-46,-104,126,91,79,39,-59,439,-902,-96,-17,-24,-77,-156,805846
-173,-30,-13,51,15,2,-127,-22,34,-4,-173,59,-56,28,14,-264,84,68,158,-153,-644,-68,105,185,-169,-2049,150,131,67,98,381,805847
-389,-44,46,81,-1,-8,-431,-237,173,148,-294,-92,58,-7,-6,-487,187,182,443,-355,-1357,-164,213,436,-676,-3252,400,311,246,296,770,805848
-376,-60,36,88,-3,-11,-393,-224,196,160,-157,-123,64,-49,59,-468,207,186,484,-312,-1398,-145,242,443,-633,-3415,413,333,308,311,662,805849
-104,-47,-41,69,27,33,-50,-105,-44,40,13,-38,-106,251,55,-187,116,68,235,-19,-692,-9,176,188,-23,-2355,165,176,232,148,18,805850
158,-57,-119,1,28,53,247,141,-43,46,19,127,-174,217,126,50,-50,-114,-144,215,106,62,6,-156,558,-1013,-173,-67,-13,-128,-446,805851
210,-21,-104,16,52,57,296,158,-131,-30,172,181,-92,85,128,99,-70,-121,-206,260,288,60,-39,-191,646,-653,-209,-115,-79,-168,-488,805852
199,-10,-90,18,45,40,280,140,-105,-22,304,167,-55,66,104,98,-79,-121,-222,231,300,28,-57,-201,611,-562,-212,-144,-126,-179,-472,805853
162,-7,-62,23,51,49,206,185,-130,154,110,226,-135,144,58,50,-76,-102,-200,174,196,-8,-47,-170,493,-672,-184,-139,-148,-161,-351,805854
112,-27,-60,6,32,37,159,160,-41,306,-180,106,-356,156,95,9,-72,-100,-170,133,100,-20,-53,-144,398,-797,-152,-124,-143,-137,-251,805855
97,-16,-42,2,21,44,179,101,-57,53,-104,131,-256,11,96,20,-50,-79,-141,129,95,-5,-41,-116,379,-774,-120,-110,-114,-113,-207,805856
52,-19,-50,-2,8,23,149,88,-91,99,-168,116,-181,12,65,-4,-40,-46,-113,102,40,-9,-29,-86,332,-864,-89,-86,-92,-89,-204,805857
88,-20,-56,8,15,7,138,170,-12,10,324,100,-12,68,40,20,-24,-40,-111,119,107,26,-8,-99,375,-764,-81,-87,-77,-76,-211,805858
146,-3,-64,3,20,12,169,290,-64,-20,178,81,-144,-7,42,72,-44,-69,-160,162,265,56,-19,-143,474,-512,-130,-110,-94,-110,-263,805859
186,1,-71,5,26,28,204,331,-79,-87,129,158,-209,-37,29,121,-64,-79,-228,188,422,103,-49,-181,560,-259,-169,-141,-119,-143,-405,805860
95,-14,-78,-12,5,3,119,15,-61,-123,-117,172,-213,32,-37,43,-49,-72,-188,108,264,69,-57,-131,411,-503,-124,-115,-106,-115,-267,805861
57,-17,-58,-20,-2,1,93,-35,-64,28,-155,99,-33,168,54,37,-29,-46,-140,90,207,65,-38,-90,345,-588,-92,-81,-81,-82,-124,805862
16,-15,-36,-14,-5,9,51,-24,-63,200,-101,23,-65,56,132,13,20,4,-64,57,101,72,17,-17,250,-789,-22,-27,-26,-16,34,805863
49,-6,-32,0,14,14,96,27,71,157,-98,93,-87,106,61,45,54,33,-25,97,155,104,54,1,297,-743,6,8,14,11,-10,805864
76,-9,-38,-3,17,11,143,276,80,155,46,10,-74,2,63,59,33,14,-69,95,216,85,36,-41,337,-627,-34,-27,-22,-36,-64,805865
92,-1,-49,4,11,-3,190,53,-16,149,63,46,-138,99,53,78,-3,-15,-122,116,313,86,3,-93,399,-443,-85,-77,-60,-85,-149,805866
354,15,-135,-42,21,3,478,328,-109,24,266,193,-327,242,124,392,-102,-137,-403,426,1153,244,-96,-356,1074,915,-359,-249,-183,-251,-765,805867
610,30,-213,-103,20,10,723,360,-289,-17,281,361,-72,108,162,718,-177,-242,-693,724,2045,400,-192,-617,1716,2437,-610,-427,-345,-444,-1240,805868
700,36,-218,-150,-3,12,807,378,-344,-96,596,278,40,-54,134,858,-227,-270,-844,813,2458,441,-257,-736,1935,3274,-711,-533,-472,-546,-1363,805869
379,18,-116,-155,-45,-21,400,178,-93,-71,400,37,-131,27,50,520,-169,-154,-614,429,1630,222,-233,-483,1164,2184,-447,-424,-466,-387,-663,805870
-85,4,19,-80,-68,-56,-150,-14,111,-8,-61,-125,37,-44,-18,6,-2,56,-63,-59,172,-50,-74,0,40,-66,16,-121,-227,-29,256,805871
-76,12,20,-36,-51,-54,-117,107,37,22,-189,-36,-16,-124,28,-4,13,52,34,-28,36,-49,-25,38,34,-323,50,-71,-132,24,190,805872
-18,5,-6,-24,-40,-60,-41,22,36,3,-247,-62,-8,-125,6,46,-3,17,8,42,133,-33,-36,-6,158,-187,3,-90,-128,-6,-21,805873
-5,12,7,-12,-14,-31,-23,-80,22,97,-62,-52,30,-55,14,37,4,14,14,38,87,-37,-37,-6,132,-251,5,-83,-110,-1,13,805874
-8,4,10,-4,-20,-14,-54,-43,13,63,216,-41,64,-56,13,-5,-16,-2,-2,2,27,-61,-51,-27,74,-349,-11,-102,-116,-12,-13,805875
89,1,-22,-22,-11,-8,61,212,55,41,141,16,-136,10,55,115,-44,-41,-96,119,314,14,-77,-117,308,80,-111,-163,-138,-68,-223,805876
520,46,-141,-61,34,20,605,484,-155,-11,204,253,-247,140,117,620,-151,-194,-507,615,1648,300,-167,-509,1381,2174,-501,-385,-270,-324,-1136,805877
774,76,-215,-133,21,14,889,497,-282,-41,300,322,-136,113,185,936,-267,-305,-868,859,2610,448,-288,-809,2008,3847,-776,-581,-492,-570,-1560,805878
613,58,-180,-161,-35,-27,667,324,-212,-1,115,163,51,15,121,790,-239,-241,-798,659,2345,345,-288,-711,1664,3603,-665,-548,-532,-534,-1154,805879
225,33,-54,-138,-55,-48,178,59,-164,-66,-117,-14,120,-218,-3,385,-137,-70,-429,221,1292,138,-206,-352,773,2035,-294,-326,-412,-283,-230,805880
-157,29,82,-58,-64,-51,-244,-5,-11,-88,-30,-139,133,-369,13,-26,38,118,57,-149,95,-15,-32,90,-110,82,142,-7,-129,55,440,805881
-153,29,62,-30,-67,-65,-165,-171,-27,-131,128,-74,-40,-244,44,-6,32,99,79,-91,77,22,-7,82,-42,-46,120,12,-41,76,301,805882
-117,34,50,4,-41,-37,-79,107,18,-308,42,-140,-14,-83,-34,28,21,73,42,-51,140,50,-21,48,47,0,70,-14,-28,53,159,805883
-89,22,36,2,-35,-26,-12,-11,5,-200,-162,-161,-141,-57,-8,47,2,42,-5,-12,200,57,-39,5,113,82,27,-46,-42,8,55,805884
-53,21,53,-15,-16,1,-3,-186,-26,-203,-49,-78,35,-30,-54,34,23,45,21,-16,163,53,-18,16,106,-1,50,-27,-22,29,73,805885
10,17,36,-25,3,13,-22,-179,36,-177,-196,34,12,-28,-73,48,35,46,17,-5,178,58,-15,11,124,6,44,-31,-9,26,45,805886
162,23,-14,-32,9,12,79,-37,-83,-157,-126,20,87,39,-57,175,-24,-27,-141,122,536,108,-75,-134,419,598,-105,-128,-75,-85,-206,805887
193,22,-34,-52,0,-2,76,151,-170,-173,-11,-42,-124,97,18,218,-97,-82,-244,158,720,113,-132,-227,531,946,-200,-215,-165,-159,-385,805888
176,7,-55,-88,-24,-16,45,-60,-41,-168,43,19,-249,5,6,223,-134,-111,-290,161,778,87,-178,-264,556,1122,-236,-256,-218,-193,-513,805889
56,18,-15,-84,-41,-39,-94,-102,-60,-158,-197,-72,-138,-148,3,143,-59,-22,-145,69,488,43,-104,-116,320,729,-84,-165,-152,-87,-141,805890
-95,28,37,-27,-42,-50,-229,-231,-41,-65,-127,18,-15,-12,27,43,88,121,146,-17,33,19,47,137,-10,-14,161,20,14,123,305,805891
-74,10,28,-32,-37,-46,-103,-28,9,-57,146,75,32,83,60,101,113,142,190,58,66,59,93,154,69,29,185,47,65,160,252,805892
-31,8,21,-20,-32,-32,31,60,-31,-196,176,5,48,-63,-27,104,56,86,108,64,104,22,44,66,122,134,90,-27,16,97,158,805893
-25,14,5,11,-35,-25,17,23,33,-102,188,24,3,-267,-9,36,-17,8,27,-10,40,-55,-25,-14,65,68,5,-116,-68,16,79,805894
6,19,20,17,-5,-4,-11,-40,-3,44,74,13,4,-212,-13,-5,-53,-22,-22,-51,5,-86,-63,-47,25,32,-25,-152,-97,-23,8,805895
42,11,7,7,4,-6,-13,149,-17,-29,43,-109,-131,139,17,-9,-92,-73,-105,-57,51,-96,-101,-120,49,106,-86,-198,-139,-86,-100,805896
132,7,-29,-12,-3,-9,115,128,-59,-162,260,-20,10,177,19,121,-117,-106,-203,69,381,-17,-126,-208,312,613,-191,-235,-164,-150,-309,805897
165,18,-36,-34,-9,-13,184,150,-73,42,-5,66,-84,-52,15,207,-91,-85,-207,156,606,57,-89,-216,478,956,-204,-196,-154,-156,-306,805898
136,21,-29,-43,-20,-20,163,182,51,100,141,100,-44,-60,28,223,-66,-47,-174,161,634,95,-56,-176,493,991,-164,-154,-126,-123,-294,805899
72,27,1,-42,-19,-2,61,1,-35,-8,-25,20,77,-104,-6,143,-41,-22,-120,80,469,65,-57,-117,341,714,-94,-120,-116,-87,-120,805900
-43,25,62,0,-6,14,-99,-18,266,-20,-32,-58,-31,58,-76,-5,13,33,27,-57,72,1,-24,21,37,57,42,-23,-40,20,213,805901
-25,31,69,9,8,14,-85,59,218,26,-4,-65,-62,-2,-35,-6,30,49,46,-29,48,30,-3,42,53,-50,56,2,-5,34,173,805902
3,16,49,5,8,8,-82,65,5,46,-17,-139,-16,-81,28,-6,23,24,24,-35,66,33,-4,21,77,-57,32,-9,-14,9,86,805903
-9,17,33,3,-3,10,-103,-88,-34,69,29,-96,74,-91,-39,-26,-1,18,25,-63,28,8,-12,14,69,-120,23,-15,-29,-4,72,805904
-12,8,29,3,3,5,-106,-126,52,8,-135,-14,214,-81,-33,-17,-2,13,22,-40,34,24,-7,-1,99,-107,13,-26,-28,-15,80,805905
-36,-8,8,-25,-17,-20,-93,-240,51,91,-31,-14,79,-119,-46,-13,-4,-15,-15,-29,59,26,-23,-25,115,-82,-7,-49,-41,-35,28,805906
96,6,-19,-29,-8,-21,110,-143,-68,141,297,-40,-39,-66,33,144,-37,-58,-134,125,443,102,-58,-131,439,538,-118,-120,-79,-98,-270,805907
223,33,-26,-17,23,19,283,164,-39,60,174,97,-8,-86,42,269,-78,-87,-240,240,777,139,-85,-225,685,1126,-201,-193,-145,-168,-460,805908
258,22,-25,-33,28,33,297,119,-32,-12,-141,103,-38,-276,-20,255,-151,-151,-334,210,843,93,-158,-310,700,1335,-288,-280,-241,-242,-462,805909
150,12,3,-35,12,18,118,131,0,-34,-98,-61,-1,-188,-21,105,-141,-126,-264,42,502,-18,-158,-226,399,890,-213,-253,-243,-189,-154,805910
-32,18,45,-5,-12,-1,-84,30,16,-58,-101,-131,20,-135,-56,-48,-34,-13,-26,-116,-1,-101,-62,-13,25,107,-5,-112,-105,-13,127,805911
-48,24,30,-3,-18,-19,-153,-59,105,-36,-147,-116,49,5,-48,-16,-12,13,21,-101,-49,-86,-36,17,29,65,30,-85,-48,34,147,805912
-33,26,35,-11,0,-16,-268,-104,66,4,-100,5,102,214,45,-1,4,21,32,-87,-51,-68,-10,31,55,69,45,-68,-10,55,90,805913
-46,0,19,-50,-25,-29,-324,-182,119,-37,-167,85,-44,-34,21,20,33,63,73,-80,-73,-52,16,67,56,42,86,-21,40,96,219,805914
-36,-4,5,-50,-21,-24,-175,-111,109,-52,-163,43,-139,45,40,29,31,58,84,-60,-51,-35,13,71,94,53,78,-4,60,102,199,805915
43,16,-7,1,4,-9,130,33,8,-38,187,60,-74,-92,-6,74,-20,-10,-4,-2,140,-11,-23,-26,249,328,-14,-63,13,27,-18,805916
238,46,-50,2,21,12,420,163,-27,-28,283,88,3,63,22,278,-83,-92,-219,208,717,103,-88,-224,707,1238,-205,-177,-94,-120,-447,805917
329,55,-71,-34,15,9,490,98,-78,-26,277,121,-42,94,68,395,-151,-155,-397,316,1133,160,-169,-374,981,1934,-352,-282,-219,-249,-665,805918
250,33,-57,-54,-1,-6,340,192,-51,-74,152,22,-22,117,22,297,-164,-160,-396,220,998,105,-199,-353,813,1777,-331,-302,-282,-268,-552,805919
90,26,6,-39,-10,-9,86,89,54,-198,85,-133,63,-29,-27,102,-92,-76,-216,25,486,12,-130,-175,393,989,-159,-187,-220,-157,-178,805920
-61,15,58,-5,-6,-8,-132,-2,32,-105,-98,-256,95,-215,1,-80,16,38,32,-123,-72,-54,-24,44,-12,65,45,-24,-91,0,223,805921
-39,32,60,7,2,14,-106,-29,50,-11,63,-258,-2,-136,-23,-66,35,37,55,-68,-70,-21,6,44,50,-14,60,-1,-48,21,207,805922
-12,22,39,-1,5,19,-50,-181,-1,-45,102,-88,-64,-67,-52,-14,24,24,36,-7,31,6,-8,21,165,97,31,-1,-41,4,118,805923
-4,-1,18,-17,-8,3,-39,92,-65,37,53,-48,-16,3,-73,21,6,12,15,27,100,17,-24,-3,247,198,-1,-9,-51,-15,102,805924
-4,20,26,-1,-1,-2,-36,103,-48,-92,-69,-69,-129,-48,-14,30,6,10,3,55,126,27,-20,-5,284,244,2,-16,-39,-13,82,805925
-16,13,17,-7,-17,-8,-39,112,53,41,-122,-185,-176,-79,-6,3,-20,-10,-20,42,102,5,-42,-31,260,206,-18,-42,-62,-34,11,805926
25,16,17,4,0,-4,36,65,98,33,63,-59,74,77,-25,47,-10,-8,-29,66,171,22,-25,-38,325,312,-19,-32,-34,-33,-97,805927
93,14,5,1,10,-1,148,34,25,-35,199,10,68,91,-42,118,-39,-37,-83,101,342,42,-56,-94,471,621,-76,-76,-57,-74,-227,805928
103,37,0,14,16,11,174,69,-83,2,348,27,27,-13,-2,110,-59,-52,-103,85,352,38,-70,-100,475,687,-89,-94,-66,-81,-180,805929
32,37,25,39,22,4,104,163,-36,74,61,18,181,-104,43,32,-27,-19,-28,-21,143,-14,-48,-25,296,373,-23,-41,-37,-26,21,805930
-31,35,46,53,19,5,41,27,-15,-12,-176,20,31,-110,-2,-28,31,34,56,-106,-77,-35,4,55,146,31,61,18,52,63,171,805931
10,26,26,31,15,16,89,-64,135,-18,53,-90,182,-18,-102,-5,-8,-1,-10,-105,-17,-39,-23,-13,216,154,-5,-40,44,24,44,805932
-22,9,17,5,-7,-6,58,50,48,-33,61,-55,-34,-45,-97,-47,-24,-9,-19,-164,-84,-54,-32,-6,151,81,2,-36,52,39,137,805933
-13,7,-1,-7,-17,-17,93,29,63,-90,-81,-133,-97,-47,-87,5,-4,7,-3,-118,7,-18,-11,17,251,197,29,0,102,68,74,805934
-2,27,2,1,-4,-16,62,68,25,-84,28,-25,109,26,-92,55,34,43,22,-80,66,10,20,30,310,283,51,35,138,97,114,805935
-30,18,21,-1,-4,-20,-53,13,20,-26,165,32,191,-42,-21,43,48,60,56,-78,18,16,38,70,288,201,80,72,139,111,104,805936
-22,10,34,-6,-12,-7,-94,-71,63,-139,492,62,105,-16,23,30,35,33,50,-68,2,12,29,59,269,159,73,68,117,97,137,805937
-11,5,28,-5,-4,-2,-52,-38,33,13,-38,74,54,-8,23,27,22,25,14,-37,30,14,15,34,291,165,46,38,76,60,56,805938
-11,10,38,1,4,4,-38,42,-16,114,-264,51,-3,-27,62,12,19,31,19,-19,1,5,0,35,276,102,44,39,45,53,62,805939
-7,6,28,-5,3,4,-34,-28,-4,127,-238,-7,66,-22,77,7,9,18,30,10,2,-4,-5,27,297,63,28,38,12,32,136,805940
63,8,17,-11,14,19,34,-132,-28,90,-16,-80,125,-62,34,77,-19,-17,-41,105,192,27,-17,-52,459,364,-40,-21,-44,-35,-61,805941
54,-5,4,-13,6,15,1,122,-39,-174,-38,-102,111,-66,-20,50,-20,-19,-50,94,149,-2,-26,-52,418,317,-38,-26,-65,-53,-67,805942
50,5,1,-3,4,5,-8,41,13,-102,77,-4,-11,34,-12,50,-5,-6,-11,95,111,4,-14,-28,404,273,-14,-5,-56,-44,-21,805943
13,5,11,-2,0,0,-49,51,-1,-65,19,-8,69,16,26,14,19,15,30,60,-12,-15,-2,19,324,88,41,25,-33,-6,75,805944
-17,9,15,9,-6,-10,-81,20,62,45,-95,26,-83,-5,1,14,35,32,58,62,-56,-9,25,48,300,-8,59,45,-9,14,25,805945
-17,19,23,11,-4,-10,-59,-165,2,-36,-43,-6,-65,-78,13,26,54,45,64,80,-39,1,49,60,340,-6,63,72,14,29,63,805946
-70,4,34,10,-8,-6,-86,-174,35,-53,-135,13,-10,-101,14,-15,67,63,93,24,-155,-28,58,82,255,-181,107,95,43,47,193,805947
