-1200,-102,91,61,-88,-791,-646,-338,177,98,-265,-342,75,-74,-122,-679,205,209,621,-647,-2093,-309,216,573,-1333,-3541,569,400,422,450,1035,940744
-988,-92,76,98,-44,-629,-354,-437,204,-46,-278,-183,107,66,-47,-567,158,141,529,-494,-1744,-185,189,461,-1059,-3280,436,349,385,361,667,940745
-230,-27,-6,122,51,-130,213,-51,26,66,-68,17,71,41,38,-156,52,-16,174,-15,-552,58,101,102,-182,-1711,66,132,164,93,-180,940746
237,2,-70,87,85,181,405,243,-114,236,-31,189,-113,-98,27,87,-73,-134,-166,237,273,173,-22,-194,344,-525,-225,-80,-71,-168,-511,940747
211,-12,-88,20,50,149,234,335,-68,76,-30,173,-262,-191,42,66,-93,-140,-199,211,354,165,-26,-212,308,-423,-241,-104,-119,-202,-441,940748
161,-4,-62,22,44,109,170,385,138,-80,53,156,-182,16,60,83,-11,-57,-111,208,371,220,47,-114,260,-491,-150,-16,-53,-134,-214,940749
102,-4,-59,23,22,72,182,144,76,-2,46,58,32,13,84,78,4,-16,-85,200,375,262,49,-72,220,-534,-115,-3,-24,-111,-181,940750
51,-7,-45,3,16,58,177,75,-94,95,103,59,16,247,91,38,-11,-20,-96,154,343,216,23,-96,169,-566,-126,-32,-46,-128,-151,940751
-106,-27,-22,-8,-3,-39,60,-57,-31,-12,-73,13,24,250,4,-78,-28,-23,-48,8,88,93,-14,-35,-46,-901,-67,-18,-31,-99,-24,940752
-590,-50,23,32,-47,-373,-219,-101,-30,-153,-239,-126,193,-265,6,-394,7,23,174,-363,-747,-109,8,163,-676,-2095,144,94,76,38,400,940753
-747,-30,55,94,-25,-469,-245,-124,236,58,-37,-179,126,-141,-16,-475,70,74,296,-444,-1104,-140,80,270,-871,-2641,253,172,185,160,540,940754
-557,-31,26,92,-4,-344,-103,-56,132,136,145,-57,59,-118,-6,-305,126,111,291,-232,-836,-26,145,264,-569,-2280,248,206,239,212,358,940755
-57,-1,-35,65,49,-15,167,339,62,75,102,107,-75,-37,73,-6,47,11,54,109,-97,67,92,41,70,-1102,22,80,109,58,-123,940756
193,0,-85,28,51,135,188,252,-26,-8,131,154,-28,121,45,100,-40,-81,-138,210,206,10,-6,-125,332,-411,-125,-43,-37,-77,-351,940757
157,14,-65,10,54,127,50,209,-103,15,42,162,-143,60,0,100,-8,-38,-122,179,80,-61,3,-76,296,-367,-57,-20,-15,-18,-250,940758
130,23,-46,17,43,111,-13,86,-56,70,103,36,-172,2,75,75,-5,-35,-137,151,-42,-133,-1,-71,234,-381,-58,-45,-24,-19,-218,940759
120,13,-43,20,40,102,56,123,-86,157,-68,131,-309,122,4,85,15,-12,-79,150,-92,-162,23,-37,226,-366,-19,1,0,14,-189,940760
76,3,-41,22,38,77,204,73,-98,46,-175,93,-79,76,-83,27,-33,-53,-88,91,-188,-193,-23,-63,166,-420,-44,-15,-32,-7,-193,940761
-50,9,-36,37,17,-17,170,23,-114,-131,-176,27,-41,-98,-8,-72,-59,-72,-74,-21,-376,-215,-54,-60,-10,-689,-40,-41,-44,-17,-92,940762
-180,5,-13,24,-13,-119,55,-98,-11,3,-406,-18,-12,-45,-18,-123,-18,-24,18,-75,-491,-160,1,25,-149,-991,36,18,10,35,97,940763
-190,6,5,20,-6,-117,10,-210,84,100,-19,-19,39,4,-37,-80,61,56,108,-23,-419,-42,71,106,-129,-1068,126,95,91,110,187,940764
-102,-2,-25,4,-12,-57,12,49,3,45,223,103,-131,9,15,-33,46,31,70,33,-215,16,57,49,-11,-913,61,73,63,66,94,940765
-4,8,-45,6,8,6,-6,131,-93,7,218,67,-192,-59,36,-11,-6,-22,-25,57,1,42,14,-41,68,-719,-52,-3,-22,-33,-29,940766
42,14,-51,-7,7,32,31,66,-67,81,183,30,-200,114,65,31,12,-7,-61,100,161,96,22,-57,127,-599,-68,-24,-34,-57,-40,940767
37,0,-53,-8,7,18,85,54,10,8,172,55,-86,174,30,21,-12,-23,-85,79,206,106,2,-76,104,-596,-90,-51,-62,-97,-98,940768
69,11,-42,4,19,50,93,21,-42,116,75,48,-62,-86,4,37,-31,-42,-94,90,284,124,-23,-93,144,-526,-104,-50,-64,-116,-139,940769
51,16,-19,13,24,66,80,46,-112,-69,-23,7,-205,-127,43,41,-21,-33,-98,91,309,144,-21,-80,140,-552,-95,-41,-43,-102,-125,940770
98,33,-23,24,30,84,114,-12,-86,-53,96,57,-169,-31,12,71,-8,-16,-84,122,396,165,-3,-86,194,-447,-87,-37,-40,-93,-128,940771
107,41,-35,17,18,72,115,-58,35,6,125,-5,-218,197,12,69,-33,-35,-113,120,431,161,-20,-110,196,-377,-116,-67,-74,-124,-140,940772
-34,27,-26,12,-12,-30,47,-75,24,20,101,-27,-48,147,28,-13,-25,-16,-82,23,207,111,-40,-47,37,-639,-70,-42,-45,-75,-30,940773
-87,4,-21,14,-18,-54,33,50,-76,-107,-211,-84,-115,6,-68,-41,-8,-7,-32,-16,75,69,-28,2,-28,-780,-21,-4,-11,-34,-11,940774
12,11,-34,-1,7,34,89,85,-97,-34,105,-4,-39,-186,-53,13,-34,-36,-81,43,181,28,-28,-59,79,-548,-77,-37,-43,-74,-170,940775
22,42,-4,10,28,50,101,41,-9,163,61,102,82,-130,54,24,-9,-6,-82,61,131,5,-12,-37,88,-492,-57,-38,-33,-50,-127,940776
6,35,-8,13,16,24,111,71,-37,124,115,38,-82,-76,71,17,0,-14,-62,46,26,-44,-1,-20,82,-496,-42,-18,-19,-18,-92,940777
36,23,-39,-5,-4,38,159,-143,-2,-16,146,17,54,-137,77,55,-10,-23,-83,76,17,-99,-17,-42,155,-332,-38,-23,-11,-2,-118,940778
79,41,-35,21,8,67,210,-90,-28,66,35,34,56,-114,31,84,4,-11,-45,117,11,-112,1,-14,210,-213,-15,1,0,19,-114,940779
119,38,-30,43,28,91,186,39,-146,-65,51,62,-191,-29,-32,64,-39,-55,-93,87,-30,-162,-47,-56,200,-159,-53,-55,-64,-19,-143,940780
97,23,-40,17,22,61,89,-33,-63,-24,118,22,-130,-84,28,7,-84,-93,-155,23,-124,-205,-94,-108,116,-203,-95,-122,-116,-53,-113,940781
363,35,-87,-19,23,245,195,197,-31,-27,91,60,-61,-1,50,170,-127,-148,-270,208,327,-90,-116,-248,479,458,-222,-189,-178,-145,-523,940782
1072,74,-172,-72,90,723,561,301,-146,-97,602,255,-162,-3,119,605,-214,-267,-617,680,1550,160,-194,-579,1363,2239,-548,-373,-392,-396,-1204,940783
1283,108,-176,-91,99,851,609,342,-156,-181,278,356,-197,40,122,735,-245,-262,-748,785,1984,261,-239,-649,1572,2916,-621,-441,-486,-490,-1213,940784
1160,125,-144,-95,81,765,475,412,-202,-106,319,264,-268,91,141,671,-219,-206,-693,686,1911,269,-235,-583,1390,2806,-558,-423,-468,-460,-916,940785
356,59,-45,-108,-40,221,-51,-58,-133,13,31,9,-121,166,-43,214,-115,-46,-314,155,781,71,-142,-237,400,1071,-219,-223,-266,-233,-47,940786
-130,50,40,-58,-57,-88,-242,-141,46,127,-25,-18,125,28,-8,-30,16,84,46,-98,73,30,-17,80,-131,-162,80,4,-23,23,330,940787
-108,46,30,-29,-39,-75,-170,-179,-42,19,-85,-43,6,-59,108,-26,35,68,79,-74,101,65,0,75,-85,-260,70,13,2,33,237,940788
-64,33,27,-30,-21,-45,-121,-167,-107,79,-55,44,-166,-25,72,-12,37,56,44,-47,177,88,-5,29,-37,-252,31,-13,-20,6,162,940789
-69,46,28,-7,-4,-43,-93,38,-106,107,19,-34,15,-101,-2,2,40,56,38,-42,179,106,5,38,-48,-311,32,-3,-18,19,139,940790
-81,28,4,-4,-9,-50,-106,17,-14,33,-123,-71,8,-111,-23,-19,21,43,38,-60,138,101,5,36,-78,-384,39,9,-3,6,203,940791
144,41,-24,2,10,96,39,153,1,-37,-81,-13,16,-30,-5,92,-25,-27,-59,74,453,118,-14,-76,192,93,-76,-59,-74,-69,-172,940792
1006,89,-143,-41,83,658,538,538,-106,64,164,149,-105,82,85,593,-155,-200,-517,631,1797,314,-136,-497,1256,2188,-503,-316,-323,-382,-1079,940793
1359,132,-165,-80,109,896,703,453,-232,-16,430,340,-125,210,158,815,-196,-234,-727,835,2409,382,-191,-671,1667,3278,-658,-436,-451,-521,-1280,940794
1246,127,-134,-102,81,811,591,349,-206,-100,404,148,-44,186,128,732,-200,-206,-722,728,2255,296,-219,-645,1494,3269,-610,-443,-461,-517,-975,940795
341,77,12,-71,-12,216,48,-31,49,-74,-108,-31,139,-41,-32,189,-105,-34,-321,95,794,-2,-163,-226,343,1297,-179,-226,-237,-216,-16,940796
-228,34,58,-38,-69,-154,-232,-191,66,-84,-125,-132,126,-189,-59,-146,-23,53,28,-249,-217,-179,-93,63,-321,-134,109,-34,-27,29,331,940797
-118,30,50,-36,-46,-85,-121,-92,54,13,-123,-114,248,-242,-11,-78,-23,18,18,-171,-168,-190,-80,17,-184,-12,69,-42,-20,39,230,940798
-175,26,58,-22,-45,-116,-73,15,171,26,50,-122,14,-205,1,-64,37,72,122,-172,-299,-161,-6,104,-220,-175,142,37,57,115,301,940799
-161,20,28,-25,-49,-104,-35,17,107,-85,-89,-186,-76,-57,-40,-52,32,57,121,-145,-303,-132,15,92,-179,-154,117,42,61,112,209,940800
-172,19,12,-16,-50,-110,-127,-30,-63,-168,-129,-162,-7,118,-17,-65,14,33,71,-159,-352,-139,-7,67,-201,-211,92,5,43,85,153,940801
267,59,-37,-28,16,194,105,56,-103,-87,-25,103,-46,64,103,219,-16,-22,-92,180,357,42,-22,-110,382,779,-83,-73,-23,-23,-376,940802
1397,134,-179,-71,126,941,710,349,-182,-30,122,447,-105,298,167,845,-225,-262,-685,889,2207,330,-206,-678,1758,3527,-647,-420,-416,-461,-1495,940803
1731,157,-202,-113,141,1141,772,408,-351,-116,332,372,-69,93,65,987,-306,-323,-943,1010,2812,349,-313,-873,2066,4549,-845,-578,-619,-658,-1579,940804
1485,149,-152,-137,91,954,538,333,-305,-135,332,281,-81,-67,79,853,-248,-215,-816,809,2509,296,-285,-709,1721,4199,-689,-506,-568,-567,-1090,940805
373,87,11,-109,-52,212,-122,-266,-52,-84,-405,-5,-20,-133,-34,295,0,113,-175,147,880,109,-84,-81,391,1764,-51,-101,-171,-95,201,940806
-312,29,76,-78,-117,-230,-422,-397,113,-60,-335,-167,91,-117,-113,-54,143,234,235,-221,-154,20,50,276,-339,78,291,147,111,202,681,940807
-263,15,73,-60,-88,-178,-348,-343,77,43,-166,-27,156,7,-57,-47,126,177,235,-177,-115,55,61,234,-270,-9,234,132,116,188,506,940808
-175,10,55,-56,-62,-116,-267,-361,-2,52,-19,23,-7,-2,-43,-14,107,140,202,-125,-14,66,53,184,-181,57,176,109,105,152,314,940809
-77,36,53,-15,-22,-60,-164,-202,13,107,-12,43,-40,-95,-43,-23,41,56,127,-118,36,21,-12,91,-137,118,88,51,37,70,150,940810
-62,47,49,25,-11,-55,-121,48,86,78,-73,-98,89,-104,-109,-60,-28,2,75,-153,12,-25,-83,40,-156,75,41,6,-16,21,62,940811
118,62,22,21,12,76,4,152,-44,82,-28,-41,-63,-46,-47,58,-23,-9,-2,-3,309,36,-62,-38,89,492,-33,-32,-39,-15,-112,940812
797,81,-86,-37,70,509,384,354,-191,-97,220,160,-252,254,17,457,-119,-132,-389,443,1374,195,-137,-383,917,2137,-365,-249,-253,-259,-819,940813
1130,98,-121,-77,75,722,559,331,-168,-53,230,222,-213,122,26,634,-208,-236,-637,610,1941,220,-214,-593,1300,3145,-567,-410,-427,-437,-1045,940814
990,87,-93,-96,44,624,424,195,-131,45,479,157,-21,-5,27,515,-238,-238,-632,443,1718,115,-264,-565,1081,3006,-535,-426,-459,-454,-761,940815
228,43,21,-79,-43,123,-50,-115,-4,-5,62,-93,158,-76,-38,89,-112,-44,-238,-55,497,-84,-187,-175,128,1312,-130,-199,-225,-174,66,940816
-164,26,88,-28,-58,-121,-234,-125,92,-10,-228,-272,79,-33,-20,-110,-1,55,63,-256,-189,-132,-74,79,-308,282,120,-5,-3,53,373,940817
-91,32,87,-18,-24,-71,-153,36,24,34,-124,-129,3,-97,-38,-75,-12,31,45,-193,-149,-111,-58,41,-210,339,80,-24,2,36,253,940818
-92,7,62,-41,-39,-81,-119,22,13,-122,-160,-139,77,-50,-84,-68,-26,20,42,-184,-178,-101,-67,30,-195,303,76,-25,-2,44,193,940819
-22,30,61,-11,-24,-49,-64,-153,82,-93,1,-133,300,-12,-25,-48,-33,-7,12,-151,-108,-72,-75,-3,-127,394,38,-47,-14,26,108,940820
23,37,42,-8,-27,-31,-95,-45,69,-2,17,-71,76,-203,4,-11,-33,-16,-2,-102,-23,-36,-69,-31,-64,488,14,-65,-37,4,69,940821
80,36,32,-4,-10,18,-39,67,125,-73,183,-81,158,-162,2,57,6,16,7,-21,101,41,-11,-18,45,620,21,-45,-18,31,37,940822
834,75,-80,-34,61,531,422,451,-107,-199,482,194,-7,79,134,465,-122,-163,-420,453,1281,215,-153,-403,936,2369,-375,-296,-269,-254,-842,940823
1131,95,-112,-66,75,731,538,459,-85,-129,424,255,-143,95,101,618,-201,-229,-624,589,1790,250,-245,-574,1235,3224,-544,-404,-427,-410,-1028,940824
895,94,-65,-82,48,588,336,126,-109,37,217,107,-79,-5,14,509,-150,-139,-483,433,1514,192,-199,-422,957,2876,-387,-307,-359,-320,-642,940825
205,42,32,-94,-21,133,-125,105,84,-49,0,-39,215,110,-70,121,-42,6,-160,-14,485,-7,-110,-96,132,1379,-65,-123,-171,-101,110,940826
-144,16,66,-60,-53,-112,-282,-73,99,26,-69,-123,74,69,-58,-88,18,61,81,-220,-96,-82,-41,83,-262,451,97,1,-19,65,332,940827
-80,36,62,-18,-31,-72,-180,-195,62,18,-134,-102,54,74,20,-14,63,99,159,-134,-39,5,2,142,-156,452,145,93,74,130,296,940828
-89,39,45,-10,-49,-67,-184,-342,24,10,-346,-148,141,-64,-27,6,73,111,169,-109,-45,41,13,148,-127,416,157,100,90,143,296,940829
-125,14,34,-27,-48,-85,-226,-242,38,-30,-385,8,46,73,-20,-16,66,92,154,-124,-107,-8,22,126,-157,341,149,82,79,130,266,940830
-89,13,37,-37,-39,-57,-204,-144,57,17,-150,40,106,84,27,16,77,86,165,-90,-55,4,51,139,-103,383,143,95,96,131,183,940831
74,26,30,-23,-4,58,-71,-144,-39,-91,40,131,113,-34,76,104,74,70,126,29,156,57,50,88,96,698,87,80,73,97,65,940832
394,43,-3,-37,36,269,153,-7,-14,-93,87,52,73,51,70,266,-4,-13,-56,220,631,103,-6,-91,458,1434,-90,-28,-43,-42,-227,940833
588,63,-30,-42,45,391,262,-120,-34,43,12,66,68,-4,40,359,-61,-65,-216,318,948,126,-75,-215,670,1973,-211,-134,-156,-159,-420,940834
567,67,-18,-41,38,361,214,-96,-102,8,-208,95,-103,46,-35,307,-107,-100,-287,259,915,86,-134,-269,601,2007,-256,-204,-220,-212,-420,940835
202,29,33,-27,-7,112,-20,43,-81,-34,-229,-125,-50,96,-38,67,-81,-53,-152,-14,333,-38,-118,-130,107,1195,-113,-141,-158,-115,0,940836
-55,27,70,2,-16,-38,-123,4,59,-29,-77,-115,103,115,-18,-66,-26,9,1,-165,-60,-72,-71,12,-189,556,31,-53,-50,4,230,940837
-49,20,68,10,-8,-31,-56,-186,40,3,-43,-142,184,179,-59,-52,-30,-4,11,-137,-33,-26,-57,2,-146,521,16,-37,-30,-2,140,940838
-83,9,61,5,-15,-65,-61,-205,53,-138,-145,-60,283,9,-64,-64,-5,24,84,-154,-78,1,-24,50,-179,397,59,29,22,36,236,940839
-136,-6,59,3,-21,-93,-111,-63,133,-162,-80,9,322,-98,0,-62,37,61,148,-157,-138,25,29,102,-210,256,93,78,76,81,276,940840
-118,-2,66,-5,-16,-71,-172,-14,90,-92,125,-9,59,-54,-31,-21,53,79,154,-99,-66,70,54,112,-156,287,118,97,106,98,233,940841
-40,1,49,-18,-1,-13,-160,-142,57,68,34,-62,-90,-25,-2,19,44,73,118,-47,57,67,36,86,-57,438,90,84,73,78,141,940842
312,32,-17,-29,39,194,33,7,36,-141,175,126,-5,18,48,196,-13,-4,-29,166,561,124,-9,-69,345,1199,-75,-12,-22,-36,-254,940843
415,33,-34,-34,33,246,116,176,-116,-114,56,40,-127,151,117,243,-39,-44,-109,206,723,117,-18,-148,450,1508,-147,-83,-89,-105,-303,940844
236,19,-26,-31,-1,117,80,19,-82,20,-32,-68,-50,99,24,108,-79,-83,-151,60,453,6,-77,-159,227,1227,-150,-130,-141,-133,-245,940845
15,15,4,-15,-31,-25,2,23,-109,73,-16,-77,173,-126,38,-17,-55,-34,-34,-82,93,-69,-78,-39,-21,755,-11,-57,-68,-26,-22,940846
-25,15,44,1,-13,-24,-34,-104,48,21,140,11,139,-7,34,-3,8,36,69,-78,-39,-57,-18,60,-75,583,87,24,17,54,99,940847
-45,-9,52,-28,-8,-19,-73,-102,60,113,-31,-101,152,22,-107,-36,-3,27,80,-104,-162,-90,-33,49,-126,452,74,23,18,54,121,940848
-34,-7,45,-16,3,-11,-27,-70,55,-45,-161,-132,61,34,-104,-63,-46,-21,45,-128,-192,-131,-62,15,-138,435,31,-14,-14,22,34,940849
-25,-17,32,-6,1,-10,19,-266,46,-84,-21,-148,73,4,-47,-32,-15,10,50,-97,-179,-104,-33,37,-106,458,62,3,11,44,94,940850
-23,-11,24,-1,-4,-20,3,-267,7,-135,-82,-119,77,64,-72,-20,14,25,51,-67,-176,-86,13,40,-80,462,42,17,31,55,54,940851
107,8,-10,-8,5,54,-34,-278,-83,-172,-93,-19,-54,1,-22,73,-7,2,-2,23,31,-48,-9,-15,95,766,-5,-15,5,35,-75,940852
181,26,-10,-27,10,118,-95,-148,-76,-110,-113,15,-16,59,64,156,20,38,21,116,202,28,31,-2,205,996,26,17,21,51,-28,940853
172,18,-10,-57,-5,115,-174,-88,-65,-128,50,27,100,207,80,153,17,42,20,117,225,45,23,-7,216,1038,17,9,9,27,-48,940854
320,27,-13,-32,25,203,-27,-55,-8,-123,77,70,8,295,23,211,-4,1,-50,184,447,88,-5,-75,362,1345,-53,-34,-51,-28,-200,940855
146,-3,29,-10,13,81,26,55,7,-91,85,-36,-50,125,-109,88,9,15,7,29,202,31,11,-24,107,932,-3,0,-27,-8,24,940856
-83,-5,58,18,-1,-68,-84,-92,4,-62,-199,-133,20,7,-187,-65,5,37,76,-134,-127,-8,-4,48,-185,361,59,19,9,28,181,940857
-96,-9,29,26,-13,-83,-183,-18,81,-57,-243,-103,-127,-69,-129,-99,-29,-2,52,-159,-112,16,-33,16,-210,274,30,-13,-16,2,65,940858
-79,-18,33,2,6,-62,-258,51,85,84,-32,-112,13,-122,-64,-109,-47,-22,4,-156,-52,33,-55,-5,-193,264,12,-37,-32,-11,46,940859
-35,-20,47,-15,16,-24,-124,-41,96,73,-120,-116,89,-141,-26,-55,-7,4,21,-87,56,104,-31,16,-119,326,28,-10,4,12,51,940860
-9,-14,53,14,7,-8,135,-83,79,64,29,-184,134,-63,-58,-18,28,34,55,-40,129,137,11,50,-65,356,50,28,40,35,68,940861
136,0,11,40,26,68,265,-143,55,102,285,-151,145,-24,-91,42,-31,-20,-35,25,335,111,-28,-32,93,675,-38,-20,-26,-31,-120,940862
263,19,4,47,48,148,271,115,-16,166,355,-53,79,-84,-6,99,-72,-63,-94,79,477,66,-58,-96,218,991,-107,-65,-62,-84,-218,940863
114,16,46,36,29,52,149,14,-68,39,-23,-85,197,-138,24,22,-29,-23,-25,-13,213,-9,-27,-32,44,708,-41,-33,-24,-32,-41,940864
53,-4,61,23,32,25,81,-22,-1,-18,-96,-85,254,-45,-82,-30,-35,-37,-33,-61,70,-69,-39,-51,-39,576,-47,-51,-49,-45,-39,940865
-43,-9,69,29,37,-31,25,58,167,6,-18,-79,93,-204,-63,-113,-34,-32,-20,-153,-193,-124,-57,-5,-192,301,-2,-50,-36,-13,48,940866
-4,-23,36,25,18,-13,63,-2,74,-55,-82,-178,-57,-139,-53,-85,-54,-45,-46,-121,-190,-136,-56,-31,-141,377,-22,-66,-56,-23,-30,940867
37,-30,7,26,13,5,111,27,66,20,147,-85,175,-137,-108,-50,-61,-47,-84,-77,-149,-152,-58,-78,-72,519,-46,-95,-79,-41,-31,940868
-2,-18,10,43,6,-25,114,155,99,-52,178,-79,308,-116,-27,-89,-86,-67,-76,-115,-254,-212,-76,-83,-126,472,-41,-104,-90,-45,-73,940869
-37,-27,13,19,-10,-28,71,86,80,-182,-5,-85,57,-124,-48,-108,-94,-68,-60,-125,-300,-228,-80,-69,-144,450,-27,-95,-88,-43,-14,940870
-55,-22,26,17,-6,-30,47,-88,61,-114,-60,-110,-43,-154,-45,-81,-43,-22,-14,-98,-335,-182,-40,-21,-133,411,27,-48,-31,11,24,940871
-42,-21,27,23,7,-33,70,-17,30,-49,-34,-84,174,-104,-103,-57,-34,-15,-14,-79,-331,-138,-41,-4,-115,393,19,-38,-6,16,18,940872
-369,-43,86,36,-22,-253,-118,-361,101,106,-38,-134,224,-318,-84,-266,14,48,161,-320,-847,-214,0,160,-540,-423,170,60,79,116,421,940873
-561,-65,101,51,-34,-369,-206,-276,206,52,-189,-316,107,-235,-24,-364,84,117,338,-401,-1148,-207,73,301,-755,-1001,297,181,200,233,565,940874
-343,-40,50,43,-12,-217,-80,-184,85,-139,-61,-106,-30,-144,1,-189,99,97,295,-204,-744,-81,118,243,-430,-575,216,187,203,205,227,940875
-34,-25,-16,6,6,-23,17,-130,-2,-85,90,-56,-216,-131,59,13,73,44,130,27,-145,47,94,88,-3,168,58,100,110,91,4,940876
80,-15,-5,2,13,41,64,-162,-68,42,49,71,-40,-119,17,92,57,51,58,98,142,136,91,44,132,462,23,64,60,44,5,940877
42,-15,-3,13,3,13,87,-242,-92,-207,87,77,24,-20,-7,47,38,36,59,52,170,149,66,44,64,387,37,54,46,29,-20,940878
59,-19,-11,14,8,25,90,-76,-149,-60,251,-18,-81,131,26,34,-8,-3,-5,34,262,144,16,-16,49,420,-9,13,-6,-25,-69,940879
28,-23,-6,-11,6,13,-23,31,-129,37,238,28,-160,110,10,0,-35,-18,-20,1,258,124,-16,-28,-8,340,-26,-2,-31,-52,-37,940880
67,-25,-3,-4,19,46,-47,124,-50,65,-11,85,-81,93,-55,9,7,7,47,16,315,144,29,9,38,377,-20,52,9,-26,-1,940881
-85,-27,13,25,-8,-61,-93,0,10,191,-18,15,-34,154,-80,-68,45,62,135,-78,73,103,49,121,-139,48,82,111,65,40,215,940882
-376,-40,52,47,-37,-251,-169,-184,9,221,-150,-187,6,8,-55,-215,82,106,235,-242,-419,2,76,231,-468,-600,216,161,156,151,464,940883
-542,-63,59,31,-68,-372,-216,-250,86,125,109,-212,-24,113,-21,-289,95,116,292,-309,-733,-74,112,281,-629,-988,267,181,206,208,535,940884
-513,-61,75,47,-46,-342,-217,-73,115,26,67,-128,-58,33,-12,-278,119,110,313,-276,-812,-110,133,286,-593,-1055,274,193,232,226,460,940885
-123,-43,21,37,21,-79,-13,-14,39,-128,173,-42,-75,-63,51,-99,27,-14,120,-58,-356,-79,61,71,-149,-258,58,58,107,79,-17,940886
56,-33,-8,25,33,25,66,112,-1,-105,186,16,120,-151,79,-19,-33,-73,-24,27,-150,-88,3,-44,34,203,-52,-36,8,-19,-171,940887
18,-34,4,24,13,9,62,254,-40,-235,124,-63,-9,-71,7,-31,-20,-52,-48,-2,-253,-148,15,-23,-20,200,-22,-44,-1,4,-70,940888
36,-17,17,40,31,22,89,278,38,-151,-112,-12,86,62,-70,-19,-30,-42,-33,9,-283,-158,22,-11,2,267,-12,-25,6,3,-42,940889
6,-22,9,22,12,6,44,141,-97,-68,-40,-109,73,93,-71,-16,-12,-27,-14,7,-318,-150,27,12,2,253,9,-12,18,22,17,940890
9,-39,6,-3,1,8,24,-57,-170,-266,86,3,23,-22,22,7,13,-11,-1,24,-305,-140,42,22,20,310,26,6,31,29,27,940891
-15,-49,8,-23,-8,-21,36,115,68,-104,141,45,-80,-110,21,-1,-11,-11,0,8,-314,-139,15,25,3,298,23,1,24,32,21,940892
-286,-37,75,16,-19,-194,-80,-4,148,120,17,-79,0,-8,-56,-166,48,59,174,-174,-734,-159,54,190,-345,-394,183,100,128,145,340,940893
-471,-46,93,49,-21,-314,-154,-167,11,138,-98,-106,28,-80,-39,-275,83,95,289,-275,-1016,-172,93,280,-567,-935,263,168,197,227,475,940894
-537,-73,67,25,-48,-353,-201,-151,15,175,-67,-63,28,-164,17,-301,81,98,297,-298,-1054,-145,99,301,-616,-1129,278,173,212,244,456,940895
-160,-47,-3,13,5,-103,-97,-16,56,38,83,64,-46,-25,-29,-100,20,0,103,-62,-411,9,47,103,-160,-353,66,76,97,99,19,940896
86,-51,-35,-23,26,58,-14,7,34,-42,116,38,-5,41,-63,29,-29,-52,-54,65,94,99,1,-49,101,221,-90,-4,-18,-50,-215,940897
51,-49,-5,-22,16,37,24,147,27,-5,113,-7,100,58,10,29,15,-10,-9,44,174,160,32,-1,47,153,-42,31,0,-32,-97,940898
45,-49,-9,-1,-1,32,64,34,-14,127,-10,107,-30,101,20,25,32,9,13,46,264,192,50,9,39,133,-31,31,13,-24,-67,940899
88,-28,-18,5,-1,62,61,132,-57,148,124,104,-58,111,-54,48,19,10,-16,75,400,211,48,-12,90,234,-49,21,-7,-42,-74,940900
62,-7,6,13,8,36,-19,46,12,68,-106,113,-20,13,16,31,28,36,-9,45,359,179,43,16,37,164,-7,42,7,-10,-44,940901
-94,-36,28,0,-9,-69,-133,68,18,-24,-170,21,-219,63,27,-58,37,43,55,-51,100,101,42,80,-146,-180,47,74,44,23,144,940902
-539,-83,84,6,-50,-351,-352,-71,-19,72,-105,-151,-32,58,-122,-307,90,119,287,-330,-657,-37,108,287,-650,-1196,244,204,193,174,577,940903
-634,-82,98,11,-48,-404,-369,-204,40,6,-301,-58,219,-47,-143,-368,99,118,321,-372,-929,-109,128,315,-752,-1513,281,215,231,214,565,940904
-452,-72,54,20,-33,-294,-232,-48,113,-157,-402,-102,115,-36,-13,-243,87,102,254,-217,-748,-85,129,256,-503,-1153,226,188,225,198,362,940905
-101,-52,12,32,9,-77,-4,80,114,-17,-96,-28,-212,-29,19,-33,44,23,114,14,-295,-30,83,104,-74,-357,72,104,138,95,19,940906
0,-26,8,40,26,-5,58,-5,12,107,62,-2,-103,-70,-48,7,26,3,33,50,-195,-61,46,39,11,-76,31,45,75,41,-43,940907
49,-7,-4,40,32,18,82,-118,-20,63,87,99,-141,-100,24,40,0,-20,-23,80,-116,-74,32,1,93,128,-6,-5,31,11,-112,940908
36,-25,8,34,28,12,59,131,90,129,229,73,-110,-43,30,25,6,-18,-25,76,-161,-79,31,5,82,140,-6,-7,32,12,-39,940909
74,-13,0,22,25,32,66,119,24,154,249,54,13,-50,-108,23,-15,-34,-26,71,-161,-85,11,-10,96,208,-24,-16,15,12,-80,940910
60,-23,-9,11,9,22,43,178,61,31,147,22,-84,-100,-77,4,-38,-47,-42,36,-200,-105,-18,-36,58,208,-31,-34,-16,-6,-71,940911
-61,-30,14,16,-2,-55,7,112,139,181,40,-15,20,51,-92,-82,-25,-25,-24,-59,-377,-140,-5,-14,-110,-60,2,-23,-10,1,11,940912
-229,-40,25,29,-17,-164,-70,-129,38,209,-237,63,27,-45,-97,-170,-5,-10,22,-161,-601,-157,-4,45,-303,-433,65,-8,14,27,136,940913
-218,-25,27,28,-13,-147,-38,47,-97,120,38,234,-163,-53,-29,-123,41,50,96,-106,-525,-71,58,104,-257,-451,123,69,83,107,171,940914
-182,-33,18,17,-10,-119,-44,184,-56,126,64,80,-32,61,60,-65,77,88,143,-54,-405,2,93,141,-195,-418,151,115,122,133,175,940915
-66,-9,0,16,-1,-30,13,40,-37,13,-22,131,128,56,64,10,71,57,101,41,-159,79,80,94,-30,-176,69,87,91,85,-16,940916
106,-11,-42,-23,0,70,102,93,-15,-42,112,58,28,25,81,117,62,34,41,159,216,154,84,21,202,252,-13,73,56,24,-101,940917
43,-27,-32,-21,-3,29,39,215,11,60,116,81,42,-25,53,85,82,76,78,107,194,151,96,69,109,109,36,111,81,53,52,940918
6,-18,3,-6,1,13,24,130,-40,52,-93,45,-109,-4,61,73,94,88,95,79,191,153,104,85,68,22,56,117,82,54,32,940919
-55,-21,5,0,-12,-28,-20,6,-68,-124,-55,50,-160,-15,44,12,65,61,84,25,120,117,74,75,-20,-122,58,104,70,32,70,940920
-122,-29,2,0,-15,-66,-81,-138,-79,-157,165,93,-41,58,-14,-63,21,17,30,-64,-7,47,29,32,-133,-301,14,53,19,-10,122,940921
-82,-22,5,-4,1,-32,-45,18,-135,-111,-68,132,0,64,-16,-68,-10,-31,-30,-55,23,28,-7,-39,-105,-241,-52,-7,-26,-63,6,940922
-450,-59,68,2,-37,-269,-264,-54,17,174,-212,-51,34,-122,-123,-300,45,37,148,-322,-615,-98,33,137,-574,-1113,122,85,58,51,444,940923
-565,-70,66,23,-31,-344,-310,-202,176,172,-148,-70,-77,-63,-164,-346,73,69,272,-361,-864,-121,59,252,-672,-1459,234,168,151,165,466,940924
-384,-46,17,30,-24,-231,-176,-177,125,46,-140,8,-229,102,48,-181,103,95,271,-169,-615,-37,107,249,-392,-1062,229,199,205,201,368,940925
-151,-22,-16,22,0,-72,-28,-62,25,-30,-24,127,-147,178,44,-17,100,80,155,25,-270,40,113,156,-83,-490,138,138,169,145,146,940926
18,-15,-25,15,25,31,32,51,-139,66,4,136,-155,-18,72,43,31,9,29,84,-75,5,59,30,77,-94,12,50,74,49,-45,940927
20,-9,-12,12,31,39,-25,-151,-75,159,57,188,-125,-46,93,60,54,26,49,87,-70,19,87,52,77,-47,31,70,86,57,-31,940928
27,-10,-15,-21,21,23,-85,81,-82,49,279,85,-160,32,135,66,83,68,35,108,-80,44,89,64,80,-14,55,71,88,68,14,940929
13,-19,-29,-24,8,7,-126,166,-37,-81,-131,49,-153,98,119,32,34,26,7,80,-121,-8,52,17,44,-35,4,27,47,26,-60,940930
23,-10,-13,-15,20,31,-87,218,-45,71,-315,64,-36,42,-1,48,37,33,9,82,-98,-3,53,42,43,-7,33,33,47,42,-23,940931
-46,-15,20,-8,20,-5,-62,108,2,74,-70,15,263,60,-12,15,77,75,98,57,-180,14,90,103,-19,-147,104,96,96,93,158,940932
-138,-32,22,-3,8,-77,-109,24,28,74,151,73,206,191,30,-17,119,109,165,9,-294,21,133,161,-93,-354,176,155,153,151,245,940933
-149,-35,16,-1,4,-91,-74,25,111,78,-50,193,203,9,9,-24,102,96,163,-3,-297,3,110,158,-96,-403,173,137,140,157,225,940934
-252,-26,35,33,1,-154,-74,-100,118,67,-144,14,208,-138,-16,-173,24,18,82,-153,-499,-113,32,67,-295,-709,65,42,41,51,220,940935
-93,-9,9,45,21,-37,22,93,83,48,-121,-33,91,-124,26,-115,-40,-45,-20,-74,-255,-90,-16,-40,-133,-410,-37,-37,-39,-40,-43,940936
45,-3,-15,17,24,54,116,125,68,-53,-43,50,44,-48,67,-7,-24,-47,-60,37,41,-6,-4,-72,39,-48,-65,-45,-54,-55,-94,940937
-30,-26,-9,-20,6,-10,43,158,32,86,-60,31,-143,26,21,-33,-4,-6,-34,-6,-9,15,7,-25,-53,-197,-39,-16,-25,-31,-1,940938
-88,-32,-14,-33,-10,-57,-12,96,-80,-89,-83,-32,-4,8,-57,-78,-12,-14,-11,-52,-78,10,-9,-7,-138,-353,-33,-11,-9,-36,43,940939
-19,-6,-21,6,2,-6,12,-122,-109,-67,-59,-79,108,26,27,-44,-32,-44,-36,-17,43,44,-24,-42,-47,-208,-68,-24,-30,-58,-69,940940
78,16,-33,45,31,41,42,93,-98,-26,14,40,-33,-141,112,7,-56,-74,-104,36,197,57,-45,-104,61,5,-121,-69,-82,-105,-189,940941
-141,-13,8,35,-6,-117,-72,23,-35,-116,-201,48,168,-229,99,-95,29,13,34,-90,-158,16,31,44,-220,-493,30,10,10,3,166,940942
-507,-40,47,26,-49,-357,-264,-132,88,-189,-304,-136,226,-147,20,-280,126,130,262,-281,-734,-40,118,250,-611,-1350,240,154,157,171,553,940943
-537,-48,32,47,-40,-341,-238,-181,68,-19,-32,-53,-102,-44,17,-302,98,105,297,-285,-815,-68,87,260,-607,-1488,256,186,193,191,448,940944
-404,-34,28,54,-14,-253,-142,-39,-11,-76,44,11,-133,-137,-57,-249,35,37,199,-242,-707,-99,29,166,-471,-1275,166,121,133,128,259,940945
-155,-29,-14,49,4,-99,-8,-33,-38,131,-94,51,-46,-24,16,-118,-8,-39,63,-88,-359,-68,17,24,-166,-728,24,35,40,19,-42,940946
12,-9,-33,36,24,23,87,-86,-46,93,-219,152,-24,107,28,-17,-25,-39,-22,29,-83,-29,9,-46,42,-273,-46,-14,-13,-40,-68,940947
55,5,-32,32,23,40,123,120,18,46,-189,128,-60,105,43,4,-32,-41,-45,57,-17,-13,-7,-49,99,-145,-54,-22,-13,-40,-135,940948
106,10,-56,14,20,67,145,13,-42,-68,114,83,-62,148,86,46,-34,-51,-90,85,80,-16,-27,-78,163,31,-76,-50,-40,-59,-151,940949
95,10,-45,20,25,59,157,-33,-76,271,178,96,73,190,162,62,7,-17,-35,89,73,-13,20,-37,160,38,-56,-13,-16,-20,-155,940950
72,17,-35,31,12,35,142,-37,-8,342,101,139,-72,244,112,32,-5,-20,-28,62,30,-17,13,-29,115,-11,-54,-10,-15,-29,-105,940951
-29,14,-21,29,-2,-20,49,-9,52,194,-136,-14,-150,91,93,-31,5,-13,-1,-15,-118,-48,18,-1,-17,-227,-19,9,-9,-10,26,940952
-175,-12,-33,28,-19,-108,-54,3,31,-199,19,-103,-150,101,-2,-124,-8,-16,27,-134,-349,-131,-8,19,-207,-568,4,10,-6,-1,84,940953
-278,-19,-13,29,-24,-185,-165,60,-7,-243,20,-62,-33,-82,-88,-193,1,-10,63,-219,-530,-154,-1,60,-357,-874,55,17,16,18,203,940954
-505,-30,36,43,-36,-342,-377,-50,91,-138,-35,-95,48,-28,-105,-309,68,65,235,-332,-873,-155,66,197,-609,-1452,216,128,127,140,481,940955
-174,-8,-13,25,2,-118,-188,-48,-28,-1,54,97,27,161,12,-69,67,50,158,-47,-318,27,88,110,-143,-719,123,106,123,100,110,940956
35,-11,-52,2,11,18,-79,80,-61,98,88,111,-5,291,59,46,27,7,21,92,49,110,48,-3,104,-197,13,16,46,11,-115,940957
97,-1,-56,9,20,63,78,95,34,114,13,80,124,195,39,62,-15,-29,-68,106,172,118,-2,-76,163,2,-64,-46,-22,-51,-149,940958
27,22,-25,31,38,23,142,-126,83,25,-168,12,56,-109,26,-25,-51,-60,-106,17,73,67,-25,-98,52,-124,-111,-96,-71,-92,-156,940959
16,21,-13,41,34,13,157,61,68,145,-247,3,78,-143,-35,-18,-28,-40,-92,4,67,71,-20,-86,45,-129,-92,-70,-48,-76,-154,940960
-76,0,-1,-13,-7,-45,81,29,107,47,-173,-11,169,-3,-2,-35,17,16,13,-37,-53,75,15,12,-47,-314,15,-7,24,4,44,940961
-182,-8,9,-20,-20,-123,-26,-184,104,1,-42,12,9,26,15,-106,21,8,66,-116,-246,22,18,55,-198,-582,69,18,52,46,163,940962
-366,-14,36,1,-29,-246,-147,-243,111,-127,-3,-19,30,-4,10,-208,65,59,191,-221,-563,-55,58,167,-425,-1093,179,105,123,137,326,940963
-305,-13,26,25,-3,-202,-112,10,67,56,-246,-61,140,-118,74,-179,53,40,170,-180,-492,-70,48,142,-344,-1042,150,92,113,124,254,940964
-263,-11,7,35,5,-166,-69,1,-2,137,49,-17,85,-98,-29,-176,30,3,125,-165,-451,-91,35,91,-298,-991,93,55,73,72,139,940965
-7,13,-27,40,21,12,101,145,-150,7,103,17,69,139,-39,-6,-11,-27,1,17,-37,-21,8,-28,40,-389,-15,-7,1,-6,-117,940966
82,29,-40,26,21,77,159,218,-5,-104,-41,21,-39,264,32,61,-15,-27,-54,88,148,20,-10,-61,153,-103,-58,-24,-26,-40,-152,940967
11,19,-32,14,8,20,106,146,103,-13,-35,14,-28,247,-50,-14,-33,-38,-85,24,46,-13,-37,-79,34,-238,-67,-59,-64,-78,-106,940968
-11,3,-23,6,2,12,87,-77,-56,174,-51,34,34,-18,-3,-48,-52,-63,-127,-25,-5,-50,-53,-113,-33,-328,-89,-106,-97,-103,-112,940969
-12,0,-8,0,14,-4,76,-27,100,164,-25,81,81,-73,24,-38,-29,-32,-101,-21,-22,-26,-41,-86,-51,-371,-64,-78,-64,-70,-118,940970
-17,9,-17,13,27,-9,75,2,178,126,75,-43,-17,39,49,-30,-7,-8,-55,-13,-24,-16,-25,-42,-49,-400,-38,-37,-28,-40,-63,940971
-104,20,-16,22,-2,-63,7,-81,23,-30,158,-95,10,-59,56,-106,-15,-25,-36,-85,-161,-78,-30,-22,-162,-603,-17,-30,-33,-40,34,940972
-89,12,-19,24,-3,-56,12,71,-7,-204,218,18,31,-89,69,-97,-15,-31,-22,-66,-127,-84,-4,-27,-129,-578,-48,-21,-33,-36,1,940973
-256,-6,12,30,-15,-164,-86,-48,42,-72,153,-104,46,-132,-25,-182,35,21,83,-167,-402,-94,36,70,-331,-972,47,53,33,29,223,940974
-562,-26,56,58,-32,-365,-203,-33,227,-42,-387,-130,108,-74,-146,-318,113,115,292,-330,-886,-134,106,265,-667,-1716,264,187,190,198,560,940975
-238,-2,3,46,-3,-151,80,27,55,34,-100,106,-31,73,-8,-90,86,78,188,-65,-390,-6,95,149,-207,-1001,170,121,159,151,172,940976
-54,27,-11,54,25,-29,156,162,-89,100,45,264,-144,70,-6,-3,36,34,63,35,-144,37,54,48,-15,-546,67,41,80,62,4,940977
-9,35,-28,47,23,-7,64,-30,-100,49,-31,189,-292,150,-31,7,23,10,25,58,-95,61,41,16,44,-399,20,28,50,24,-48,940978
-1,40,-19,37,31,-6,5,-114,-11,-47,-23,85,-193,112,-22,15,50,17,34,56,-97,52,72,23,53,-343,22,44,55,34,46,940979
-41,34,-15,24,28,-35,-9,-53,45,2,63,39,-276,93,-30,-16,47,8,19,19,-155,6,72,24,8,-373,32,23,50,45,37,940980
-38,4,-35,-33,-1,-8,-21,-97,63,147,5,-92,-104,67,-75,13,20,-9,-6,62,-72,27,35,9,88,-234,20,-9,36,39,-72,940981
-305,-2,16,-29,-24,-163,-238,-146,102,178,14,-41,115,48,-112,-128,53,61,136,-105,-460,-32,51,142,-229,-814,151,71,108,127,317,940982
-1325,-62,141,29,-132,-858,-849,-390,309,14,-573,-229,238,-67,-228,-680,246,305,684,-732,-2066,-260,228,662,-1484,-3322,684,414,450,529,1391,940983
-1533,-85,143,73,-139,-989,-867,-305,271,-49,-338,-282,148,-35,-182,-743,339,379,923,-785,-2432,-231,346,827,-1670,-4107,834,576,627,690,1440,940984
-1236,-67,99,116,-71,-782,-522,-267,213,116,-184,-80,270,42,-202,-613,290,286,797,-586,-2036,-153,333,674,-1322,-3741,668,509,557,580,997,940985
-260,-16,-46,87,40,-160,58,-149,-49,119,106,95,175,72,-24,-87,129,70,299,44,-534,93,209,184,-147,-1645,176,245,278,223,-47,940986
206,-20,-108,2,40,133,259,124,-87,-21,170,112,71,228,40,170,14,-51,-46,311,297,175,82,-97,391,-407,-110,45,50,-43,-426,940987
148,3,-76,22,38,101,264,286,-96,-133,77,70,204,144,-10,105,-2,-49,-79,228,250,112,38,-100,269,-476,-126,9,-4,-86,-303,940988
156,25,-57,44,48,118,277,67,-87,-18,-109,102,5,8,-66,82,-42,-74,-103,189,299,64,15,-128,259,-408,-158,-21,-57,-119,-321,940989
138,32,-43,47,42,115,259,167,-13,-69,188,45,-85,17,3,84,-23,-50,-92,181,325,56,22,-106,244,-388,-114,-9,-49,-104,-219,940990
87,15,-42,32,36,65,174,201,-14,-44,219,109,98,19,34,59,-10,-35,-79,142,263,44,26,-87,184,-461,-99,-18,-45,-100,-147,940991
-87,-12,-34,14,1,-53,32,-32,-65,-118,85,70,-171,7,1,-61,-13,-35,-34,9,-30,-14,13,-39,-63,-833,-47,-24,-34,-66,13,940992
-353,-21,12,40,-21,-216,-95,42,41,-77,-151,-100,-217,-107,-83,-218,15,8,113,-169,-474,-72,39,94,-390,-1502,77,55,50,30,222,940993
-406,-20,19,60,-30,-262,-101,-3,236,-50,-229,-185,-97,186,-60,-274,30,4,147,-212,-603,-84,42,113,-457,-1693,85,71,79,48,290,940994
-425,-23,18,51,-23,-272,-70,-19,221,15,-176,-106,-115,94,-75,-245,74,40,185,-187,-651,-59,80,166,-445,-1745,150,121,143,108,272,940995
-122,-15,-43,26,8,-75,118,80,10,-67,138,75,-170,235,-5,-47,34,-13,44,32,-188,22,45,38,-36,-1014,43,59,81,46,-84,940996
37,0,-50,19,21,30,168,-136,-65,35,-41,40,-78,77,32,7,-37,-79,-81,97,15,24,-21,-70,146,-573,-55,-41,-15,-42,-240,940997
89,26,-31,32,39,78,126,-121,-14,-79,21,15,-144,-42,99,17,-59,-109,-130,100,56,16,-41,-113,196,-387,-95,-93,-61,-80,-247,940998
107,26,-37,15,31,91,76,66,89,-184,-9,159,-108,167,57,46,-34,-78,-127,126,93,40,-34,-101,238,-247,-79,-82,-55,-55,-195,940999
71,8,-48,-3,24,55,55,126,54,-54,-48,151,-50,231,57,57,-7,-26,-69,131,40,46,3,-43,202,-267,-43,-40,-19,-1,-136,941000
92,26,-47,12,21,59,120,125,47,13,-50,61,-32,168,40,86,23,4,-29,155,74,63,41,-11,234,-202,-4,8,24,31,-129,941001
8,17,-41,9,1,-1,95,223,107,-140,86,-87,-9,-15,-11,33,16,17,-6,83,-21,24,39,16,134,-348,9,17,19,36,-26,941002
91,35,-39,25,24,69,195,29,21,98,195,3,-126,112,49,79,3,-9,-60,138,127,46,14,-33,226,-182,-38,-18,-12,-1,-148,941003
268,48,-70,10,35,180,288,127,-44,-29,170,116,-75,159,64,165,-50,-77,-198,247,434,78,-30,-172,423,245,-171,-119,-109,-112,-327,941004
255,36,-62,-35,23,181,183,35,64,-103,69,83,141,244,100,155,-53,-70,-189,235,484,80,-28,-171,402,267,-175,-117,-127,-129,-339,941005
113,8,-14,-41,11,96,27,93,9,-209,68,-84,-105,90,88,64,-40,-38,-143,118,286,28,-33,-122,190,-82,-126,-101,-120,-108,-150,941006
23,1,-22,-30,5,34,-58,104,-121,-226,17,-136,-19,-80,-9,13,-43,-49,-135,54,173,-5,-50,-109,86,-285,-116,-111,-118,-105,-91,941007
11,-4,-33,-27,-8,-2,-68,-4,-59,-212,-26,-45,13,-52,50,20,-8,-9,-39,55,131,6,-14,-26,58,-378,-42,-28,-48,-39,-30,941008
-41,2,-22,-11,-31,-39,-40,117,25,-62,-222,60,-29,119,-31,26,38,40,70,52,66,37,43,44,23,-518,27,71,30,25,48,941009
-63,17,5,-6,-17,-38,-25,-26,105,-76,-110,97,-22,27,22,51,89,91,91,81,64,87,72,101,35,-573,97,114,86,72,159,941010
-51,8,7,-14,-17,-29,-24,-151,25,27,116,4,3,-119,67,32,56,47,68,60,55,51,30,59,20,-580,59,77,46,34,87,941011
-9,19,0,14,6,-2,4,-80,-123,52,161,10,28,-20,22,-14,-31,-37,-54,21,66,-27,-45,-65,-4,-541,-89,-43,-64,-77,-118,941012
86,31,-10,10,16,64,77,152,-56,100,21,-17,89,-123,15,48,-49,-50,-121,100,227,29,-66,-106,117,-288,-121,-84,-82,-93,-201,941013
191,25,-43,-12,10,132,126,61,-83,138,140,-63,-45,-14,75,127,-57,-64,-170,188,421,79,-71,-145,270,50,-132,-102,-84,-108,-247,941014
211,18,-56,-20,-1,138,149,-87,-180,109,28,64,-109,44,97,144,-51,-48,-175,193,455,59,-59,-133,300,190,-129,-105,-101,-99,-198,941015
42,9,-22,-5,-16,34,55,-144,-14,4,-142,6,-67,4,78,59,4,1,-51,85,188,29,-8,-24,118,-156,-32,-15,-26,-19,-6,941016
-17,21,5,16,6,-3,-25,0,-3,-30,-162,-39,-192,-33,80,28,25,19,22,33,31,21,22,30,60,-318,21,25,26,27,36,941017
-29,16,0,11,-10,-23,-116,-141,-56,-44,-84,-57,76,-66,80,15,20,14,27,36,-13,5,36,17,79,-317,30,20,30,32,9,941018
13,6,-22,-3,-28,10,-133,-64,43,34,216,38,-12,84,47,72,34,29,20,97,65,35,31,21,174,-152,38,34,45,44,-33,941019
22,-2,-9,-14,-12,15,-78,70,90,85,92,82,-68,40,11,88,36,42,35,104,64,25,27,48,183,-135,67,32,53,52,60,941020
116,15,-16,13,19,80,100,14,8,-40,90,57,-51,55,83,126,23,16,-3,164,201,43,25,-5,279,83,12,-3,21,13,-25,941021
221,34,-34,12,28,157,232,119,-14,-37,-76,51,-52,238,24,163,-32,-25,-113,206,359,31,-16,-108,385,341,-95,-70,-57,-69,-250,941022
570,46,-80,-10,58,389,417,204,-137,9,87,164,-216,294,103,318,-113,-146,-349,384,894,60,-93,-317,760,1140,-310,-209,-208,-243,-671,941023
669,59,-65,-19,69,432,399,81,-190,204,-12,152,-57,54,113,363,-123,-149,-409,416,1059,86,-110,-359,822,1433,-357,-238,-267,-289,-607,941024
398,27,-33,-40,23,246,141,-35,-81,184,-131,36,-17,-62,82,242,-72,-61,-268,261,716,66,-75,-222,496,940,-209,-160,-187,-186,-230,941025
72,19,21,-32,-10,42,-18,4,20,99,98,66,4,-69,72,80,2,37,-93,68,258,11,-22,-40,114,211,-20,-46,-67,-36,67,941026
-45,18,31,-18,-26,-33,-77,-29,33,14,151,49,-13,-122,47,26,57,79,35,14,52,25,32,61,-17,-157,71,50,23,53,131,941027
-14,-7,24,-47,-21,4,-148,122,-76,76,47,-65,27,-155,74,64,71,71,83,53,103,70,53,71,47,-130,68,71,42,63,91,941028
5,-16,-2,-64,-24,11,-176,-52,6,77,-152,-44,-62,9,64,103,81,71,100,103,177,105,56,83,120,-49,69,92,63,76,50,941029
5,-16,-16,-48,-30,-4,-174,-122,-10,-51,-260,-13,-75,18,-20,52,16,24,19,62,159,68,8,20,80,-52,10,20,-5,22,48,941030
6,-8,-8,-29,-17,-4,-128,-51,-7,-83,-104,-51,49,-77,-17,15,-19,-7,-32,28,130,41,-18,-25,47,-96,-22,-25,-48,-6,6,941031
-100,-23,16,-36,-27,-77,-151,0,37,-73,-56,0,40,15,-10,1,43,74,62,0,-22,66,40,81,-63,-327,102,39,40,86,184,941032
-366,-32,56,-11,-50,-239,-231,-97,65,105,-175,-2,109,-57,-4,-154,85,132,184,-165,-467,-12,82,193,-384,-981,224,101,105,168,440,941033
-445,-28,56,26,-43,-295,-208,-130,66,90,-143,-201,136,-54,6,-240,46,85,182,-252,-667,-107,54,186,-501,-1270,213,100,92,156,378,941034
-352,-38,39,14,-41,-227,-141,-182,-8,145,5,-187,41,14,62,-204,26,47,154,-198,-557,-83,45,132,-371,-1140,144,78,88,116,215,941035
-71,-28,8,18,-3,-40,44,26,-29,69,54,-125,73,24,8,-67,-35,-40,-2,-28,-147,-24,-1,-27,-40,-545,-39,-29,-12,-8,-149,941036
149,-9,-2,13,33,111,180,139,30,-43,49,-65,-62,-215,51,54,-63,-88,-140,97,206,-6,-43,-149,203,-3,-156,-94,-91,-110,-274,941037
76,-10,4,6,27,68,94,94,14,4,203,22,-160,-97,12,22,-29,-61,-59,55,113,-20,-21,-56,117,-147,-77,-41,-52,-73,-100,941038
88,-21,-17,-17,3,65,65,97,-39,170,325,75,4,-21,40,43,-26,-48,-50,68,150,12,-34,-50,134,-106,-63,-36,-42,-71,-80,941039
76,-16,-3,-3,2,53,40,-86,-56,-30,98,12,69,-87,15,34,-27,-26,-46,68,130,45,-23,-37,105,-161,-47,-46,-41,-66,-7,941040
34,-13,2,24,10,20,-4,-65,-70,-82,141,4,-66,-21,77,-14,-32,-33,-73,21,45,8,-26,-53,24,-271,-61,-61,-63,-88,-1,941041
-177,-25,35,41,-8,-130,-105,35,-124,64,153,-28,14,-98,71,-141,2,22,26,-134,-303,-70,5,46,-255,-783,48,15,3,-25,254,941042
-1066,-92,146,62,-106,-704,-557,-336,75,123,-133,-192,-11,-254,-26,-640,145,200,498,-702,-1686,-272,126,490,-1319,-2911,478,288,286,304,1144,941043
-1402,-120,161,100,-129,-907,-660,-386,237,79,-240,-334,10,-91,-105,-794,239,275,753,-839,-2244,-286,229,686,-1637,-3897,674,472,480,504,1303,941044
-1080,-104,99,98,-85,-692,-449,-297,167,52,-112,-204,-101,-10,11,-571,216,220,643,-553,-1761,-153,236,563,-1156,-3289,542,423,453,447,868,941045
-251,-55,-38,64,2,-153,14,-110,108,-81,77,90,-217,156,83,-116,63,12,219,-10,-500,12,125,145,-126,-1407,113,165,199,138,-149,941046
225,-13,-66,48,54,167,263,8,92,38,201,233,-50,171,134,133,-31,-84,-73,242,215,56,48,-100,379,-213,-122,-7,2,-65,-458,941047
185,-26,-60,3,29,134,181,-39,-71,97,47,117,-297,127,119,118,-36,-63,-104,190,175,-5,17,-100,311,-143,-111,-18,-28,-56,-292,941048
102,-15,-37,15,20,64,108,30,-83,-71,195,55,-133,97,109,66,0,-20,-53,123,14,-39,25,-35,191,-284,-49,18,-3,-11,-118,941049
74,-19,-54,20,6,36,87,36,-102,-7,285,83,-149,-12,40,24,-37,-58,-66,66,-37,-90,-16,-70,147,-291,-76,-20,-46,-40,-133,941050
58,-26,-59,-1,-12,35,79,-73,-125,24,154,50,-164,111,-10,11,-53,-66,-97,60,-37,-113,-41,-96,141,-246,-91,-54,-73,-55,-120,941051
-211,-36,15,-3,-22,-138,-110,-102,-84,96,-119,-24,-38,195,21,-96,46,53,92,-81,-432,-125,53,115,-168,-844,118,86,64,95,284,941052
-912,-96,116,13,-89,-592,-560,-494,81,28,-600,-189,-159,-20,-63,-485,182,201,489,-521,-1563,-265,179,491,-1016,-2572,493,324,314,381,1022,941053
-1181,-123,143,36,-96,-749,-667,-371,204,-74,-561,-185,-55,-24,-72,-627,237,253,681,-638,-2013,-270,250,648,-1304,-3418,637,436,451,521,1090,941054
-905,-107,76,39,-70,-559,-461,-405,66,-56,-91,-104,-40,128,14,-440,224,207,607,-391,-1546,-110,262,540,-889,-2944,520,407,439,463,691,941055
-160,-51,-45,32,15,-68,-29,-173,-46,-1,92,64,-20,64,53,-11,117,58,239,114,-338,132,182,187,36,-1291,156,217,231,185,-89,941056
172,-37,-88,11,25,139,155,139,-116,-81,147,118,77,152,67,116,-17,-80,-94,234,269,148,47,-99,349,-430,-129,-10,-20,-96,-348,941057
113,-44,-73,10,15,91,186,174,-41,84,-39,70,93,8,56,42,-36,-77,-132,134,255,124,7,-129,199,-548,-166,-58,-76,-145,-279,941058
98,-37,-56,8,19,68,195,89,-48,255,-16,-32,154,-86,118,19,-59,-70,-145,101,281,161,-20,-129,143,-609,-154,-80,-88,-167,-268,941059
133,-30,-42,15,25,104,177,23,-57,103,203,101,179,-81,137,30,-90,-93,-185,104,392,174,-66,-166,170,-520,-184,-120,-127,-211,-312,941060
108,-33,-32,6,23,82,97,-48,-37,-66,118,143,6,-50,68,12,-76,-79,-154,86,378,182,-58,-130,111,-580,-156,-103,-125,-188,-239,941061
-52,-38,-4,15,8,-20,-6,22,-62,-150,-152,-54,-124,-70,79,-63,-25,-36,-29,-10,137,143,-5,-28,-84,-915,-67,-24,-54,-103,4,941062
-651,-62,99,61,-48,-403,-313,17,179,-27,-83,-115,-13,-84,5,-391,93,106,323,-379,-849,-39,100,303,-789,-2320,259,185,165,154,649,941063
-820,-87,113,66,-56,-507,-394,-26,126,58,-108,-87,-6,-48,-21,-470,141,144,441,-452,-1205,-107,156,411,-933,-2815,373,267,279,278,682,941064
-580,-93,42,42,-45,-346,-333,-10,-79,-34,-32,-54,-68,-93,-61,-312,109,81,330,-270,-911,-94,129,285,-587,-2296,256,213,232,213,321,941065
-70,-57,-40,9,5,-12,-85,312,-12,31,9,165,-141,51,28,-19,11,-40,68,62,-195,-29,55,34,53,-1064,12,60,74,36,-212,941066
130,-35,-60,-16,35,116,-12,216,-16,111,94,221,-85,109,74,63,-37,-82,-96,142,68,-69,7,-106,246,-495,-104,-57,-56,-65,-363,941067
125,-24,-28,-2,42,109,64,-21,78,83,223,175,-105,158,121,45,-50,-72,-152,113,1,-122,-20,-117,193,-442,-82,-99,-79,-62,-252,941068
105,-20,-36,13,33,84,202,200,41,-53,369,14,-48,113,102,-2,-100,-102,-200,68,-77,-179,-81,-136,161,-407,-112,-141,-113,-88,-260,941069
106,-14,-45,19,30,77,227,80,29,-38,122,28,43,-47,22,-5,-103,-112,-173,58,-110,-188,-89,-136,158,-349,-126,-142,-124,-89,-227,941070
121,-14,-57,3,14,90,203,201,-45,-176,-71,31,-68,61,44,56,-47,-70,-107,106,-52,-123,-33,-87,212,-239,-84,-81,-71,-35,-183,941071
89,-8,-48,16,12,67,156,283,-40,-202,-152,-19,-176,-81,60,81,0,-14,-57,119,-52,-82,6,-22,218,-260,-12,-15,-10,26,-101,941072
-203,-25,2,33,-16,-130,-29,-55,33,68,75,-94,-115,50,-20,-108,22,35,66,-92,-492,-157,8,105,-159,-956,111,42,52,103,177,941073
-315,-44,21,28,-16,-189,-92,-124,-27,74,36,-10,109,120,-18,-155,32,58,135,-143,-636,-141,14,147,-277,-1276,144,80,97,131,190,941074
-180,-44,7,25,11,-99,-37,201,-84,-45,241,34,158,-28,-13,-107,-17,-16,40,-65,-405,-75,-23,38,-120,-1044,34,13,21,35,-18,941075
34,-37,-13,10,39,31,53,156,-22,126,40,31,11,-114,-33,-42,-97,-108,-114,22,-63,-13,-99,-115,60,-651,-114,-118,-96,-100,-167,941076
140,-30,-37,-3,41,97,112,-65,45,128,152,120,-24,-3,-9,30,-80,-87,-132,112,212,99,-78,-144,159,-431,-157,-129,-123,-136,-246,941077
152,-21,-41,-24,18,106,138,-58,-73,-20,114,86,-75,-60,-44,87,-33,-23,-94,164,382,186,-41,-83,199,-369,-119,-73,-77,-107,-186,941078
158,-5,-30,2,25,115,190,133,-98,-127,-4,-20,12,-44,68,124,6,13,-52,188,472,231,10,-35,212,-366,-103,-30,-43,-83,-136,941079
195,-8,-45,-7,13,129,185,72,-64,-93,121,20,29,-31,41,146,3,-5,-98,208,598,246,13,-86,268,-238,-145,-39,-78,-132,-204,941080
166,-10,-28,-22,23,122,106,220,-100,54,-46,-8,35,5,1,104,-24,-29,-114,145,557,181,-19,-113,214,-291,-161,-67,-100,-160,-147,941081
56,-18,-5,-20,7,56,-6,92,-57,158,-53,6,109,24,18,20,-30,-32,-100,48,339,97,-55,-80,55,-518,-110,-69,-90,-135,-73,941082
-13,-43,2,-30,-7,2,-82,72,-36,136,-135,-61,205,-137,23,-16,-29,-13,-51,11,185,54,-45,-27,-16,-648,-51,-49,-61,-85,-23,941083
-77,-39,26,-18,-9,-49,-98,-67,30,74,-87,-22,180,-144,44,-44,32,35,41,-27,5,24,31,53,-94,-820,30,12,12,-2,98,941084
18,-30,13,0,9,13,57,63,-74,181,-42,-9,18,-59,71,9,30,6,-16,25,70,2,11,4,24,-605,-13,-16,-2,-6,-14,941085
154,-8,-24,2,27,103,210,25,-164,176,37,43,123,-66,2,90,-17,-32,-74,124,251,27,-32,-59,222,-197,-63,-33,-20,-23,-76,941086
123,-7,-36,-2,12,72,219,113,-103,-17,-1,77,-103,142,-2,74,-29,-31,-56,95,187,-8,-26,-52,200,-177,-49,-28,-19,-18,-72,941087
96,3,-34,7,6,63,173,177,12,6,-126,-32,14,69,-6,37,-60,-64,-99,59,131,-68,-62,-101,178,-154,-79,-80,-67,-53,-150,941088
93,7,-7,8,23,86,73,-42,-22,111,109,-44,29,10,-28,23,-77,-71,-135,35,80,-86,-89,-109,150,-136,-93,-130,-99,-73,-142,941089
43,-16,-12,-35,-1,53,-18,148,-59,-17,111,-27,-9,128,5,1,-65,-62,-115,9,-3,-110,-75,-83,87,-221,-69,-111,-83,-50,-130,941090
58,-13,-18,-46,-2,54,-67,128,-43,64,-30,99,45,128,4,34,-49,-48,-86,38,22,-81,-50,-64,133,-155,-48,-76,-58,-38,-106,941091
109,2,-15,-50,3,87,-86,-242,68,58,-62,131,-5,33,53,97,-23,-30,-42,93,119,-20,-25,-41,220,-20,-13,-24,-26,-5,-108,941092
285,6,-45,-61,12,193,16,-142,-69,67,67,114,-24,14,37,202,-26,-43,-82,214,420,58,-36,-91,437,379,-81,-42,-44,-51,-292,941093
391,9,-54,-35,25,243,208,172,-77,72,218,214,67,114,12,240,-62,-66,-143,246,597,65,-69,-158,527,624,-163,-99,-111,-115,-365,941094
402,47,-28,1,55,271,293,269,-139,28,306,72,56,-35,18,234,-73,-77,-199,243,647,73,-94,-181,510,673,-193,-127,-144,-145,-383,941095
165,34,-1,-17,15,108,102,38,-82,-109,65,-26,-89,-95,25,98,-51,-31,-119,86,337,25,-76,-90,206,160,-97,-71,-104,-90,-77,941096
-3,0,-11,-35,-34,-12,-7,-82,-24,-157,155,-36,-129,-18,11,17,-9,21,-26,5,145,13,-36,-9,32,-241,-27,-23,-45,-33,52,941097
1,20,11,-11,-10,17,29,9,20,-83,164,-74,-63,162,3,45,22,50,3,25,170,58,-20,34,23,-307,11,9,-13,-6,63,941098
8,5,3,-14,-9,20,35,97,17,-125,104,-25,-9,43,-29,29,-8,4,-12,11,191,43,-38,-12,5,-345,-29,-20,-47,-37,16,941099
-24,10,-7,-17,-17,-4,0,65,14,-79,55,-51,-103,-98,5,-19,-20,-5,3,-28,135,35,-46,-23,-54,-442,-43,-29,-56,-46,-33,941100
-59,2,-13,-35,-26,-31,-40,84,-84,-14,-34,-7,-22,-127,0,-38,-29,-5,-4,-44,101,38,-54,-22,-84,-521,-43,-28,-54,-45,-70,941101
213,24,-49,-22,15,145,99,-46,-63,-3,-24,54,-190,-73,26,161,-2,-10,-80,175,521,162,-35,-78,278,76,-96,-58,-68,-56,-238,941102
575,56,-93,-22,57,373,282,107,-174,-183,148,28,-71,-126,1,377,-64,-77,-285,406,1079,245,-87,-259,715,1022,-258,-186,-181,-177,-539,941103
629,63,-93,-41,48,410,280,2,-182,-270,198,104,-248,-124,-25,358,-137,-128,-385,367,1125,160,-148,-347,723,1264,-323,-286,-268,-260,-615,941104
554,66,-58,-48,44,364,283,118,-42,-51,188,45,-51,19,-12,284,-139,-133,-359,280,981,72,-165,-318,613,1177,-298,-275,-278,-256,-495,941105
169,44,-2,-54,-8,116,123,-8,8,-119,164,-74,-14,73,-43,109,-44,-26,-155,61,383,-11,-80,-104,168,382,-88,-139,-140,-94,26,941106
-65,39,22,-25,-36,-44,41,-184,5,-85,65,-55,-37,4,-107,9,25,40,23,-40,16,-15,-24,38,-47,-144,51,-13,-13,23,186,941107
-105,22,11,-21,-38,-62,5,-212,-35,-173,-4,-4,40,18,-114,5,23,42,71,-42,-37,-24,-15,64,-49,-232,55,24,28,47,124,941108
-67,20,17,-29,-18,-26,-64,-225,-7,-165,-155,-12,181,-147,-97,15,11,32,80,-18,-18,-21,-4,52,-13,-218,53,10,37,48,109,941109
31,29,49,-5,33,44,-24,127,23,12,-89,-69,141,-120,-32,26,-18,-26,-9,-7,39,-24,-33,-25,43,-121,-29,-47,-27,-22,-50,941110
55,27,50,-3,19,58,25,9,49,-38,-57,-42,-5,-122,37,8,-37,-33,-69,-14,36,-30,-62,-62,30,-100,-59,-84,-67,-49,-77,941111
281,44,-4,3,29,197,191,70,-6,140,202,20,95,-28,1,145,-53,-50,-156,152,394,47,-65,-152,323,432,-154,-116,-102,-108,-318,941112
775,81,-70,-24,82,505,436,184,-56,62,414,117,70,185,84,436,-139,-140,-400,468,1205,144,-140,-377,920,1664,-379,-238,-240,-279,-774,941113
854,79,-89,-83,63,556,355,62,-132,-48,200,195,-35,-77,26,479,-162,-164,-479,482,1394,130,-178,-432,999,2019,-436,-297,-312,-344,-795,941114
829,98,-61,-81,68,545,279,304,-3,20,145,171,-135,-140,45,481,-131,-122,-433,440,1380,131,-143,-370,928,2045,-384,-264,-304,-324,-643,941115
201,58,2,-72,-24,111,-95,156,29,140,-198,47,-86,-49,12,146,-7,38,-115,40,451,-2,-51,-42,172,696,-61,-74,-117,-82,108,941116
-149,38,22,-54,-73,-121,-260,9,-2,12,-84,-98,154,14,-84,5,96,141,150,-99,-53,5,35,204,-162,-144,178,104,83,143,392,941117
-55,47,-10,-55,-60,-62,-206,-49,-40,-141,-157,-37,86,-35,29,102,109,147,146,21,111,75,65,180,20,54,167,127,115,168,242,941118
-42,50,17,-49,-30,-25,-206,28,16,-198,-100,-62,-89,26,-13,118,128,160,177,42,117,82,103,192,49,57,192,144,132,184,224,941119
0,31,55,-56,-8,17,-159,68,75,30,-59,-20,24,73,35,104,106,125,168,34,102,37,78,169,51,69,166,132,121,167,201,941120
51,36,53,-26,13,35,-57,-18,103,179,38,-78,107,-185,-44,24,-34,-9,9,-37,71,-62,-56,11,16,89,1,-11,-33,30,-23,941121
311,38,-17,-34,26,212,128,-55,55,175,136,27,-76,-59,-81,119,-151,-141,-241,87,453,-54,-172,-217,314,709,-219,-197,-197,-148,-453,941122
1173,105,-127,-75,106,781,615,194,-101,-2,273,219,-139,30,49,622,-277,-297,-691,652,1830,161,-288,-649,1361,2835,-623,-456,-464,-466,-1283,941123
1382,138,-141,-103,117,897,677,295,-199,-74,294,202,-184,2,124,750,-299,-304,-820,759,2219,222,-320,-740,1569,3554,-727,-531,-562,-569,-1264,941124
1056,135,-86,-90,79,665,494,231,-42,-23,148,88,29,17,97,562,-230,-200,-645,525,1773,173,-261,-560,1138,2959,-553,-431,-475,-470,-813,941125
276,79,40,-54,-13,152,50,-26,51,134,-104,-98,223,-38,-51,127,-74,-15,-218,20,587,24,-144,-156,172,1168,-157,-184,-225,-181,22,941126
-108,45,84,-21,-34,-88,-140,-70,17,-6,-163,-259,-7,-211,-73,-86,-14,56,42,-194,-15,-19,-86,54,-251,140,47,-35,-58,3,364,941127
-107,56,72,4,-17,-78,-155,-29,-1,-137,75,-150,60,-240,-76,-73,22,70,92,-168,-25,45,-38,91,-211,16,78,1,1,38,338,941128
-94,38,49,-21,-32,-72,-177,-32,32,-27,-254,-19,63,-139,-28,-16,61,96,132,-98,61,119,7,116,-158,11,107,48,55,71,225,941129
-98,46,43,2,-29,-75,-114,-206,31,74,-165,-113,-61,-31,37,11,70,99,130,-64,95,152,26,130,-132,-14,125,64,77,74,205,941130
-86,72,60,49,0,-59,-44,-69,114,-6,-86,-18,94,-116,-10,-5,40,61,96,-77,106,132,9,91,-120,-52,95,32,55,37,113,941131
80,71,32,31,22,55,29,94,111,-21,31,-12,250,-78,-67,53,-12,-2,-17,6,347,145,-38,-28,61,288,-27,-52,-28,-46,-75,941132
531,94,-29,-12,75,352,236,371,-18,-38,100,50,324,-56,66,284,-90,-105,-307,272,1043,223,-116,-285,592,1338,-275,-215,-189,-226,-554,941133
821,111,-58,-57,99,535,293,316,-137,21,-35,99,102,-40,111,453,-127,-143,-409,447,1488,278,-131,-383,926,2116,-383,-258,-260,-302,-703,941134
767,96,-61,-86,65,498,283,204,-106,-20,-109,71,-66,31,24,432,-109,-118,-352,410,1416,229,-128,-338,852,2162,-345,-222,-250,-276,-561,941135
227,68,27,-40,-2,139,53,76,38,-38,-20,-127,164,-63,-35,98,-62,-31,-159,9,514,-19,-117,-133,162,1013,-121,-136,-150,-122,-61,941136
-95,55,77,-4,-12,-84,-94,-170,143,29,-128,-140,213,-93,-48,-77,2,48,35,-197,-155,-175,-54,55,-234,161,81,-10,-18,52,242,941137
-28,54,71,10,10,-18,-59,-104,98,-14,63,-72,228,89,-6,-38,-15,11,17,-146,-198,-240,-57,15,-132,274,62,-29,-25,64,127,941138
-8,40,45,0,0,-16,-79,-213,-8,-52,-77,9,81,-48,-74,-47,-47,-33,-42,-143,-266,-329,-92,-38,-107,320,23,-67,-70,43,41,941139
-37,54,31,9,-7,-38,-92,-249,-112,-21,-89,-37,-12,-25,-39,-25,-12,5,-1,-133,-355,-330,-58,0,-119,295,57,-37,-33,82,76,941140
24,62,15,-1,-13,3,-56,-42,-61,9,21,-14,-152,174,7,87,68,73,54,-16,-241,-235,23,61,25,472,109,34,54,147,91,941141
205,65,0,-16,5,116,55,-51,-34,133,92,49,14,129,20,220,74,88,38,160,68,-101,55,42,290,879,74,60,78,130,-91,941142
922,111,-97,-46,83,584,470,107,-179,54,293,164,-76,242,72,592,-83,-108,-359,579,1236,111,-100,-351,1124,2554,-326,-182,-187,-180,-873,941143
1061,126,-97,-50,93,662,530,419,-108,-60,365,75,-4,46,19,594,-203,-203,-555,567,1544,118,-253,-517,1197,3013,-484,-341,-359,-372,-914,941144
801,119,-28,-59,67,507,381,270,6,-106,350,178,-39,-88,50,424,-174,-138,-453,375,1264,132,-221,-403,850,2525,-374,-292,-328,-319,-543,941145
146,73,50,-36,-11,83,-13,-100,84,-41,-109,-121,67,-90,-41,60,-37,13,-121,-46,361,62,-98,-82,41,1007,-56,-108,-141,-99,145,941146
-133,44,76,7,-34,-110,-122,-50,221,124,-308,-256,160,-120,-71,-60,61,101,108,-178,-34,114,-4,120,-268,201,130,41,37,71,376,941147
-119,46,64,2,-29,-97,-125,-145,11,137,-219,-185,-27,0,-56,-26,75,114,144,-122,59,201,31,139,-220,130,150,71,78,92,349,941148
-82,18,67,-29,-15,-53,-208,-219,-35,2,-304,-52,-75,8,-74,-37,31,57,85,-120,178,204,-10,58,-184,149,74,17,24,21,237,941149
5,19,71,-36,7,14,-179,-206,-60,9,-152,-29,43,83,-34,45,64,102,108,-23,372,293,35,86,-41,306,82,67,72,48,182,941150
8,37,62,4,12,5,-63,-128,-29,-21,10,-60,-9,-33,-71,25,50,79,92,-28,396,286,41,68,-42,267,45,56,61,26,126,941151
198,53,12,29,22,113,153,34,-17,29,215,10,23,-75,-49,80,-34,-36,-51,40,643,266,-42,-80,154,660,-111,-57,-49,-98,-168,941152
653,76,-48,-3,61,407,394,192,-150,-124,353,129,-58,55,89,376,-70,-99,-262,353,1359,368,-63,-284,734,1808,-306,-159,-169,-238,-538,941153
812,99,-73,-37,48,505,382,79,-188,-63,131,90,-318,-33,102,490,-83,-101,-382,466,1619,373,-77,-354,927,2359,-368,-224,-236,-293,-596,941154
704,86,-55,-60,18,419,237,-135,-78,-140,-365,10,-173,155,95,403,-118,-98,-399,339,1387,221,-135,-351,753,2248,-337,-265,-267,-289,-458,941155
158,61,57,-24,-11,83,-75,-226,4,-169,-31,-82,116,-13,-14,79,-33,16,-116,-44,395,-45,-68,-73,62,1026,-38,-111,-109,-73,53,941156
-98,46,105,12,-14,-64,-157,39,42,47,-63,-85,330,-138,-74,-70,16,52,81,-198,-193,-220,-5,79,-235,364,115,12,7,80,269,941157
-28,17,65,-4,-21,-31,-85,154,2,77,6,-82,229,-63,-59,-70,-38,-21,13,-164,-258,-334,-59,-15,-151,491,30,-39,-46,44,71,941158
3,19,51,10,-10,-19,-41,-66,47,215,-46,-115,108,-167,-141,-74,-80,-53,-51,-172,-369,-415,-98,-54,-128,542,-1,-79,-77,20,-17,941159
-31,37,56,25,-9,-45,-28,-128,60,-20,22,-172,39,-93,-105,-77,-59,-35,-19,-168,-498,-442,-77,-27,-144,471,36,-61,-41,61,35,941160
-74,28,54,9,-25,-66,-66,-165,61,-85,85,-43,67,120,-73,-34,31,49,97,-121,-567,-378,21,82,-142,394,148,38,60,157,204,941161
136,39,12,-7,0,76,32,106,66,-197,118,83,129,61,-9,134,49,42,67,67,-180,-205,63,26,166,873,69,43,54,114,-46,941162
586,73,-35,-34,50,389,265,327,-43,-104,311,228,8,131,57,380,-51,-68,-214,336,620,-23,-29,-229,697,1951,-191,-122,-127,-100,-513,941163
738,71,-64,-80,45,477,286,309,-113,-6,293,214,48,245,5,428,-132,-122,-383,393,987,73,-141,-349,827,2406,-314,-234,-250,-234,-622,941164
639,74,-42,-66,26,389,155,142,-124,-157,37,41,83,69,-18,346,-133,-102,-343,283,928,125,-161,-303,624,2165,-265,-227,-246,-236,-434,941165
162,35,38,-51,-31,65,-166,-74,20,-160,-71,-135,109,-102,10,35,-76,-28,-121,-71,305,34,-116,-104,10,1034,-75,-125,-149,-115,24,941166
-86,9,65,-48,-37,-80,-343,-129,23,102,-72,-189,120,-173,-6,-84,5,32,49,-196,41,71,-31,44,-236,407,49,-17,-31,-2,203,941167
-61,18,65,-29,-24,-61,-354,-43,95,58,75,-142,101,-18,33,-52,44,60,65,-139,145,178,23,57,-193,371,52,14,12,19,187,941168
-44,23,51,4,-18,-62,-284,81,183,-12,25,-110,100,-58,17,-39,57,65,87,-117,222,230,53,76,-159,332,71,56,40,39,138,941169
-42,13,33,4,-32,-68,-221,38,43,-211,-96,-59,102,-196,-82,-15,76,98,134,-93,277,263,62,105,-135,309,103,95,75,65,229,941170
-70,-3,41,-9,-26,-72,-118,-14,-53,37,10,-66,58,59,-92,-15,89,112,162,-94,259,272,55,137,-167,209,126,115,118,98,248,941171
129,7,5,-8,7,66,160,93,-109,-50,-112,-16,-215,132,-49,69,2,14,7,13,538,259,-9,-12,66,638,-30,-2,14,-15,-109,941172
781,84,-91,0,68,486,559,139,-92,-60,148,180,-251,254,17,456,-105,-127,-331,441,1550,393,-91,-332,878,2265,-340,-208,-200,-247,-781,941173
1041,119,-115,-20,81,664,602,279,-92,-108,314,191,-199,197,117,618,-136,-166,-509,600,1976,404,-143,-461,1196,3097,-455,-313,-313,-353,-867,941174
927,95,-68,-56,63,588,400,18,-18,15,141,141,-42,82,17,516,-153,-151,-510,471,1722,235,-177,-449,993,2976,-418,-337,-354,-349,-664,941175
238,27,57,-56,-2,141,-36,-131,88,111,13,-22,6,10,-80,99,-42,2,-163,1,505,-55,-100,-109,101,1418,-61,-127,-158,-96,107,941176
-70,24,105,-17,-10,-43,-141,-85,128,43,-139,-104,-160,102,-47,-42,26,72,53,-156,-145,-178,-35,79,-226,626,131,10,-3,87,266,941177
-107,4,81,-16,-20,-87,-117,63,127,48,-147,-123,-35,-119,-86,-87,-17,30,56,-186,-388,-303,-42,49,-264,480,100,-13,-1,73,249,941178
-117,17,87,21,-13,-93,-82,-69,-53,163,-123,-95,148,-79,7,-97,-22,21,46,-188,-543,-370,-48,55,-283,410,112,-9,21,88,223,941179
-124,6,63,15,-19,-104,-70,26,48,48,-28,-107,183,-48,-16,-83,-4,13,21,-167,-608,-394,-36,52,-262,375,106,-12,18,90,223,941180
-118,5,48,12,-30,-94,-55,-152,38,54,-10,37,144,219,-22,-62,30,39,73,-139,-631,-381,7,79,-232,373,118,23,60,107,244,941181
249,33,0,-2,14,148,137,-99,-40,-23,117,8,94,246,11,141,-25,-41,-51,100,-43,-230,-29,-76,222,1173,-37,-40,-13,-10,-243,941182
987,62,-95,-57,81,626,469,271,-122,-94,122,170,33,98,111,528,-174,-220,-465,538,1225,37,-160,-463,1098,2952,-449,-283,-282,-315,-991,941183
1221,84,-105,-94,91,783,520,258,-193,20,144,208,119,89,99,684,-187,-226,-620,682,1779,189,-194,-554,1366,3716,-560,-353,-386,-420,-1045,941184
938,76,-62,-99,48,595,301,164,-241,-88,148,161,23,6,38,534,-155,-152,-500,461,1478,177,-185,-417,984,3220,-430,-291,-329,-345,-654,941185
126,23,77,-56,-25,60,-188,-101,-13,129,-139,-73,73,-178,-50,28,-63,5,-97,-124,269,-1,-114,-41,-64,1315,-36,-78,-119,-75,209,941186
-192,-3,114,-13,-45,-150,-310,-185,76,-31,-67,-186,226,-135,-127,-173,-11,51,106,-318,-221,-45,-59,113,-448,415,125,29,-4,65,367,941187
-117,6,101,15,-31,-108,-141,-195,64,80,-109,-92,176,-229,-122,-146,-25,12,64,-262,-97,17,-55,48,-363,439,67,5,-11,36,222,941188
-107,12,82,40,-19,-102,-5,-266,116,25,-4,-29,-139,-105,-22,-123,-1,16,62,-234,-46,78,-17,53,-327,407,71,21,11,45,217,941189
-102,-3,47,8,-40,-102,-11,-206,131,-88,-127,37,-54,25,-46,-114,-13,15,80,-207,16,78,-21,55,-271,422,69,33,26,56,155,941190
-90,-12,46,-16,-26,-88,-131,-43,43,164,-116,-62,24,8,-26,-80,-1,19,119,-173,58,93,0,83,-221,446,78,69,49,78,139,941191
84,-7,34,-44,-2,53,-111,-10,34,-13,-120,73,107,-46,70,58,15,11,96,-20,343,145,20,41,34,867,31,67,47,63,-40,941192
474,8,-31,-55,20,315,124,192,-27,-7,-14,158,-13,-20,86,282,-56,-70,-134,231,928,214,-42,-169,506,1836,-167,-81,-106,-96,-408,941193
637,44,-35,-40,46,414,260,398,31,62,321,134,-102,23,79,350,-93,-98,-291,307,1148,199,-94,-281,648,2289,-257,-176,-196,-195,-498,941194
536,42,-20,-32,27,333,189,231,6,-93,378,123,64,80,28,284,-88,-74,-301,227,948,107,-115,-256,487,2139,-220,-196,-208,-182,-305,941195
94,17,51,-15,-14,35,-90,-32,105,-277,5,-45,94,-94,-7,31,-26,21,-68,-63,188,-70,-43,-32,-78,1109,3,-59,-70,-39,230,941196
-108,-8,75,-4,-35,-80,-176,-105,82,68,39,-85,-7,-83,3,-74,4,48,52,-176,-188,-143,-1,60,-281,600,82,10,15,40,285,941197
-154,-16,76,-11,-27,-104,-191,-182,92,33,-128,-42,20,-66,-47,-69,36,79,128,-157,-323,-128,31,127,-292,438,136,64,81,90,280,941198
-70,-1,52,-15,-21,-52,-167,-73,63,48,-62,-21,-103,5,-44,-7,40,62,151,-64,-235,-81,42,130,-168,580,118,89,107,95,214,941199
-25,-6,22,-26,-31,-30,-201,9,20,31,-168,-103,62,98,-71,-5,14,12,100,-35,-179,-92,17,74,-98,685,64,62,67,44,153,941200
-17,-35,20,-69,-43,-16,-261,110,45,-13,-235,-135,92,-63,19,57,72,80,139,18,-134,-9,69,131,-41,735,114,120,122,93,210,941201
141,-17,15,-46,-9,82,-49,156,3,-28,42,131,65,-4,79,186,105,102,129,143,116,98,91,127,153,1024,109,138,144,100,28,941202
1084,68,-134,-33,85,685,643,391,-205,-152,325,315,111,177,184,658,-98,-156,-406,692,1595,303,-54,-411,1264,3232,-428,-201,-210,-302,-1028,941203
1386,102,-156,-61,97,876,750,366,-169,-141,229,228,93,139,134,769,-234,-268,-715,773,2155,289,-203,-659,1544,4199,-666,-424,-456,-546,-1236,941204
1155,96,-85,-78,59,719,474,218,-221,-44,168,164,41,142,54,626,-203,-202,-646,567,1864,201,-211,-550,1216,3864,-537,-395,-442,-467,-844,941205
258,35,67,-49,-15,135,-112,93,-14,-46,-161,-31,75,-31,-95,104,-55,9,-187,-37,481,-11,-93,-92,86,1840,-68,-133,-177,-115,196,941206
-202,5,116,-2,-38,-144,-290,-200,93,-60,-114,-87,167,-46,-89,-169,2,71,78,-310,-275,-122,-47,135,-448,647,160,10,-6,96,451,941207
-150,-19,67,-14,-44,-110,-135,-76,170,38,-184,-136,169,-69,-96,-161,-59,-12,47,-285,-230,-178,-87,42,-373,687,66,-36,-50,45,223,941208
-107,4,75,17,-26,-85,-28,98,83,141,159,-274,298,-171,-39,-109,-19,21,74,-231,-199,-133,-30,72,-300,712,83,20,1,82,259,941209
-134,0,81,26,-23,-100,-46,147,57,158,263,-246,296,-142,-55,-96,31,58,129,-227,-239,-99,17,109,-321,606,133,80,64,129,242,941210
-127,-19,45,-5,-37,-104,-127,-47,-34,62,16,-205,68,-162,13,-85,29,57,142,-211,-240,-109,23,110,-303,595,127,101,71,135,256,941211
49,-9,8,-12,-19,14,-84,-252,-77,-57,64,-32,117,-64,19,35,22,43,100,-60,35,-35,37,62,-50,984,73,91,61,93,48,941212
238,-9,-10,-31,-1,144,23,-1,34,-34,-19,113,2,-164,44,114,-41,-24,-10,33,294,-19,-16,-43,158,1422,-36,13,-25,-5,-129,941213
380,-3,-10,-40,19,247,131,43,12,-117,189,34,38,-142,-10,165,-96,-93,-147,102,509,-21,-96,-151,312,1767,-128,-87,-122,-93,-377,941214
617,32,-22,-29,45,394,239,98,-35,-15,525,101,111,-187,27,333,-94,-95,-266,283,922,92,-100,-232,611,2401,-212,-140,-167,-150,-487,941215
58,0,40,-22,-26,18,-117,83,-9,41,18,-48,64,-182,-71,4,-35,7,-34,-95,99,-39,-42,-7,-82,1196,-14,-33,-55,-23,193,941216
-158,-16,60,-2,-37,-117,-224,-28,-55,-1,8,-158,53,-68,-87,-129,19,45,120,-199,-256,-46,4,111,-324,592,99,47,50,66,325,941217
-179,-7,78,27,-24,-132,-208,-76,84,19,-200,-103,-26,-114,-88,-116,58,74,186,-176,-297,20,59,169,-348,423,147,92,104,92,349,941218
-203,-13,75,15,-36,-132,-193,30,121,-146,-109,-111,157,-51,-23,-106,71,87,222,-171,-323,57,96,185,-351,315,144,120,131,85,349,941219
-191,-22,68,1,-31,-126,-156,0,90,112,-155,-94,94,11,8,-108,65,75,196,-169,-309,70,86,163,-338,267,117,127,127,63,310,941220
-188,-38,62,-3,-32,-126,-141,-125,215,51,-236,-235,-36,-197,-124,-150,13,21,151,-206,-346,41,31,107,-370,197,73,76,67,8,210,941221
215,-14,-21,-19,10,141,88,-133,-27,47,-4,-32,-126,-251,-82,66,-81,-93,-111,52,301,109,-47,-135,141,1156,-169,-104,-98,-152,-331,941222
562,21,-66,-40,35,358,163,-253,-135,23,-49,156,-212,83,-1,283,-97,-111,-274,283,869,175,-58,-258,554,2079,-280,-178,-180,-236,-481,941223
533,25,-45,-31,35,340,135,-110,-87,-86,-243,145,-220,65,75,300,-31,-45,-205,271,848,157,0,-184,530,2114,-204,-115,-133,-162,-363,941224
446,21,-33,-27,15,280,170,71,-5,80,-242,-16,-152,141,-5,304,23,13,-121,236,753,114,34,-104,458,2041,-110,-34,-64,-79,-187,941225
9,-2,35,1,-36,-14,-30,45,30,113,-244,-64,10,-47,-85,19,37,60,49,-76,40,-65,22,70,-90,1066,65,56,22,40,264,941226
-129,-4,62,25,-28,-97,-132,-125,-51,-166,0,11,-96,-12,-16,-113,-6,31,54,-205,-264,-159,-27,76,-289,655,72,41,23,60,293,941227
-86,-17,48,12,-15,-58,-142,86,36,-203,18,-29,-90,-137,-46,-107,-30,-14,38,-210,-257,-176,-39,45,-243,703,40,27,5,49,112,941228
-90,-18,28,-4,-25,-66,-128,50,-53,-9,23,-106,115,-51,-47,-85,-1,13,71,-180,-276,-167,-8,70,-229,680,74,54,32,84,156,941229
-91,-2,35,5,-17,-62,-98,13,-32,-5,8,-91,-11,61,-6,-80,4,16,83,-173,-286,-175,1,75,-220,672,97,44,39,95,150,941230
-72,-12,28,-18,-25,-48,-110,18,28,-122,-134,-44,110,85,-7,-53,24,26,92,-134,-254,-153,17,99,-181,709,112,65,61,119,138,941231
-111,-26,34,-15,-21,-70,-156,57,60,-23,-143,-47,-34,-20,-53,-92,18,25,58,-164,-328,-168,-9,83,-245,585,98,44,41,108,160,941232
-55,-19,47,10,11,-22,-123,-74,-7,-159,-229,-53,69,-118,-91,-92,-8,-4,24,-134,-272,-150,-30,39,-197,633,43,12,20,69,15,941233
455,3,-34,-18,48,304,183,153,-46,-102,77,76,168,73,-30,180,-102,-132,-237,180,535,-34,-96,-234,422,1838,-223,-152,-144,-143,-570,941234
394,7,-40,-41,7,249,129,286,-147,-114,418,120,176,115,-1,165,-87,-107,-239,128,505,-29,-77,-196,337,1824,-213,-139,-164,-151,-343,941235
-129,-15,35,-25,-51,-103,-191,-75,22,44,81,-85,134,147,-65,-76,35,59,83,-170,-243,-51,27,111,-257,641,95,64,41,65,313,941236
-185,-19,43,-6,-50,-136,-216,-104,72,-123,38,-102,75,19,-109,-103,53,80,154,-183,-330,7,32,159,-307,401,143,96,104,111,281,941237
-99,-16,60,16,-19,-80,-119,-3,40,104,41,12,124,-42,-19,-72,34,42,111,-141,-211,62,21,112,-231,489,88,69,86,61,177,941238
-96,-32,37,9,-24,-73,-54,46,42,191,-40,56,-63,-85,6,-94,18,7,94,-146,-167,89,19,60,-217,463,31,42,55,20,98,941239
-86,-29,22,13,-12,-46,-2,51,-54,153,-143,7,-73,46,-41,-89,16,18,88,-132,-114,119,23,61,-201,466,17,34,52,1,81,941240
-70,-8,31,60,5,-41,48,-35,-40,-31,-172,-27,40,-193,-23,-101,-7,-11,53,-143,-115,106,11,36,-216,436,8,15,19,-24,62,941241
-148,-12,43,58,1,-121,-53,61,0,27,-143,-113,107,-261,-73,-183,-33,-23,40,-233,-282,7,-19,36,-348,213,16,-3,-4,-29,174,941242
-472,-39,81,35,-41,-334,-304,1,74,40,-188,-158,24,22,-77,-311,84,113,276,-401,-812,-78,74,263,-714,-572,252,172,175,162,594,941243
-909,-84,123,56,-100,-606,-532,-312,182,12,-226,-227,126,-116,-62,-529,187,220,558,-637,-1524,-200,198,501,-1200,-1659,495,350,353,360,997,941244
-1045,-112,125,68,-103,-677,-542,-324,197,68,-156,-198,110,-87,-109,-618,179,196,596,-689,-1780,-288,208,518,-1311,-2078,505,358,381,405,923,941245
-303,-50,4,52,-10,-184,-37,-40,67,-83,86,15,-10,6,31,-149,108,72,275,-146,-648,-78,143,217,-341,-431,191,204,241,201,95,941246
117,-15,-40,23,16,75,220,186,-5,81,60,64,-40,52,36,84,31,-4,7,102,6,-14,57,-5,128,604,-9,54,73,25,-216,941247
40,-18,-12,27,14,21,185,-1,-2,104,-166,70,25,73,-8,44,32,25,48,51,-120,-44,46,64,30,501,63,73,101,71,-25,941248
-50,-35,2,19,0,-28,94,5,-93,26,-79,-4,-9,-80,-31,-48,-27,-22,44,-50,-288,-130,-22,41,-110,345,43,41,51,47,31,941249
-64,-24,-2,23,13,-25,54,-118,-8,126,91,13,-49,-40,-68,-103,-61,-58,-22,-93,-355,-184,-51,-14,-175,309,-6,-14,-1,-7,16,941250
-80,-19,5,36,9,-40,-16,-11,156,-84,121,15,70,-40,-55,-85,10,-1,29,-83,-377,-140,38,34,-182,255,32,30,38,27,83,941251
-325,-37,39,30,-32,-202,-225,112,164,-122,-175,-133,74,-89,-63,-193,90,78,197,-211,-715,-159,106,190,-445,-290,189,145,137,140,381,941252
-960,-86,121,43,-93,-622,-565,-40,94,92,-256,-281,77,-50,-126,-531,222,240,567,-586,-1687,-281,225,534,-1192,-1851,524,375,381,404,1069,941253
-1555,-136,196,84,-136,-1003,-848,-315,111,198,-455,-373,194,-49,-187,-862,312,356,925,-939,-2653,-379,336,843,-1879,-3466,819,596,595,641,1591,941254
-1642,-146,175,108,-122,-1047,-791,-210,253,81,-498,-283,32,-62,-118,-914,325,340,998,-945,-2814,-331,373,868,-1913,-3942,841,640,681,691,1454,941255
-380,-63,-29,93,14,-216,19,220,57,143,-59,1,-108,-70,-15,-203,86,15,319,-110,-854,22,170,207,-341,-1175,183,233,300,227,-87,941256
137,-30,-82,54,59,99,247,128,-89,128,-16,71,47,-134,24,11,-63,-134,-68,121,-27,76,11,-109,185,118,-142,-15,16,-82,-434,941257
106,-22,-59,45,54,86,166,-19,-62,72,197,37,31,99,43,-27,-61,-123,-81,51,-40,52,-12,-87,106,130,-121,-24,-7,-87,-306,941258
96,-28,-56,26,45,79,159,-4,94,-47,269,67,53,90,20,-18,-27,-64,-45,54,-16,80,18,-53,90,165,-86,9,12,-62,-170,941259
94,-13,-38,40,38,61,167,7,31,-157,21,125,-43,-93,43,-2,-11,-24,-12,56,-11,106,34,-18,73,175,-49,26,41,-35,-158,941260
92,-7,-28,64,43,52,175,95,-20,-85,52,145,-92,-59,-5,-30,-54,-68,-63,13,-22,66,-25,-67,47,184,-79,-29,-8,-71,-153,941261
-782,-68,93,85,-47,-514,-380,-54,196,-17,-362,-198,69,-164,-111,-563,42,68,268,-583,-1371,-222,52,272,-1050,-1772,264,136,153,156,861,941262
-2408,-185,306,146,-207,-1554,-1271,-683,513,155,-817,-565,89,-335,-272,-1421,362,448,1184,-1536,-3933,-576,351,1129,-2940,-5750,1122,700,740,818,2402,941263
-2591,-208,296,197,-191,-1659,-1236,-603,444,158,-428,-366,147,-65,-284,-1476,463,501,1463,-1515,-4324,-522,487,1300,-3050,-6659,1283,886,969,1031,2322,941264
-2057,-201,168,188,-121,-1301,-854,-541,336,-8,-448,-229,-58,-23,-172,-1188,356,335,1204,-1119,-3572,-388,424,1017,-2342,-5762,992,757,842,836,1523,941265
-508,-100,-68,129,35,-295,54,-274,-30,-112,226,203,-340,293,57,-265,132,23,422,-63,-1138,23,255,262,-399,-2254,240,322,412,294,-151,941266
170,-40,-136,58,82,141,345,133,-41,-27,232,313,-251,279,108,151,61,-48,29,340,14,182,187,-51,374,-458,-69,103,155,-2,-526,941267
86,-41,-107,33,51,75,217,206,-103,-21,286,289,-347,178,48,109,91,11,30,284,-24,162,202,14,257,-452,-13,114,141,10,-257,941268
93,-40,-103,12,38,73,199,199,-151,-15,213,335,-149,282,-7,98,66,-16,-27,260,42,136,141,-23,252,-310,-51,66,87,-34,-273,941269
114,-20,-79,25,48,92,195,230,-89,-18,130,265,-152,167,86,93,29,-30,-61,244,84,137,97,-40,256,-212,-77,28,56,-63,-303,941270
93,1,-59,36,49,85,154,180,-56,-28,75,214,-132,86,115,55,7,-33,-81,209,60,116,51,-59,206,-203,-67,-14,20,-75,-280,941271
-141,-17,-41,21,14,-80,-71,-19,46,-46,70,6,-271,94,58,-66,43,29,2,58,-271,42,56,44,-96,-674,60,25,62,13,69,941272
-654,-49,14,30,-41,-418,-420,-310,69,-42,-147,-97,-39,70,-17,-331,135,139,290,-254,-1048,-62,137,314,-688,-1862,324,200,241,219,593,941273
-1048,-81,62,56,-84,-683,-621,-471,15,-59,-300,-66,63,222,-69,-542,206,217,555,-490,-1683,-142,221,519,-1140,-2891,511,347,393,378,958,941274
-1019,-92,46,71,-66,-638,-417,-340,81,151,-518,-99,-87,272,-48,-554,192,170,556,-467,-1683,-166,229,483,-1083,-3003,459,353,399,355,713,941275
-165,-46,-85,57,39,-72,215,-60,-64,170,90,141,-196,238,92,-88,54,-30,120,66,-393,27,135,52,-51,-1112,33,94,144,65,-253,941276
195,-13,-122,46,79,149,396,27,-32,-111,-43,141,-218,91,83,86,-30,-109,-118,226,148,66,45,-143,307,-217,-150,-35,-9,-101,-465,941277
181,-24,-109,37,63,116,333,191,-88,-4,71,40,-290,-11,-18,36,-70,-130,-140,159,121,4,-13,-159,252,-156,-170,-58,-71,-126,-382,941278
177,-19,-77,24,70,119,272,247,-52,-30,3,-4,-297,117,-13,41,-59,-105,-149,146,132,7,-27,-146,251,-75,-142,-59,-73,-101,-339,941279
119,-19,-63,16,56,85,228,68,-70,-90,262,68,-330,-41,-66,24,-51,-74,-142,109,76,3,-34,-118,180,-136,-105,-67,-67,-67,-266,941280
53,-10,-60,38,41,44,199,79,-107,28,233,137,-174,-5,10,-33,-80,-90,-151,47,-21,-69,-73,-120,85,-225,-89,-88,-75,-65,-248,941281
-177,-11,-18,50,18,-101,39,-9,19,-49,138,-105,-162,78,64,-183,-60,-56,-31,-125,-384,-160,-52,-24,-196,-742,6,-20,-13,-1,10,941282
-465,-35,29,48,-7,-287,-147,-128,122,44,150,-168,103,-116,-29,-325,9,19,167,-270,-812,-189,12,154,-519,-1450,159,98,111,118,298,941283
-548,-41,29,46,-12,-345,-177,-12,74,-2,140,-44,92,-85,-49,-346,60,63,242,-288,-952,-152,61,223,-596,-1739,233,157,178,186,373,941284
-567,-44,5,43,-13,-354,-138,-120,143,46,143,-11,-63,-43,29,-344,64,56,226,-268,-968,-121,72,207,-590,-1842,215,137,175,169,302,941285
-182,-9,-43,36,29,-78,103,125,19,167,225,55,-3,30,69,-65,73,24,120,40,-324,46,117,77,-68,-977,78,92,127,81,-45,941286
52,-16,-68,-7,31,67,161,313,-75,115,-119,85,77,-83,48,76,50,-8,34,204,76,135,101,-9,220,-385,-27,47,65,-3,-195,941287
74,-1,-47,6,45,78,113,186,-69,88,-101,185,103,-40,104,89,56,22,31,212,128,153,97,13,232,-316,-7,53,71,-5,-131,941288
88,-1,-47,8,50,78,120,124,13,-63,98,281,-60,68,45,80,49,13,-11,198,168,132,88,-23,226,-269,-55,23,36,-52,-178,941289
44,-16,-63,-7,18,36,83,-168,-16,-101,19,192,-44,-40,-5,16,0,-26,-87,130,96,60,36,-76,140,-354,-101,-50,-34,-103,-132,941290
45,4,-44,23,30,37,108,-170,-60,-74,124,80,43,-54,-36,15,-2,-23,-102,118,86,42,34,-80,120,-347,-92,-62,-35,-110,-121,941291
-107,0,-4,35,3,-68,62,130,17,102,-45,55,30,64,-27,-69,10,-2,-31,-1,-158,-13,32,-12,-85,-686,-29,-19,4,-59,60,941292
-431,-32,32,46,-36,-286,-80,-136,71,64,125,-80,85,54,-23,-263,34,48,123,-226,-664,-104,39,125,-480,-1447,114,61,92,38,371,941293
-870,-52,68,72,-76,-568,-307,-360,92,-24,-314,-103,28,-34,-48,-489,127,148,378,-469,-1341,-180,113,356,-965,-2507,337,227,259,220,823,941294
-991,-77,55,45,-87,-632,-465,-249,73,-19,-544,-138,-107,-145,-50,-527,156,170,510,-481,-1538,-151,163,453,-1037,-2903,420,319,352,320,775,941295
-58,-25,-83,-8,7,-47,-55,38,-29,-13,67,198,-53,83,167,70,119,74,212,207,-107,163,156,159,156,-860,126,211,230,163,-188,941296
210,-5,-114,-55,19,122,41,143,-29,67,-46,318,-42,97,173,257,80,48,9,369,378,182,112,-1,475,-21,6,102,106,49,-270,941297
90,2,-87,-28,16,67,49,-203,-80,-24,-61,148,-79,98,96,107,15,-8,-101,193,134,2,41,-86,245,-208,-56,-16,-16,-27,-182,941298
-47,-5,-45,-10,10,-16,17,-133,-121,-163,68,39,0,156,-57,-62,-58,-68,-130,12,-170,-166,-39,-115,-14,-541,-69,-92,-80,-51,-112,941299
-54,-14,-27,-2,13,-23,30,41,60,-203,193,58,84,77,1,-61,-39,-45,-54,11,-218,-187,-8,-57,-16,-563,-5,-40,-33,22,-81,941300
-45,5,-20,25,26,-22,88,138,-6,-41,286,20,238,327,85,-43,-12,-31,-27,43,-211,-176,9,-14,20,-514,22,-4,6,61,-68,941301
-339,-16,6,35,-14,-215,-62,58,43,-137,-44,-20,36,256,24,-218,25,10,98,-165,-664,-231,23,118,-339,-1181,147,73,76,140,303,941302
-995,-61,109,78,-70,-645,-402,-55,124,-8,-294,-196,12,-216,-104,-582,158,165,493,-562,-1694,-314,146,466,-1128,-2851,490,301,303,397,941,941303
-953,-56,77,92,-50,-616,-336,-133,119,187,20,-213,-7,-155,-68,-529,157,153,504,-481,-1610,-207,154,456,-1009,-2928,475,309,339,400,767,941304
-583,-39,10,84,-4,-382,-151,101,78,201,-1,-18,50,-16,71,-331,82,73,302,-242,-1028,-55,91,258,-557,-2180,267,183,234,252,291,941305
-184,-10,-45,35,33,-118,33,7,11,37,57,64,107,143,45,-123,1,-20,49,2,-354,68,24,20,-88,-1266,36,27,76,51,-174,941306
-31,11,-63,19,33,-6,121,-112,-38,150,50,74,155,155,57,-11,16,-29,-1,110,-47,144,49,-21,98,-862,-27,17,40,-21,-204,941307
-44,-2,-64,3,16,-16,129,-173,-50,-30,67,86,146,167,64,11,41,9,30,117,13,190,70,4,88,-821,-21,49,49,-37,-90,941308
-66,-9,-49,-19,5,-41,109,-44,-31,-108,17,32,-84,204,80,-18,25,5,2,75,0,187,56,-7,31,-858,-26,11,28,-64,-68,941309
-73,-22,-35,9,19,-43,42,-87,-36,140,-262,8,22,-63,33,-66,-14,-40,-60,19,-34,154,-4,-54,-42,-938,-78,-40,-31,-122,-111,941310
-37,-29,-28,25,45,-18,34,-66,-30,60,-216,-54,-86,-205,-57,-127,-100,-128,-149,-56,-47,70,-85,-150,-85,-934,-178,-121,-118,-224,-176,941311
-122,-30,-3,16,34,-71,25,13,-18,47,-190,-110,-27,-10,-37,-182,-82,-109,-78,-123,-222,29,-54,-86,-208,-1157,-110,-63,-70,-187,-18,941312
-336,-28,30,36,2,-206,-27,54,25,139,70,-69,-84,-79,-55,-282,-13,-34,42,-255,-586,-25,2,34,-473,-1681,20,16,16,-95,212,941313
-663,-38,73,65,-20,-418,-161,-214,140,250,-48,-93,-108,-255,0,-436,75,63,212,-448,-1149,-111,80,207,-872,-2516,181,140,158,40,552,941314
-659,-36,53,89,-13,-417,-147,-356,-7,133,-74,-113,-83,-315,-11,-416,83,61,230,-425,-1215,-138,92,201,-872,-2628,181,160,187,45,481,941315
-523,-36,25,75,0,-312,-101,-337,-118,-28,-174,-8,-59,-214,-17,-344,38,22,157,-329,-1062,-181,59,122,-710,-2355,107,120,141,-2,251,941316
-456,-56,8,24,-15,-266,-100,-64,-19,8,-310,34,-77,51,50,-281,40,25,121,-253,-1002,-220,77,106,-608,-2179,94,124,135,2,205,941317
-491,-46,5,20,-22,-301,-167,-97,123,-32,-165,27,206,131,64,-248,118,101,204,-226,-1073,-227,138,204,-622,-2268,198,196,199,110,334,941318
-510,-30,8,49,-17,-330,-214,-196,12,40,-36,36,180,-86,77,-260,127,106,218,-237,-1132,-284,146,232,-639,-2343,243,204,208,145,368,941319
-487,-37,-2,47,-11,-314,-226,-135,10,146,72,32,144,-51,80,-293,49,26,148,-261,-1124,-364,95,142,-625,-2309,150,142,126,74,273,941320
-436,-42,-10,11,-11,-278,-231,-266,-15,100,-69,31,8,-27,48,-248,68,42,163,-199,-1005,-316,125,140,-530,-2191,132,158,141,80,230,941321
-344,-32,-6,12,0,-201,-131,-212,-37,86,-20,142,-46,77,105,-140,117,79,204,-84,-792,-174,162,178,-358,-1976,149,204,186,111,153,941322
234,-4,-98,-7,58,181,235,253,-124,-11,343,240,25,231,116,171,-19,-80,-135,272,167,10,28,-156,348,-580,-174,-19,-27,-142,-509,941323
457,14,-127,-39,73,316,319,309,-150,-66,242,201,-173,136,129,272,-82,-129,-317,373,586,88,-41,-290,587,69,-311,-132,-148,-271,-644,941324
410,33,-84,-32,65,287,246,155,-130,-66,122,67,10,-46,50,254,-58,-76,-285,322,563,133,-35,-234,507,68,-253,-123,-132,-264,-393,941325
-252,-17,10,-9,-7,-153,-196,-147,-94,42,-125,-142,26,-231,-10,-166,11,26,7,-148,-473,-24,15,53,-330,-1447,41,33,24,-63,294,941326
-506,-47,3,8,-40,-321,-325,-254,60,119,-60,-122,-6,-151,-36,-294,38,49,177,-266,-854,-35,43,180,-574,-2094,146,121,140,48,364,941327
-433,-37,-16,14,-36,-276,-310,-219,43,38,-33,-184,-100,-99,6,-284,12,-5,120,-242,-755,-33,26,98,-493,-2011,63,72,84,-14,212,941328
-313,-3,-1,37,1,-179,-222,-46,57,-32,-230,-138,-73,79,68,-186,58,30,133,-125,-580,42,91,101,-319,-1813,80,105,106,1,157,941329
-288,-8,2,34,-8,-171,-148,14,-43,-9,69,-40,-132,89,76,-129,106,74,190,-75,-529,80,144,146,-255,-1760,137,154,141,48,241,941330
-306,-27,-30,-1,-24,-183,-94,44,-30,136,79,-6,-214,133,40,-127,90,56,152,-68,-520,55,96,127,-238,-1732,122,119,119,34,198,941331
-135,-17,-39,10,8,-65,92,-28,-104,129,256,158,-29,34,27,-37,47,17,36,42,-285,79,76,32,-42,-1354,17,47,61,-31,-16,941332
20,-1,-41,22,30,37,250,29,-22,117,78,157,28,28,-10,-6,-39,-62,-121,91,-78,38,-5,-108,86,-1014,-119,-64,-58,-143,-205,941333
474,38,-95,19,91,325,505,230,9,-49,200,122,-98,-71,29,216,-141,-189,-370,353,603,96,-110,-349,586,54,-349,-237,-219,-313,-740,941334
845,79,-127,2,124,551,636,197,-58,48,384,165,34,-75,111,418,-203,-251,-562,553,1212,154,-182,-511,1000,1067,-507,-358,-365,-446,-972,941335
120,35,12,13,39,80,153,31,-15,-79,80,-53,19,-64,15,6,-72,-68,-192,67,173,-38,-81,-152,109,-458,-154,-130,-178,-199,-59,941336
-210,-2,26,23,-15,-132,-33,-95,-97,-85,183,-48,-49,-88,-42,-150,-11,-12,0,-99,-231,-64,-18,12,-236,-1223,-9,-15,-59,-46,145,941337
-178,5,10,16,-19,-99,-31,-135,-146,-8,55,6,-32,-123,13,-68,36,32,43,-6,-15,61,38,45,-132,-1126,16,37,3,8,88,941338
-155,4,3,0,-17,-92,-30,56,-76,120,-102,16,-59,-14,46,-15,71,60,95,52,162,154,69,86,-64,-1065,50,94,43,48,80,941339
-137,2,-11,-4,-15,-73,-23,83,-93,112,-207,68,61,66,24,-7,60,52,95,66,297,207,62,76,-40,-1015,41,91,29,34,44,941340
-120,19,-16,1,-3,-65,-25,61,-23,-67,-69,46,-11,106,-12,1,76,64,106,81,381,280,100,85,-30,-1016,49,103,41,47,74,941341
304,39,-73,-19,43,215,229,146,-39,11,272,153,47,180,58,262,26,4,-85,377,1065,416,58,-99,519,-15,-135,-10,-57,-65,-382,941342
790,75,-139,-59,70,523,487,195,-100,75,184,284,-127,385,159,518,-87,-126,-400,642,1787,439,-73,-381,1098,1272,-401,-214,-256,-282,-846,941343
686,72,-101,-59,52,455,388,116,-47,12,-101,166,-142,197,144,457,-81,-100,-373,545,1563,326,-69,-326,976,1227,-344,-205,-247,-261,-643,941344
453,57,-44,-45,19,295,211,197,-88,-124,242,89,-1,-52,70,333,-21,-41,-235,380,1058,173,-31,-181,685,767,-192,-118,-166,-147,-299,941345
87,17,-9,-29,-20,58,-3,208,-15,-51,6,-20,-85,-90,7,91,-16,-9,-86,110,270,-67,-42,-38,212,-74,-38,-53,-85,-36,23,941346
-33,15,-9,-6,-21,-24,13,-30,-28,18,78,11,-153,-80,77,-19,-56,-31,-95,0,-128,-229,-103,-38,58,-394,-26,-76,-87,-36,33,941347
8,28,-5,0,-10,-2,94,-59,-1,19,181,-109,-26,14,47,-19,-79,-75,-162,5,-268,-330,-131,-101,88,-345,-83,-128,-124,-79,-87,941348
-12,39,10,23,-1,3,47,-104,46,48,-94,-165,-123,-69,-25,13,-38,-31,-83,26,-454,-392,-79,-33,90,-404,-9,-67,-49,-13,-12,941349
-9,44,-2,15,-15,13,48,-113,78,-109,10,-93,-101,58,25,51,9,10,-27,71,-535,-399,-33,3,142,-330,35,-13,-4,45,30,941350
-14,22,-13,-13,-39,4,77,-136,12,-39,102,64,15,171,18,66,11,13,-18,89,-608,-413,-21,18,154,-313,36,-16,0,54,18,941351
104,36,-18,-14,0,88,149,-235,-118,162,210,54,138,140,16,108,-23,-19,-83,143,-484,-368,-42,-57,258,-83,-38,-63,-54,-8,-122,941352
313,32,-45,-35,22,222,226,89,-107,99,-34,49,133,118,-35,174,-77,-93,-200,233,-154,-317,-84,-186,459,371,-170,-137,-160,-109,-349,941353
572,49,-73,-42,68,395,359,169,-97,-27,217,58,87,130,-40,315,-112,-136,-302,382,359,-182,-110,-280,754,1000,-274,-179,-212,-179,-585,941354
774,80,-69,-38,93,518,400,245,-78,-179,76,37,104,192,45,442,-117,-135,-367,514,872,41,-122,-336,970,1559,-325,-220,-258,-217,-606,941355
284,50,21,-45,25,197,-2,165,-33,-187,-142,-32,138,132,-15,151,-76,-48,-184,172,426,108,-124,-158,344,553,-135,-142,-200,-114,-49,941356
22,17,52,-59,0,48,-238,69,-52,-144,-26,-44,135,-27,-28,15,-39,-5,-79,23,438,347,-93,-59,49,-47,-49,-101,-148,-47,53,941357
-30,3,10,-82,-37,16,-327,112,10,-367,-20,2,-49,-128,3,19,-7,15,-66,29,825,646,-65,-34,23,-139,-37,-78,-93,-35,46,941358
32,22,11,-39,-24,49,-98,-83,68,-399,-17,67,38,-57,77,97,44,64,-15,113,1260,900,-4,8,120,-59,-5,-12,-33,-7,49,941359
34,34,25,5,1,49,103,-43,84,-124,-85,-15,1,-77,44,82,33,49,-3,94,1465,985,-7,4,102,-111,-20,3,-38,-24,11,941360
45,28,24,4,5,58,99,37,31,-40,-10,-33,-4,-235,-1,94,45,65,32,101,1604,1023,13,15,131,-116,-34,15,-29,-13,0,941361
321,39,-32,-20,22,230,217,33,-72,-63,190,57,27,-115,-21,266,24,18,-85,316,1986,972,-6,-90,496,549,-140,-50,-85,-77,-255,941362
347,41,-39,-37,12,243,204,45,-67,-118,139,75,-15,-7,-13,255,-31,-28,-176,287,1759,646,-58,-156,529,710,-176,-112,-141,-111,-253,941363
256,31,-20,-36,4,169,131,32,-64,-175,26,16,49,27,9,163,-63,-62,-163,184,1257,293,-83,-152,405,552,-153,-126,-149,-98,-228,941364
254,45,-9,-10,19,184,144,5,-121,-187,-61,22,12,91,9,162,-58,-59,-108,185,874,7,-58,-113,418,571,-111,-92,-114,-56,-200,941365
186,32,-18,-7,-3,141,125,-120,-83,-201,-129,11,-22,-82,-18,121,-65,-61,-104,127,385,-288,-82,-92,347,473,-87,-97,-114,-40,-86,941366
167,40,14,1,21,143,101,-38,-32,-198,-91,-48,-122,-61,-20,101,-64,-62,-136,90,28,-484,-99,-107,303,439,-77,-118,-123,-30,-76,941367
132,28,23,-13,16,132,67,85,-47,-178,38,-76,-27,-41,-17,57,-86,-96,-149,59,-311,-647,-113,-124,243,371,-77,-129,-134,-14,-113,941368
109,3,4,-37,-4,103,47,29,-24,52,33,-3,-17,-101,-12,36,-105,-92,-139,43,-571,-750,-129,-111,218,343,-56,-140,-133,4,-89,941369
144,3,2,-60,-9,100,88,257,20,28,-71,-30,124,-54,8,84,-73,-54,-85,92,-664,-735,-109,-67,262,430,-7,-89,-68,52,-53,941370
164,17,6,-38,0,97,86,114,87,33,-12,-26,11,74,25,84,-71,-59,-84,88,-752,-707,-116,-72,245,423,-20,-83,-73,56,-61,941371
188,18,-17,-25,1,119,52,-69,69,-87,7,-101,-93,-119,63,88,-95,-75,-128,105,-659,-616,-118,-110,274,523,-66,-118,-117,17,-181,941372
182,21,-13,-62,3,124,-23,-3,33,-128,-177,-98,-133,-97,16,132,-56,-31,-109,146,-508,-450,-69,-80,298,593,-33,-103,-94,47,-141,941373
80,9,16,-45,-8,52,-79,162,37,84,-36,-116,14,-99,-19,66,-7,10,-31,76,-525,-306,-38,-9,133,326,40,-55,-53,87,19,941374
-127,-16,34,-1,-26,-84,-80,73,72,41,-24,-74,1,-88,-59,-90,-9,11,38,-91,-653,-223,-50,55,-152,-213,94,-13,-17,119,152,941375
206,22,-5,28,32,160,228,174,50,119,85,-25,-78,15,-19,85,-91,-83,-157,120,160,106,-117,-146,246,497,-109,-139,-136,-42,-274,941376
322,34,-23,24,38,230,323,191,3,137,131,-23,-255,99,-8,135,-85,-80,-166,171,775,438,-105,-174,353,772,-179,-150,-177,-111,-315,941377
330,28,-37,-2,34,234,299,264,-115,53,61,42,-156,49,-61,195,-44,-30,-154,215,1315,764,-77,-150,401,877,-174,-123,-149,-121,-312,941378
389,36,-56,-38,27,271,219,179,-40,106,55,99,-13,106,1,276,-11,-2,-198,291,1831,1007,-67,-154,535,1118,-197,-120,-142,-136,-344,941379
356,43,-36,-54,19,258,81,31,-44,75,-66,66,-70,96,33,289,38,47,-138,298,2043,1136,-26,-94,539,1086,-147,-73,-92,-108,-225,941380
282,15,-30,-68,5,233,12,184,63,-58,-180,7,-227,-117,43,232,12,38,-125,222,2055,1073,-54,-90,453,951,-117,-78,-103,-108,-149,941381
-84,-15,20,-66,-46,-24,-196,-166,4,53,-44,-84,-179,-177,-25,-8,21,72,26,-49,1398,790,-30,46,-10,98,23,-12,-30,-17,201,941382
-538,-45,83,-25,-82,-322,-404,-379,108,46,-221,-263,80,-283,-108,-307,59,103,208,-365,372,399,15,220,-546,-1069,185,75,78,132,593,941383
-363,-37,69,-3,-34,-205,-269,-168,156,130,-259,-191,174,-235,-119,-207,48,70,193,-228,227,175,13,185,-302,-839,169,80,94,160,398,941384
-222,-21,70,14,-6,-131,-153,-113,24,-9,95,-69,-137,-98,-47,-128,32,52,178,-123,29,-65,29,157,-114,-612,160,92,103,166,228,941385
210,8,5,16,36,148,121,311,-34,-63,73,43,-104,-105,-9,122,-35,-53,-25,169,317,-221,-30,-56,423,389,-37,-34,-15,43,-277,941386
373,7,-24,-11,34,245,182,324,-19,-136,111,115,-79,-46,21,212,-88,-103,-167,257,289,-399,-94,-172,610,899,-123,-125,-113,-30,-345,941387
348,21,-10,-5,31,226,175,116,86,170,64,182,4,112,24,221,-65,-51,-129,257,10,-543,-71,-116,592,947,-49,-87,-82,27,-237,941388
282,9,-47,-11,9,156,131,-3,-1,144,182,167,-9,53,1,180,-66,-47,-135,208,-308,-715,-82,-110,506,886,-37,-84,-84,45,-169,941389
241,14,-46,-22,1,135,112,16,-24,-4,86,-2,16,167,-53,179,-50,-36,-126,198,-532,-820,-61,-100,467,871,-20,-78,-77,81,-138,941390
262,43,-22,-15,3,151,138,164,58,-64,-74,112,-29,111,15,240,6,34,-56,264,-590,-802,22,-34,519,963,47,-10,-13,141,-80,941391
-45,31,-2,2,-39,-63,-67,-14,31,-54,18,34,-129,13,53,59,55,93,59,55,-1070,-845,38,94,117,299,172,44,47,213,284,941392
-503,-16,63,22,-64,-350,-340,-286,156,75,58,-147,-61,8,62,-186,138,194,308,-208,-1710,-807,97,320,-432,-817,397,183,212,385,671,941393
-589,-44,74,16,-79,-382,-393,-344,88,-20,-125,-106,246,-28,31,-254,119,181,361,-264,-1711,-631,91,351,-539,-1156,401,211,232,404,654,941394
-675,-73,76,15,-80,-420,-414,-177,109,6,-211,-83,78,90,-77,-311,129,190,427,-324,-1612,-397,110,390,-645,-1489,413,255,272,413,600,941395
190,-11,-59,0,25,143,153,104,10,-59,55,59,-37,194,92,190,17,0,9,250,67,172,15,-15,388,430,-14,20,52,109,-365,941396
492,38,-85,-7,60,337,344,293,-5,-39,318,54,-12,167,86,327,-48,-71,-212,387,989,642,-58,-190,661,1247,-199,-118,-105,-95,-506,941397
408,25,-49,-21,49,287,288,208,-7,160,218,40,-231,242,11,251,-55,-71,-193,273,1309,981,-72,-167,500,1110,-200,-125,-131,-149,-367,941398
364,18,-46,-37,37,278,185,60,-25,196,44,-4,-209,106,-29,227,-41,-47,-160,240,1577,1215,-60,-145,438,1058,-201,-120,-132,-153,-323,941399
399,34,-41,-46,31,298,129,80,-5,52,-11,17,-286,99,-1,263,-17,-24,-190,279,1864,1364,-49,-147,505,1201,-203,-131,-136,-158,-327,941400
349,25,-39,-43,14,250,96,82,0,98,97,-14,-50,160,16,212,-48,-33,-216,210,1868,1292,-89,-167,438,1119,-222,-166,-167,-187,-298,941401
-103,-17,23,-26,-34,-61,-159,96,19,102,-153,-140,141,107,-200,-76,-31,15,-27,-136,1071,934,-77,14,-124,70,-11,-66,-70,-59,263,941402
-1188,-86,179,53,-124,-769,-730,-309,110,87,-480,-341,112,-328,-184,-682,183,267,595,-799,-883,386,133,611,-1387,-2629,592,310,316,414,1334,941403
-1307,-110,179,92,-111,-831,-714,-348,117,88,-545,-327,172,-163,-87,-737,220,262,749,-810,-1421,86,190,689,-1441,-3227,662,404,449,542,1257,941404
-882,-96,94,75,-54,-561,-415,-161,183,140,-334,-165,178,23,-87,-486,154,142,559,-486,-1078,-94,164,475,-861,-2436,455,311,358,429,709,941405
158,-7,-38,46,58,121,204,156,145,164,117,255,-95,178,68,121,15,-58,54,210,299,-92,57,-15,446,-60,-18,36,77,95,-386,941406
518,25,-65,1,76,340,308,179,-37,-55,213,293,-11,154,86,328,-27,-86,-174,420,715,-189,30,-181,850,944,-172,-85,-73,-47,-512,941407
466,9,-76,-42,33,290,167,163,-90,-38,216,259,51,239,136,335,-17,-42,-163,397,574,-289,36,-138,807,1026,-109,-73,-61,-10,-373,941408
395,-2,-80,-69,19,245,75,58,-124,-10,269,146,16,84,42,294,-24,-44,-167,336,425,-367,15,-126,739,1022,-94,-77,-66,2,-309,941409
368,14,-48,-49,52,250,67,96,-9,-143,-92,157,11,126,43,258,-38,-52,-152,301,335,-405,0,-126,672,1003,-98,-71,-83,-18,-310,941410
416,27,-24,6,73,269,197,142,-21,-145,-46,92,149,69,34,245,-63,-72,-180,264,350,-402,-31,-165,638,1047,-127,-83,-112,-48,-312,941411
157,5,-3,20,19,79,99,-19,12,-140,-146,12,135,-29,-13,48,-79,-72,-124,40,-30,-450,-77,-101,259,464,-61,-76,-109,-15,-37,941412
-210,-13,40,29,-23,-166,-143,-64,58,-86,-124,-85,-21,21,37,-103,43,65,135,-140,-518,-360,38,152,-153,-380,181,94,71,181,352,941413
-453,-49,55,17,-52,-327,-308,-62,101,19,-10,-98,79,214,-12,-213,116,127,267,-262,-832,-280,98,286,-431,-994,317,166,168,276,528,941414
-611,-69,64,23,-75,-415,-374,-89,44,13,121,-78,103,107,-82,-308,116,132,315,-351,-1030,-224,111,322,-621,-1451,330,186,212,304,572,941415
-111,-41,-11,11,-13,-65,-81,-86,-48,152,83,28,94,-8,18,2,72,51,121,7,-220,38,91,124,-10,-390,114,100,129,151,34,941416
226,4,-45,18,24,157,129,-53,34,69,68,102,97,173,63,171,19,8,-72,188,318,175,36,-50,320,382,-54,-6,13,-2,-207,941417
234,15,-44,20,19,147,162,105,25,200,35,37,116,233,63,143,-26,-23,-106,147,349,196,-6,-85,267,440,-98,-47,-44,-68,-194,941418
191,9,-41,1,14,125,91,85,-124,141,1,23,60,130,13,106,-36,-41,-108,87,296,195,-9,-85,188,391,-107,-70,-59,-88,-149,941419
163,-7,-37,-18,4,93,34,2,-61,9,77,45,45,204,26,91,-19,-32,-104,63,217,160,-16,-62,131,331,-84,-62,-48,-85,-122,941420
160,-12,-37,-12,1,85,61,-27,-19,114,155,15,20,42,57,71,-34,-56,-131,45,167,91,-49,-86,97,335,-107,-95,-70,-106,-124,941421
16,3,14,18,4,6,0,10,92,42,-152,48,-108,-81,67,-17,-19,-20,-42,-56,-89,19,-21,-10,-103,5,-30,-44,-34,-47,76,941422
-521,-35,90,44,-43,-352,-305,-234,126,19,-60,-126,-47,-205,3,-307,88,112,276,-381,-923,-120,79,286,-750,-1319,278,151,172,182,599,941423
-599,-57,78,54,-48,-389,-312,-210,74,80,50,-139,-65,-90,-127,-342,88,106,324,-408,-1045,-150,93,291,-824,-1642,293,175,208,220,517,941424
-365,-48,35,36,-21,-223,-170,-143,45,51,-123,-79,66,77,-69,-225,33,41,171,-246,-629,-72,61,137,-527,-1177,141,84,119,127,226,941425
80,-6,-12,23,34,54,66,-79,12,37,32,147,206,190,28,38,4,-22,-8,66,159,117,44,-54,36,-175,-39,5,23,6,-185,941426
248,8,-32,18,53,150,144,31,10,120,50,154,136,162,-71,146,-14,-40,-95,167,539,187,35,-122,238,289,-107,-39,-43,-59,-296,941427
247,12,-25,23,48,149,153,173,-53,145,49,207,-48,55,-31,146,-27,-26,-117,142,665,234,11,-120,221,353,-104,-67,-71,-75,-247,941428
223,5,-16,22,34,131,166,220,29,19,82,33,61,26,62,116,-17,-27,-108,113,761,308,5,-115,185,333,-96,-60,-94,-73,-190,941429
203,6,-7,26,29,113,120,198,-48,15,209,140,-160,147,72,120,12,-1,-58,112,856,391,44,-65,175,284,-59,-22,-54,-41,-142,941430
109,-7,-24,-15,6,71,-9,-80,-98,36,25,-7,-194,20,72,102,32,23,-30,85,891,468,66,-37,138,194,-46,2,-26,-20,-54,941431
-19,-21,17,-31,0,-7,-146,100,-1,76,-58,58,-72,110,22,58,85,86,70,32,760,488,99,70,3,-91,59,75,60,64,115,941432
-172,-24,33,7,-19,-119,-211,35,2,97,-51,42,-24,4,-21,-74,46,43,95,-116,475,372,52,86,-209,-508,76,67,61,67,179,941433
-198,-21,27,22,-23,-129,-194,-67,51,-1,-111,49,-185,3,54,-108,21,32,82,-140,337,284,34,72,-248,-642,81,31,45,61,193,941434
-196,-29,27,15,-22,-126,-132,-93,20,-26,80,46,-127,-11,-30,-94,46,44,72,-125,190,176,61,80,-240,-670,104,36,61,75,192,941435
-26,-17,-2,33,-2,-27,59,6,21,-18,64,97,-74,62,-63,-21,2,-14,-24,-26,187,-12,29,-11,-50,-322,1,-16,12,10,-46,941436
74,11,-13,50,14,30,178,-164,23,83,50,160,105,-47,-38,28,-22,-40,-54,14,-54,-323,1,-51,36,-95,-42,-35,-11,-26,-121,941437
114,24,-1,52,26,56,225,-132,32,131,-14,57,108,71,40,48,-32,-52,-47,39,-434,-658,-12,-56,69,4,-32,-29,-14,-20,-114,941438
38,0,-20,21,-10,-14,99,-58,-9,241,35,-35,-61,-68,31,-8,-67,-72,-50,-22,-906,-960,-28,-56,-39,-88,-25,-45,-32,-20,-69,941439
64,1,-30,5,-12,0,15,40,-5,169,116,-10,30,-134,29,38,-21,-35,-18,16,-1163,-1107,20,-25,-6,-4,8,-2,16,16,13,941440
136,2,-47,-34,-16,32,24,-198,-92,37,15,52,29,171,-17,105,0,-32,-44,93,-1235,-1147,39,-39,71,209,4,-8,16,10,-44,941441
-150,-7,18,-15,-35,-150,-166,-73,-134,13,-142,-93,-135,26,20,-69,23,34,47,-110,-1696,-1123,56,79,-348,-450,123,29,64,86,216,941442
-423,-47,50,0,-44,-305,-323,50,-51,-14,-252,-156,-169,6,7,-200,105,119,237,-254,-1895,-845,117,245,-687,-1168,271,176,199,202,462,941443
-550,-35,69,25,-47,-355,-321,-176,73,5,-414,-44,-230,-17,27,-229,202,213,400,-270,-1723,-454,226,366,-815,-1567,385,307,311,298,629,941444
-465,-46,30,31,-50,-305,-201,-55,104,128,-269,-71,40,-94,14,-176,170,159,316,-199,-1137,-67,193,268,-702,-1417,277,246,240,220,376,941445
-64,-18,-16,31,6,-37,33,-9,26,6,151,-104,-70,217,27,2,51,13,46,16,-54,387,84,10,-245,-548,4,76,66,3,-120,941446
100,-21,-40,12,20,52,78,76,28,-95,192,-34,-72,289,70,71,28,-3,-27,93,617,704,86,-60,-81,-176,-84,27,9,-78,-181,941447
75,-17,-34,9,13,30,89,2,-76,-193,-10,40,23,-72,-12,49,30,0,-43,50,972,912,76,-59,-130,-222,-102,3,-16,-105,-175,941448
86,23,2,30,33,61,161,7,-77,-141,-88,2,134,-86,38,35,-7,-27,-77,29,1332,1084,26,-93,-142,-192,-143,-31,-51,-149,-213,941449
32,6,-9,3,3,33,132,129,-93,-31,49,22,51,-63,-22,-20,-46,-67,-95,-32,1553,1162,-21,-122,-186,-262,-175,-65,-98,-179,-215,941450
-2,-16,-11,-10,-3,10,6,113,-92,-131,21,4,9,-202,-47,-34,-37,-53,-59,-46,1702,1211,-11,-85,-202,-325,-128,-41,-80,-149,-164,941451
-30,-4,2,2,13,-20,-84,2,24,27,-40,12,24,-144,-108,-43,-1,-21,7,-76,1661,1144,10,-27,-250,-446,-64,3,-27,-99,-17,941452
-290,-22,37,29,-25,-199,-178,-116,16,-2,-106,2,39,-142,-66,-172,74,62,195,-225,1130,924,83,153,-544,-1097,108,129,94,35,304,941453
-316,-24,19,27,-31,-220,-113,-12,4,-11,-60,58,-151,-61,-67,-175,71,50,230,-215,891,672,109,161,-517,-1182,118,158,119,68,263,941454
-145,22,8,58,10,-104,13,110,-35,11,-78,-5,-52,-45,4,-71,49,13,139,-91,819,391,100,77,-270,-809,37,111,89,29,71,941455
-59,8,-41,29,-13,-67,9,-31,-71,-60,130,54,-141,-71,29,-9,33,-5,43,-21,464,-46,80,23,-117,-543,1,58,63,13,39,941456
6,11,-43,9,-17,-29,-15,-27,-53,-140,180,59,-106,-54,-54,76,26,-2,8,61,-100,-614,78,15,9,-308,33,49,71,45,-21,941457
78,17,-42,8,-19,10,-7,-134,-1,-157,203,32,-54,-126,-22,103,-14,-37,-32,100,-777,-1218,50,-38,98,-87,18,8,40,44,-51,941458
44,12,-2,18,3,-7,-25,-127,-2,-221,167,38,-73,35,39,58,-26,-41,-13,55,-1504,-1636,48,-19,-1,-164,50,1,47,70,7,941459
68,-1,11,10,11,18,29,-17,-93,-126,-14,58,48,44,1,61,-23,-41,-30,64,-1961,-1836,35,-30,-27,-132,56,-9,36,80,-19,941460
69,10,22,38,29,30,102,86,-85,-44,-27,8,59,-54,-20,57,-28,-42,-44,63,-2237,-1864,28,-37,-56,-138,54,-5,36,76,-25,941461
19,-2,13,35,17,4,117,18,37,-161,-144,-114,266,-47,61,5,-56,-66,-94,6,-2253,-1655,-10,-68,-152,-230,4,-42,-6,22,-27,941462
92,21,13,37,23,50,161,107,29,-113,17,26,114,126,-1,31,-73,-93,-149,24,-1766,-1156,-46,-125,-129,-98,-55,-85,-65,-41,-122,941463
29,9,4,27,-6,2,79,-72,-3,-69,79,83,95,98,-34,-45,-101,-112,-179,-57,-1317,-662,-82,-164,-265,-237,-102,-125,-117,-110,-161,941464
77,1,-28,0,6,43,54,-253,-14,37,-59,93,47,-87,-32,-11,-74,-89,-181,-20,-576,-69,-68,-174,-208,-136,-139,-120,-126,-141,-175,941465
33,-27,-31,-28,0,11,4,-131,-37,86,85,-6,9,-55,12,-36,-65,-57,-163,-63,39,448,-54,-140,-274,-237,-140,-104,-123,-159,-84,941466
-37,-23,-12,-18,-11,-31,6,-142,-78,138,-4,-104,-87,-13,25,-72,-43,-22,-98,-101,509,815,-25,-82,-348,-414,-111,-52,-84,-140,-63,941467
-45,-7,-6,9,0,-30,27,-182,-5,66,-164,-141,76,-53,-83,-55,-1,6,-40,-82,985,1119,10,-39,-340,-489,-94,-5,-42,-124,-21,941468
43,13,21,28,32,42,69,-39,29,37,-62,34,5,90,-45,-15,-1,-9,-44,-40,1507,1355,-6,-54,-261,-391,-139,-9,-49,-160,-69,941469
67,2,26,22,31,48,52,-82,56,66,159,50,-144,-199,57,-15,-4,-10,-58,-42,1854,1479,-9,-56,-233,-363,-162,-12,-60,-176,-131,941470
6,-14,1,6,7,12,-7,-40,-119,115,286,99,25,-96,89,-22,-6,-21,-39,-51,1991,1495,-16,-37,-261,-431,-132,-7,-51,-160,-145,941471
127,3,-12,-16,14,107,84,138,-135,-146,180,28,49,2,45,57,-37,-45,-90,38,2223,1406,-29,-102,-66,-105,-180,-41,-77,-191,-259,941472
491,30,-73,-35,47,342,309,339,-135,-286,185,140,67,-21,-23,257,-102,-126,-293,274,2661,1230,-89,-295,394,832,-355,-178,-204,-319,-597,941473
624,48,-79,-48,58,416,365,303,-73,-169,-210,80,-118,41,-47,355,-101,-130,-340,363,2609,963,-83,-321,556,1261,-377,-191,-232,-326,-614,941474
639,57,-64,-66,60,413,307,286,-20,-160,-172,61,36,-165,38,363,-98,-132,-354,359,2225,561,-90,-316,573,1420,-341,-207,-239,-314,-489,941475
139,16,1,-61,-6,80,-7,-5,-22,-36,-90,-4,45,-103,-102,54,-55,-53,-141,10,860,-122,-57,-110,-29,359,-109,-105,-125,-133,-2,941476
-83,-6,50,-29,-23,-63,-98,-145,9,107,-266,-23,88,-24,20,-50,-17,-12,10,-92,-278,-810,-15,21,-233,-154,50,-21,-15,33,171,941477
-31,-3,40,-10,-15,-29,-28,-27,0,-54,-89,15,105,-183,68,-9,-33,-20,-19,-33,-1057,-1398,-25,1,-138,-42,68,-49,12,70,49,941478
-34,2,44,13,-8,-37,1,54,9,-88,47,59,24,-76,30,-3,-14,-14,-10,-32,-1709,-1766,-10,19,-144,-51,98,-36,37,100,87,941479
-56,4,26,12,-13,-59,-68,78,14,-65,188,41,16,33,-4,-8,-6,-13,35,-34,-2177,-1922,3,35,-170,-121,122,-22,65,132,115,941480
-59,2,23,-13,3,-44,-194,32,-24,-140,58,47,45,20,47,6,13,5,46,-11,-2379,-1857,25,47,-151,-126,145,0,83,152,115,941481
277,28,-24,-30,32,177,-57,-62,-57,-78,173,156,6,-144,82,187,-34,-66,-154,198,-1748,-1474,-33,-132,247,641,-55,-120,-42,-2,-328,941482
946,63,-135,-73,79,609,297,268,-106,-39,423,285,-94,246,67,556,-163,-206,-541,601,-234,-825,-152,-505,1027,2288,-451,-349,-306,-323,-964,941483
1062,95,-120,-75,90,677,436,284,-118,2,544,224,-104,294,128,621,-151,-179,-598,645,548,-274,-159,-529,1123,2694,-498,-362,-366,-394,-893,941484
804,82,-86,-62,47,498,431,269,-84,-103,240,149,-130,137,80,446,-121,-116,-492,425,766,147,-150,-416,774,2164,-408,-296,-326,-349,-605,941485
104,44,-5,-49,-33,40,57,61,-55,-105,-40,-105,-28,-75,-82,69,-4,57,-122,-28,306,433,-61,-66,-83,569,-82,-76,-131,-135,165,941486
-175,29,31,-24,-56,-126,-81,-104,-26,-155,-82,-128,-3,-157,-103,-72,64,124,103,-179,326,692,-8,118,-374,-199,92,69,13,19,347,941487
-177,15,26,-26,-45,-112,-75,-58,-68,-133,-171,-196,-119,-138,-85,-80,67,101,121,-166,680,894,-6,107,-348,-320,56,87,23,6,306,941488
-167,-4,15,-26,-44,-110,-98,-223,-57,38,-255,-98,-44,-26,-45,-79,66,88,120,-153,962,1028,-1,93,-337,-396,6,86,19,-16,242,941489
-113,-5,6,-24,-40,-97,-102,-221,18,192,-26,-133,93,5,-29,-82,19,50,31,-146,1185,1061,-24,35,-292,-363,-45,31,-31,-67,150,941490
-101,16,11,13,-25,-78,-64,-18,78,128,-126,-61,84,-91,-46,-85,8,32,11,-138,1261,990,-42,15,-277,-353,-61,5,-40,-79,105,941491
55,16,-14,4,-12,27,79,70,55,87,-99,10,86,-178,-58,19,-4,-3,-49,-13,1477,898,-42,-55,-42,31,-135,-24,-64,-111,-139,941492
284,31,-12,-8,33,206,194,16,-62,-5,-193,-11,155,-103,-3,153,-33,-34,-163,128,1666,752,-71,-162,240,592,-218,-86,-109,-176,-300,941493
322,44,-16,-29,33,229,171,-23,-119,-119,-68,-55,21,-241,53,181,-43,-30,-180,145,1501,521,-76,-174,284,762,-225,-89,-113,-176,-280,941494
324,51,-13,-31,27,222,169,-274,-58,1,-126,8,24,-238,115,207,-32,-8,-132,179,1224,267,-52,-133,304,868,-160,-65,-82,-130,-286,941495
91,26,17,-34,-18,54,13,-15,57,15,-4,-23,-22,-119,4,60,-35,-4,-47,3,487,-136,-67,-48,25,431,-60,-40,-35,-68,-69,941496
-19,3,40,-27,-3,-16,-85,118,57,36,36,-133,-26,-130,-10,1,-18,-11,32,-57,-186,-500,-40,35,-102,198,25,-9,31,19,124,941497
-12,13,51,-7,29,6,-64,80,59,4,57,-37,149,-164,51,-2,-11,-37,58,-49,-681,-802,-3,52,-92,205,56,8,54,70,109,941498
-9,17,18,11,5,-5,11,30,149,-109,-52,-27,94,-121,-54,-46,-58,-94,-25,-72,-1031,-988,-71,-34,-114,229,-7,-65,-10,10,17,941499
-89,22,36,27,-10,-56,8,-5,139,-131,-153,-66,45,-3,-44,-113,-100,-107,-62,-150,-1331,-1057,-113,-58,-219,68,-12,-117,-38,-14,32,941500
-100,24,51,20,-4,-49,-36,46,81,-47,-275,-2,18,62,-67,-114,-84,-88,-40,-164,-1420,-985,-85,-40,-224,11,2,-93,-22,-1,-15,941501
-25,13,23,-11,0,-10,-19,-55,42,-26,-64,-40,164,107,-87,-33,-13,-28,10,-72,-1183,-732,-15,-8,-85,122,25,-29,26,34,-24,941502
287,47,-32,-28,21,198,191,88,18,-65,75,74,177,68,-53,179,-26,-45,-121,164,-399,-352,-29,-129,342,841,-114,-83,-59,-55,-276,941503
367,31,-44,-42,29,229,196,168,-8,-152,228,38,100,-84,-9,213,-64,-72,-210,183,43,-117,-85,-179,433,1068,-183,-117,-123,-136,-303,941504
288,44,1,-21,33,181,93,185,33,8,243,-13,62,-112,2,148,-48,-40,-157,109,195,65,-87,-114,327,849,-139,-75,-104,-130,-180,941505
14,16,29,-33,-11,5,-56,-41,53,-35,-23,-68,143,-223,-2,-12,-16,22,-23,-73,52,163,-66,26,15,194,-24,3,-40,-46,32,941506
-84,17,41,-13,-16,-36,-78,42,-2,99,-126,-117,132,-204,11,-70,-13,24,23,-128,90,218,-69,57,-82,-106,-4,38,-17,-20,130,941507
-85,23,48,9,-7,-39,-84,121,36,81,-202,-171,-4,-242,20,-76,4,28,57,-115,201,259,-59,69,-69,-184,16,67,10,-6,105,941508
-90,15,36,3,-12,-50,-122,-30,73,-83,-7,3,116,-125,9,-55,38,62,91,-98,282,305,-13,99,-54,-250,55,105,52,30,89,941509
-67,13,31,7,-3,-31,-92,-183,54,24,-119,9,368,-65,-36,-28,32,56,91,-69,355,294,-18,82,-10,-207,37,99,50,23,111,941510
-28,11,20,5,-3,-9,-19,-53,31,144,30,-62,-65,-146,-34,-26,0,24,45,-66,377,215,-57,47,25,-119,1,68,15,-17,48,941511
11,21,5,-2,-13,17,42,-93,77,59,184,-24,-74,-133,36,-7,-9,1,4,-39,395,137,-37,6,85,3,-46,38,-17,-40,-39,941512
33,18,-2,-13,-13,40,55,-25,1,54,215,-50,-61,-9,-27,57,50,53,47,37,375,116,27,52,141,100,-10,84,33,7,21,941513
131,17,-13,-16,3,78,79,-88,-102,-29,387,-26,-4,-62,-27,100,33,24,-23,81,398,79,15,1,213,326,-60,42,7,-25,-86,941514
206,22,-21,-19,16,125,71,-104,-59,156,286,-22,-8,146,53,133,7,-3,-57,105,396,39,-21,-50,276,539,-99,1,-25,-51,-211,941515
26,17,15,-26,7,12,-56,-112,-38,150,-26,-157,-12,-45,23,4,-7,-14,16,-40,8,-75,-19,0,10,177,-33,7,-11,-28,47,941516
-53,0,-3,-33,-10,-44,-88,-37,-107,22,80,-71,-224,-92,10,-52,-2,-11,31,-80,-219,-105,-11,16,-98,36,0,8,2,-7,85,941517
-58,0,5,-32,-17,-50,-78,54,-56,-55,-173,34,-110,20,-21,-18,34,32,46,-62,-307,-49,15,60,-122,23,45,8,50,46,101,941518
22,18,21,-28,-2,17,-48,77,7,0,-177,2,140,1,-51,27,24,16,7,-2,-215,19,-1,19,-52,178,22,-21,37,15,42,941519
-7,13,21,-24,-2,8,-88,70,17,36,48,-27,49,-34,-24,-10,-28,-18,-30,-29,-208,40,-42,-10,-80,160,4,-60,6,-10,-8,941520
-5,9,-1,-25,-11,10,-90,-74,68,-41,214,-9,-104,-129,22,-14,-54,-47,-49,-44,-129,85,-72,-32,-67,201,-41,-74,-16,-34,-30,941521
209,19,-37,-35,14,151,88,-95,71,3,183,137,-62,96,0,122,-49,-62,-101,115,295,181,-81,-108,246,699,-113,-79,-52,-87,-258,941522
721,65,-96,-39,67,481,518,5,-28,-29,209,185,69,26,65,399,-140,-161,-374,423,1176,279,-159,-366,879,1926,-369,-248,-241,-291,-782,941523
840,93,-102,-28,64,544,545,233,-160,6,235,122,-29,-19,-17,421,-217,-237,-548,435,1422,220,-240,-489,1006,2338,-501,-362,-389,-416,-879,941524
631,100,-45,-42,45,419,226,107,-187,-58,180,26,-35,153,12,322,-151,-145,-432,294,1130,115,-197,-357,770,1944,-358,-278,-322,-308,-535,941525
111,61,46,-44,-10,68,-133,-35,-91,-26,-224,-19,96,52,-1,103,31,72,-58,24,333,-28,-31,11,207,761,-8,-16,-66,-23,178,941526
-135,24,63,-40,-48,-87,-215,-70,-68,-175,-46,-81,196,-41,-19,-12,77,106,101,-105,-111,-148,6,133,-37,133,109,79,30,91,273,941527
-96,27,54,-35,-37,-58,-129,50,14,-39,100,-105,10,139,70,-6,46,83,109,-81,-150,-211,-2,106,21,142,96,89,34,91,215,941528
-100,15,39,-40,-39,-61,-112,1,80,28,86,-90,-64,-98,-33,-18,51,73,96,-80,-247,-282,10,99,43,99,98,83,41,103,199,941529
-58,28,26,-14,-15,-27,-86,9,47,-75,39,-60,-16,-142,-50,-26,12,30,20,-61,-297,-339,-23,29,79,156,24,23,-5,38,92,941530
-17,34,24,-6,-1,-6,-35,-118,3,-58,-69,-86,163,173,-25,-1,26,27,7,-38,-330,-335,-20,17,128,214,5,14,-4,29,60,941531
210,54,-8,-9,14,135,118,27,-23,-191,-113,-14,37,292,1,178,36,31,-11,163,-6,-229,7,-14,429,740,-33,22,9,23,-176,941532
681,79,-85,-49,46,443,350,201,-55,-75,34,95,-131,211,85,404,-104,-126,-317,414,725,-139,-108,-301,959,1905,-322,-168,-204,-210,-709,941533
833,97,-64,-61,68,543,393,388,-82,19,244,72,23,64,105,476,-144,-143,-446,485,995,-53,-180,-381,1103,2384,-394,-236,-271,-286,-725,941534
703,81,-51,-87,22,448,297,239,-103,-17,400,123,-12,105,51,420,-110,-90,-371,401,907,21,-181,-300,920,2258,-306,-196,-239,-232,-444,941535
127,66,50,-45,-21,62,-28,104,67,-35,-173,-37,91,-27,54,100,19,62,-28,29,105,30,-55,22,158,932,17,-6,-56,-5,248,941536
-102,38,56,-23,-37,-83,-150,-5,80,-190,-161,-127,95,-40,38,-91,4,37,42,-162,-161,129,-54,47,-191,263,40,-3,-33,4,258,941537
-140,23,58,-16,-22,-89,-163,-95,38,-191,-27,-100,6,-81,-31,-133,-22,5,33,-200,-51,331,-89,20,-284,96,0,-24,-29,-25,155,941538
-118,22,44,-30,-34,-78,-106,3,44,-16,-19,-151,143,1,-9,-105,-34,-4,29,-167,190,488,-91,2,-238,127,-21,-26,-31,-49,92,941539
-133,24,31,-10,-35,-91,-38,-153,40,-84,-52,-202,28,-81,-11,-129,-53,-28,21,-170,313,549,-99,-10,-267,66,-37,-35,-39,-76,80,941540
-122,25,39,10,-33,-86,31,32,20,119,131,-68,113,-73,-42,-108,-29,-7,48,-149,432,596,-66,34,-255,23,-9,-6,-6,-50,102,941541
274,69,1,22,22,176,269,258,-40,278,312,166,-87,93,40,155,-30,-28,-62,151,1066,672,-55,-79,268,882,-109,-35,-40,-99,-313,941542
798,111,-70,-25,69,514,479,330,-93,247,331,243,-143,86,154,473,-96,-105,-318,490,1847,631,-112,-306,939,2217,-337,-166,-182,-265,-740,941543
890,116,-97,-61,55,567,412,197,-232,-2,97,193,-235,14,86,545,-102,-92,-405,544,1949,444,-123,-352,1101,2675,-387,-216,-248,-300,-736,941544
673,95,-65,-86,7,414,211,199,-160,-108,38,96,-99,46,71,443,-67,-44,-315,398,1463,181,-113,-250,869,2357,-282,-167,-209,-219,-439,941545
115,75,46,-46,-28,63,-104,64,12,48,-166,-32,-54,-39,-10,116,33,76,-5,28,333,-172,-37,27,182,1069,23,6,-22,14,206,941546
-114,52,73,-15,-23,-82,-213,2,68,183,-229,-8,-6,-139,-26,-46,49,87,119,-129,-303,-382,-14,121,-102,407,129,60,53,116,334,941547
-107,53,72,1,-9,-79,-207,-55,77,185,155,37,-29,-60,32,-56,41,76,142,-135,-530,-489,1,116,-91,314,133,68,60,137,269,941548
-138,45,61,5,-22,-107,-193,31,167,36,-161,-150,-64,-100,-8,-58,53,96,161,-128,-741,-574,16,135,-79,241,169,83,81,175,294,941549
-109,45,56,9,-29,-91,-153,25,46,-197,-275,-166,94,-171,-51,-7,84,111,180,-80,-810,-599,46,158,-9,296,198,117,122,200,235,941550
-54,48,60,-21,-13,-52,-139,-114,17,-243,-198,-83,59,208,-60,24,96,122,156,-43,-840,-603,74,147,52,367,190,112,117,198,238,941551
254,52,17,-34,19,161,17,35,-20,-107,-33,7,-28,317,6,194,26,24,-14,169,-380,-470,5,-18,437,1072,6,-1,11,74,-168,941552
1027,102,-107,-78,74,647,437,176,-108,25,277,317,-101,292,196,614,-136,-174,-457,638,904,-186,-138,-450,1364,2976,-420,-264,-271,-261,-962,941553
1220,123,-121,-104,65,769,535,133,-177,64,300,306,-109,251,217,723,-175,-192,-614,740,1392,-39,-182,-555,1573,3672,-518,-361,-382,-382,-1040,941554
1047,136,-77,-97,46,661,429,383,-135,-42,315,177,-67,109,58,583,-189,-169,-605,560,1283,8,-212,-513,1278,3399,-486,-376,-411,-394,-776,941555
117,79,66,-60,-37,54,-141,-9,58,-59,79,-92,73,-46,-15,25,-66,14,-160,-79,44,-23,-123,-87,66,1250,-70,-133,-184,-115,268,941556
-175,51,91,-22,-48,-138,-316,-140,75,46,-46,-141,178,-95,-87,-138,4,82,80,-235,-164,259,-56,97,-292,332,81,8,-12,29,347,941557
-144,53,80,4,-30,-120,-297,-57,81,118,-187,-150,322,-79,-86,-143,18,79,91,-211,179,573,-31,87,-297,191,65,17,-6,4,298,941558
-129,35,59,11,-33,-115,-224,-73,57,-35,-162,-141,161,-237,-52,-108,36,96,134,-170,473,783,-12,115,-273,126,96,59,36,25,262,941559
-101,27,72,13,-10,-80,-133,-213,42,-60,-91,-146,125,-233,-55,-98,34,83,124,-154,703,878,-17,106,-255,99,64,75,28,5,225,941560
-72,35,77,25,6,-68,-35,-65,92,60,-88,-73,81,-22,-53,-100,16,59,93,-135,839,864,-31,74,-242,104,42,43,12,-15,161,941561
312,56,5,19,29,177,254,132,-33,-188,132,64,16,62,54,134,-46,-29,-72,142,1430,842,-61,-105,279,1027,-145,-42,-71,-122,-321,941562
1180,134,-119,-17,108,742,692,132,-213,-212,368,241,-97,152,159,654,-158,-200,-506,710,2656,834,-152,-505,1351,3222,-534,-282,-307,-404,-1127,941563
1348,146,-137,-77,96,844,626,213,-186,-76,127,255,2,168,171,761,-184,-205,-628,790,2734,575,-206,-581,1526,3928,-596,-366,-397,-469,-1095,941564
962,116,-55,-95,44,592,282,179,-188,-39,30,170,-38,59,77,560,-122,-90,-452,508,1871,174,-169,-369,1030,3260,-356,-276,-308,-310,-551,941565
22,52,92,-52,-49,-27,-255,40,7,-40,-156,-80,95,-37,-13,-13,-18,45,-28,-144,65,-378,-90,33,-142,1144,73,-56,-81,10,366,941566
-238,27,101,-9,-49,-198,-315,127,148,29,-263,-115,98,-42,-33,-206,-34,10,94,-319,-679,-619,-90,93,-444,412,129,-28,-5,100,371,941567
-147,28,95,-1,-30,-121,-215,9,188,-132,-303,-91,127,39,-90,-138,-45,0,55,-236,-804,-691,-86,54,-300,555,107,-46,6,105,235,941568
-116,25,65,-1,-42,-109,-183,-8,22,-41,-193,-61,105,15,-109,-75,-14,32,86,-176,-927,-749,-45,90,-200,636,148,1,59,151,259,941569
-160,21,64,0,-46,-133,-187,-31,27,79,-99,-205,-87,-56,-59,-89,30,62,159,-183,-1125,-794,4,148,-235,502,204,57,116,207,336,941570
-123,18,54,-9,-33,-104,-164,-98,54,18,24,-227,176,-123,-15,-63,61,79,188,-129,-1160,-732,55,165,-175,514,233,81,134,229,290,941571
124,32,18,-25,5,50,-32,-50,-132,-6,136,-63,-2,-65,58,74,14,26,55,38,-775,-574,2,42,138,1047,103,25,67,120,-18,941572
501,69,-10,-18,50,283,170,197,-74,-3,280,189,-98,55,104,246,-114,-105,-178,232,-127,-400,-124,-180,563,1923,-135,-128,-110,-80,-426,941573
626,74,-37,-14,42,372,222,410,-5,-8,256,246,32,102,7,291,-156,-151,-301,280,240,-251,-175,-296,693,2290,-241,-225,-217,-186,-544,941574
482,59,-14,-23,10,273,111,259,12,-84,-354,115,-98,147,-68,220,-129,-97,-274,170,246,-112,-151,-245,503,2003,-205,-217,-216,-178,-293,941575
43,50,70,-3,-28,-6,-133,-18,83,-120,-326,49,29,138,-87,6,16,76,6,-61,-159,71,-26,50,-15,930,89,-25,-24,33,222,941576
-91,45,92,-14,-42,-85,-183,-17,115,-34,-294,-12,145,14,-67,-35,70,143,145,-94,-2,362,33,152,-110,500,179,83,74,118,310,941577
-73,23,64,-31,-49,-79,-249,-89,29,-23,-238,-119,22,174,-60,-44,35,105,104,-86,387,608,-10,85,-77,440,104,61,26,36,218,941578
-12,25,67,-38,-18,-30,-320,-86,-103,15,-143,13,-156,263,-15,-2,52,118,97,-37,747,786,9,74,-1,472,69,85,34,20,181,941579
9,12,34,-62,-28,-25,-298,22,-90,-7,-217,43,-181,255,-44,70,130,175,157,30,978,900,86,151,57,495,131,157,104,84,192,941580
-15,24,49,-31,-17,-47,-109,1,-64,-70,-45,-31,-23,59,-26,65,136,180,194,38,1009,871,100,175,25,408,154,185,126,113,238,941581
30,43,41,50,5,-16,84,-42,-24,-43,-81,-81,-27,-262,-110,-7,4,39,49,-19,938,645,-15,23,-3,471,-15,46,11,-25,39,941582
477,55,-40,20,51,280,248,93,-171,-104,-57,17,37,-43,-76,208,-132,-119,-225,223,1409,484,-123,-246,520,1589,-287,-146,-158,-218,-530,941583
639,69,-10,-26,66,397,222,197,-138,-52,247,13,67,-29,-7,306,-132,-120,-307,306,1408,291,-144,-298,654,2098,-304,-207,-208,-239,-538,941584
475,32,-4,-58,24,263,167,39,55,141,164,25,-2,-25,-11,180,-141,-129,-285,146,873,-34,-162,-261,375,1855,-236,-232,-204,-196,-300,941585
25,18,44,-4,-30,-39,16,9,99,48,-18,-102,-46,-214,-100,-116,-125,-101,-115,-184,-131,-380,-144,-99,-225,894,-45,-156,-117,-68,96,941586
-172,21,64,26,-42,-148,-57,-83,143,1,88,-95,-31,-78,-123,-177,-56,-24,29,-246,-615,-475,-76,41,-381,487,92,-58,4,63,247,941587
-136,6,43,19,-35,-116,-69,-187,104,-8,65,-40,112,-11,-132,-143,-60,-39,23,-201,-735,-525,-83,34,-315,584,91,-64,13,71,166,941588
-82,25,49,32,-2,-64,-33,-12,-7,111,25,-67,182,-25,-21,-119,-81,-61,-9,-167,-810,-572,-99,-8,-272,684,61,-90,-7,44,73,941589
-95,17,48,23,-19,-78,-14,137,-27,177,-56,-103,-69,-11,2,-115,-45,-35,25,-169,-917,-580,-50,23,-284,647,82,-63,10,68,131,941590
-110,10,56,11,-15,-92,-21,-12,107,80,7,-114,73,-153,-36,-128,-43,-32,40,-184,-985,-569,-23,32,-295,570,87,-46,28,73,137,941591
-90,-1,60,20,11,-75,-29,75,48,209,93,-40,184,-229,-28,-145,-71,-52,1,-199,-987,-524,-60,-6,-290,529,52,-68,4,47,98,941592
5,2,39,24,28,-11,-2,4,-26,82,159,-40,114,-196,-16,-106,-97,-76,-51,-145,-784,-420,-81,-60,-160,698,6,-99,-32,6,-79,941593
23,-1,39,20,21,9,-41,-6,77,-7,30,25,93,18,-75,-70,-60,-47,2,-107,-612,-272,-67,-23,-112,713,30,-61,-7,10,-28,941594
-47,0,59,22,19,-35,-84,-39,101,75,16,-36,193,-135,-64,-92,-10,2,73,-114,-544,-128,-19,36,-164,497,78,5,25,45,123,941595
15,-3,34,24,13,-2,15,51,-22,-24,78,56,279,-216,-41,-38,-14,4,28,-61,-229,48,-16,3,-36,578,29,-4,0,9,-16,941596
5,20,53,38,18,-3,97,146,-17,-13,-213,8,264,-93,-34,-27,7,37,51,-55,34,214,-1,33,-3,491,58,31,10,17,13,941597
-39,0,42,21,-9,-41,107,41,-71,-57,-7,-91,-75,-102,-61,-69,17,39,80,-79,238,320,13,50,-27,308,64,69,8,20,93,941598
-72,2,41,43,8,-63,121,-5,-13,-21,244,-31,-36,-142,-32,-95,19,37,96,-109,355,381,17,61,-62,145,61,92,6,30,119,941599
-92,4,49,55,13,-82,107,-75,75,197,141,-6,-9,-226,-15,-130,3,40,68,-156,409,366,0,37,-102,30,32,70,-16,12,124,941600
-149,-18,48,49,-6,-130,-10,-23,87,76,-157,-122,159,-168,-54,-175,-8,28,92,-203,354,310,-15,44,-180,-153,51,67,-7,17,130,941601
-148,-24,62,26,-5,-115,-105,161,120,46,-119,-182,-28,26,-6,-147,28,44,139,-168,302,265,21,92,-175,-149,109,94,38,68,187,941602
-545,-56,114,17,-44,-364,-375,65,127,84,-199,-215,78,-74,6,-376,86,118,349,-416,-512,52,88,295,-698,-1065,311,216,180,225,624,941603
-754,-71,140,42,-53,-499,-427,-144,252,-76,-228,-179,270,-87,11,-497,112,146,460,-535,-1084,-113,105,392,-978,-1631,418,275,286,322,799,941604
-673,-74,96,59,-46,-445,-295,-336,268,-101,-78,-81,72,-92,-40,-429,128,136,454,-435,-1169,-167,141,369,-868,-1473,379,269,317,319,632,941605
-156,-51,13,43,5,-109,-8,-187,93,-159,260,33,91,159,-25,-135,28,9,205,-93,-563,-122,73,120,-251,-279,134,109,178,136,28,941606
31,-34,-13,11,14,23,58,-155,-54,39,-101,85,-54,60,35,-16,-22,-37,34,29,-350,-150,11,-4,-26,316,22,11,74,29,-116,941607
-21,-39,-23,-8,2,-16,7,-88,-45,34,-28,29,-54,-88,-9,-38,-18,-41,9,1,-498,-201,14,-4,-99,338,27,-19,64,22,-69,941608
0,-37,-10,-11,7,-12,-10,-112,-90,-73,77,-41,72,-63,-1,-47,-26,-52,-1,-15,-592,-225,5,-15,-139,373,24,-38,40,5,-74,941609
20,-31,-9,9,16,1,22,-30,5,29,1,161,-69,54,94,-20,-23,-35,8,-4,-632,-207,2,0,-128,427,50,-29,43,22,5,941610
-23,-29,-12,27,5,-23,22,202,137,156,10,129,-127,2,29,-42,-30,-42,-1,-21,-676,-210,-9,3,-159,385,39,-30,49,23,53,941611
-411,-54,59,51,-33,-272,-207,-56,91,196,-76,35,31,-85,-17,-287,27,51,178,-295,-1281,-304,40,180,-648,-550,218,68,134,144,487,941612
-1338,-120,181,84,-116,-875,-720,-443,235,-54,-526,-323,234,-204,-256,-810,208,266,672,-878,-2718,-489,196,643,-1770,-2888,693,357,429,495,1406,941613
-1683,-152,193,114,-127,-1094,-857,-589,217,87,-688,-349,242,-84,-224,-1006,265,300,902,-1070,-3242,-515,278,799,-2131,-4000,854,487,568,637,1549,941614
-1479,-157,124,128,-96,-950,-725,-438,214,23,-451,-293,32,162,-69,-887,241,223,846,-891,-2856,-376,269,710,-1791,-3819,741,478,559,586,1071,941615
-295,-94,-48,83,25,-176,-63,66,3,67,153,-24,-19,173,9,-203,58,-10,249,-98,-853,12,115,141,-284,-1217,162,163,231,176,-254,941616
151,-72,-76,27,60,107,170,14,-42,100,254,132,-160,124,-16,64,15,-46,-11,175,106,199,69,-59,269,-99,-46,50,47,-7,-352,941617
161,-53,-58,8,51,104,256,95,-42,111,311,181,-251,144,17,91,42,1,4,181,393,290,92,-21,331,3,-13,93,54,6,-242,941618
69,-43,-32,39,43,36,240,191,-37,13,52,172,-77,57,-11,-16,19,-8,27,71,385,264,66,-3,203,-198,-14,112,40,8,-181,941619
64,-31,-38,43,33,41,241,122,-31,55,129,191,151,58,-26,-28,1,-26,1,52,501,258,44,-40,224,-149,-45,76,-7,-17,-231,941620
31,-44,-51,8,18,30,116,-157,-50,-15,-73,75,-212,136,44,-13,10,-19,15,50,545,239,33,-37,228,-96,-26,75,-18,-14,-121,941621
-719,-101,28,-10,-79,-474,-450,-200,110,136,-432,-115,-63,-76,-55,-405,134,167,373,-426,-643,14,136,344,-706,-1750,369,277,191,252,839,941622
-2101,-198,219,77,-209,-1387,-1203,-621,347,171,-721,-430,44,-281,-182,-1178,385,462,1116,-1276,-3017,-360,365,1050,-2412,-5195,1079,701,675,794,2186,941623
-2386,-214,241,174,-188,-1551,-1178,-669,469,184,-636,-419,72,-286,-112,-1322,459,493,1387,-1360,-3757,-401,483,1235,-2718,-6315,1247,866,904,978,2182,941624
-1825,-190,151,183,-102,-1162,-736,-421,328,87,-389,-287,86,-155,-99,-1017,328,319,1114,-952,-3123,-295,392,942,-2016,-5306,957,702,789,782,1382,941625
-313,-114,-70,104,65,-156,110,-130,-19,124,160,47,-86,31,2,-178,48,-44,254,23,-924,23,154,132,-202,-1840,132,187,295,169,-392,941626
291,-62,-132,37,98,222,335,-49,-188,-258,354,126,-170,121,26,154,-18,-127,-121,370,-29,102,82,-161,446,-226,-152,-29,54,-106,-642,941627
210,-63,-121,9,55,143,186,-2,-204,-155,123,102,-29,243,83,123,7,-80,-113,305,-145,34,87,-105,309,-174,-103,-26,35,-98,-366,941628
161,-61,-112,-11,43,120,103,-15,-120,-171,278,200,-154,251,148,87,-14,-92,-123,244,-231,-34,58,-104,229,-116,-114,-54,1,-123,-344,941629
99,-42,-94,-2,38,87,65,44,-114,-66,126,280,-41,276,66,55,-35,-82,-101,191,-341,-62,24,-78,148,-147,-90,-52,12,-106,-289,941630
77,-21,-67,68,41,66,206,93,-89,106,26,271,-111,141,93,15,-73,-95,-90,138,-400,-92,-30,-78,88,-183,-97,-59,-15,-117,-208,941631
-482,-64,8,96,-21,-310,-35,-74,119,122,-122,-65,46,13,-107,-330,9,13,147,-269,-1252,-254,28,159,-645,-1470,154,50,97,39,455,941632
-1603,-145,166,123,-121,-1023,-687,-328,300,-65,-368,-443,213,-46,-227,-925,271,305,794,-932,-2975,-445,278,778,-1967,-4259,758,448,518,518,1595,941633
-1800,-167,171,146,-108,-1148,-752,-322,178,-38,-345,-374,150,-188,-169,-1028,319,340,975,-1005,-3330,-415,339,907,-2145,-5107,878,587,668,665,1599,941634
-1446,-162,107,159,-45,-902,-498,-303,125,-56,-178,-148,137,-193,-12,-830,264,245,858,-738,-2746,-261,313,743,-1643,-4552,727,537,611,574,1057,941635
-201,-87,-84,111,83,-88,231,12,-1,-122,72,200,-89,129,85,-107,86,-12,240,78,-647,102,175,128,-52,-1738,113,211,256,156,-315,941636
196,-68,-143,64,78,159,414,121,-79,43,231,234,-193,160,115,101,-6,-99,-85,270,214,176,62,-122,416,-603,-131,43,21,-74,-525,941637
149,-61,-120,42,69,124,350,-28,5,94,61,230,-205,161,66,87,9,-56,-73,215,353,167,70,-102,376,-555,-102,51,-7,-66,-391,941638
119,-58,-100,25,57,94,281,46,-19,71,120,156,-219,133,75,65,3,-50,-66,181,430,154,55,-95,348,-548,-83,37,-35,-47,-317,941639
163,-50,-101,24,49,117,276,55,-87,-27,128,127,-26,85,52,67,-28,-76,-108,187,555,150,12,-146,407,-379,-116,-10,-77,-80,-329,941640
218,-37,-97,25,53,165,223,13,-25,30,108,131,-82,100,91,125,-15,-47,-134,222,671,191,23,-134,483,-196,-113,0,-65,-57,-300,941641
-371,-81,-9,-12,-32,-218,-201,-59,-65,104,-182,14,62,80,77,-188,112,114,156,-149,-262,42,109,189,-257,-1495,219,171,121,170,469,941642
-1443,-156,162,51,-115,-905,-722,-143,146,135,-635,-268,160,-75,-104,-811,261,297,710,-824,-2083,-296,236,699,-1562,-4106,727,454,452,545,1450,941643
-1650,-180,158,116,-99,-1033,-701,-92,189,35,-98,-321,160,-101,-157,-960,244,253,842,-932,-2591,-379,258,747,-1779,-4864,764,502,536,588,1328,941644
-1223,-144,66,148,-45,-749,-384,-76,76,-41,-119,-152,46,-32,-75,-702,187,151,654,-597,-2055,-237,236,533,-1218,-4061,539,401,459,441,736,941645
-116,-67,-108,88,63,-29,186,-27,-90,73,34,158,-24,243,97,-11,91,-10,156,186,-398,111,168,77,155,-1514,78,146,216,110,-275,941646
249,-44,-129,38,79,194,308,215,-58,-130,145,192,-85,306,146,200,35,-56,-59,398,168,187,117,-73,533,-486,-82,29,74,-57,-442,941647
184,-37,-102,32,60,145,265,177,-56,13,218,178,-140,130,171,142,24,-36,-57,314,53,152,80,-54,384,-531,-73,15,51,-71,-313,941648
185,-29,-71,22,76,154,274,293,61,132,162,261,-195,-56,151,119,-1,-51,-87,283,15,136,41,-78,342,-475,-105,-29,8,-112,-303,941649
167,-42,-61,2,71,145,207,85,8,31,105,234,-11,77,42,80,-32,-79,-140,230,-27,115,0,-119,276,-460,-140,-87,-35,-151,-320,941650
145,-50,-60,-11,61,126,88,160,-103,20,171,128,-117,122,26,54,-42,-87,-161,186,-62,98,-24,-131,219,-482,-158,-110,-52,-162,-295,941651
11,-46,-43,-9,25,31,-14,9,8,-57,-93,39,-243,128,67,7,5,-25,-63,115,-199,85,12,-46,69,-719,-55,-48,-7,-91,-59,941652
-223,-48,-23,24,-14,-132,-62,-34,19,138,6,32,-66,87,63,-76,104,90,119,13,-478,75,95,127,-169,-1212,124,90,126,58,245,941653
-289,-54,-23,31,-28,-176,-22,-63,12,57,-27,5,-110,-9,128,-109,91,81,140,-32,-539,22,107,143,-213,-1353,127,110,131,74,199,941654
-205,-61,-37,25,-12,-115,40,-60,-57,-90,441,50,-14,-89,25,-100,34,20,59,-21,-384,-8,65,56,-122,-1194,43,50,65,20,35,941655
-18,-53,-59,16,22,14,133,11,-38,74,308,-56,1,74,36,-11,-13,-58,-29,74,-49,-4,14,-60,105,-780,-70,-10,-8,-43,-124,941656
46,-50,-70,14,26,53,140,-43,-61,91,227,-2,54,135,90,-3,-42,-85,-105,77,111,-40,-25,-111,173,-609,-111,-49,-72,-81,-198,941657
99,-25,-52,25,47,88,151,96,100,142,34,66,121,-12,97,38,-26,-67,-108,108,263,-40,-20,-102,251,-465,-89,-28,-74,-50,-194,941658
99,-19,-57,18,33,88,164,176,82,65,-72,28,59,-44,70,62,-13,-49,-90,117,332,-59,-17,-93,286,-382,-65,-29,-79,-24,-182,941659
104,-11,-49,18,37,97,162,96,12,96,-70,10,45,15,59,52,-28,-58,-104,100,355,-61,-32,-110,292,-354,-85,-43,-90,-31,-127,941660
123,-6,-56,11,38,110,103,49,5,51,118,36,45,48,-32,56,-22,-48,-129,107,392,-20,-18,-119,330,-296,-91,-46,-85,-44,-106,941661
214,-4,-73,-9,42,167,117,-86,-76,42,133,70,35,155,52,137,-8,-35,-134,200,546,58,-8,-119,473,-20,-92,-38,-83,-42,-243,941662
179,-19,-61,-34,17,145,121,-24,-16,119,273,28,-88,93,-6,131,-12,-34,-142,187,488,61,-22,-114,422,-24,-91,-54,-88,-49,-209,941663
152,-32,-80,-51,-7,120,135,132,3,156,53,122,-167,197,-4,123,2,-25,-119,179,427,70,6,-100,399,-21,-88,-41,-70,-45,-181,941664
184,0,-54,-11,16,146,144,125,-60,34,-157,78,-25,78,63,130,-14,-36,-113,198,413,86,7,-115,425,67,-96,-49,-84,-82,-232,941665
50,-8,-42,-25,-5,67,15,70,-31,-92,-101,81,7,54,115,82,1,-10,-30,132,200,66,-2,-30,271,-192,-30,-19,-37,-46,40,941666
-33,-16,-23,-23,-3,8,-20,112,48,82,77,36,76,41,46,28,12,4,0,72,12,56,-3,9,146,-416,5,-14,0,-15,63,941667
23,0,-8,-3,19,41,50,129,42,128,126,50,-12,18,27,62,30,24,23,97,20,112,25,26,179,-380,16,16,19,-4,-12,941668
26,-1,-19,3,14,34,66,22,7,151,63,-21,-145,129,3,54,24,7,-1,100,-4,106,20,-1,171,-388,-19,-12,11,-23,5,941669
20,-3,-25,-3,-1,29,64,23,45,-10,92,-40,-1,110,17,25,-23,-37,-58,79,-18,72,-34,-44,141,-381,-62,-75,-40,-80,-59,941670
18,-14,-28,-17,-7,34,-4,-54,-45,2,60,58,-59,128,74,44,2,-5,-27,101,-8,87,-13,-19,145,-357,-19,-43,-13,-55,-48,941671
216,-14,-76,-52,-2,151,71,5,-36,-141,87,33,-127,175,83,176,-10,-39,-96,239,335,152,-9,-107,409,148,-103,-68,-48,-97,-316,941672
726,42,-132,-58,53,473,386,188,-147,45,350,142,-89,236,127,472,-93,-141,-338,559,1168,285,-77,-341,1022,1403,-354,-200,-204,-279,-768,941673
799,73,-123,-49,71,522,444,263,-50,90,276,114,-81,41,142,534,-69,-93,-361,603,1333,308,-67,-343,1097,1709,-347,-198,-220,-271,-701,941674
652,59,-109,-75,34,404,355,149,-78,83,-2,118,-224,144,73,441,-50,-47,-326,476,1173,223,-71,-284,904,1524,-281,-183,-208,-221,-482,941675
154,41,-28,-67,-20,87,50,29,6,109,-167,-1,-147,136,32,158,32,65,-69,149,434,83,-5,-37,278,413,-28,-30,-57,-32,162,941676
-46,19,-20,-37,-33,-37,-101,65,64,-182,-184,-65,-89,38,-31,14,19,52,2,9,152,-17,-4,-1,37,-84,12,-21,-20,12,125,941677
-49,21,-14,-24,-16,-26,-126,69,-32,-117,12,-93,44,-9,3,26,17,43,-3,7,185,-19,-18,-6,65,-112,5,-20,-27,22,26,941678
-25,5,-17,-69,-31,-4,-117,-25,1,-23,-32,-99,19,121,37,68,38,58,-4,48,274,23,-1,13,131,-59,16,6,-4,44,13,941679
-9,10,-19,-51,-11,9,-131,148,-6,-84,-277,-34,35,-43,33,58,49,49,30,58,287,28,26,32,152,-87,32,42,12,58,5,941680
21,14,-22,-37,16,22,-132,141,-76,-91,-216,38,80,-164,-38,44,20,22,13,56,314,18,6,3,165,-55,2,22,-26,31,-39,941681
430,32,-79,-47,51,294,134,22,-120,-177,90,130,-36,11,-22,267,-47,-73,-195,317,943,135,-43,-210,686,912,-223,-108,-139,-128,-522,941682
998,82,-139,-61,89,659,512,20,-124,-202,412,276,-23,110,115,601,-148,-177,-526,672,1833,282,-143,-502,1369,2360,-505,-318,-348,-354,-1034,941683
1179,118,-145,-77,97,767,599,134,-220,59,205,299,-104,306,67,682,-221,-226,-698,730,2102,288,-232,-625,1528,2962,-605,-449,-473,-477,-1120,941684
944,111,-106,-86,62,599,432,224,-191,121,417,190,-186,226,-3,517,-233,-221,-645,507,1690,158,-274,-555,1171,2559,-526,-448,-470,-452,-791,941685
143,53,28,-56,-20,94,-41,205,22,13,10,-14,-176,-106,-73,72,-80,-21,-197,-1,394,-38,-146,-106,189,755,-73,-174,-196,-122,196,941686
-116,37,82,-4,-15,-67,-149,112,80,66,-6,-76,10,-85,-53,-60,15,58,42,-135,-109,-56,-41,74,-112,-31,102,-25,-23,49,332,941687
-81,47,68,19,-8,-33,-71,106,89,-22,-60,-46,90,-18,-34,-72,-26,-8,-12,-141,-143,-99,-71,-9,-88,-56,-2,-77,-68,-28,165,941688
-96,41,50,25,-17,-42,-45,-43,66,-54,-139,-101,156,-61,-77,-54,-9,14,53,-116,-189,-77,-40,37,-80,-141,38,-16,-16,12,218,941689
-65,33,43,7,-17,-41,-26,-132,42,-41,-20,-230,57,-19,-117,-36,10,28,58,-72,-161,-50,-16,37,-36,-122,43,-3,1,31,141,941690
