20,-1,-13,-34,4,2,22,136,69,-99,67,6,67,-46,14,15,-19,-22,-44,38,54,10,1,-41,56,-223,-49,-69,-56,-53,-110,592696
33,3,-4,-21,-1,13,43,-46,-20,-121,-17,5,-6,28,33,57,5,10,-26,91,128,48,11,-24,121,-126,-28,-44,-35,-17,-75,592697
5,-4,-13,-11,3,3,-15,-110,-72,-109,16,49,-56,-116,30,45,7,8,-5,74,109,51,13,-9,113,-151,-28,-18,-17,-20,-165,592698
12,-9,-22,-4,4,6,-32,-3,-113,-57,126,28,-30,-61,18,16,-13,-29,-25,34,80,17,-17,-30,79,-178,-59,-45,-54,-45,-64,592699
25,1,-21,13,5,-4,26,34,90,-161,-15,71,28,-137,32,24,4,-23,-4,51,100,32,5,2,104,-156,-34,-16,-41,-19,-40,592700
33,15,-3,11,0,0,55,-130,105,81,22,127,113,-29,50,27,7,-11,6,59,126,43,8,16,115,-152,-15,-1,-19,-8,-16,592701
36,-3,-14,-10,2,-12,31,-17,-20,51,309,67,49,15,10,28,-5,-7,-12,55,120,46,2,9,106,-172,-22,-6,-16,-8,-9,592702
86,0,-45,-17,-4,-13,97,-10,-174,39,349,28,-12,-3,-4,94,-17,-15,-57,117,277,96,-4,-44,237,81,-68,-38,-43,-39,-152,592703
136,12,-53,-17,-5,-6,167,99,-145,79,-143,120,42,9,35,148,-25,-35,-123,163,419,132,-19,-90,333,328,-109,-74,-84,-74,-202,592704
156,20,-46,-13,16,7,162,67,53,132,-75,59,-67,-37,55,167,-7,-11,-144,181,452,152,-14,-90,342,411,-103,-81,-87,-65,-211,592705
92,13,-27,-13,4,-1,104,11,51,-49,38,-39,-143,5,23,125,-1,1,-81,136,335,112,0,-48,229,261,-57,-49,-60,-38,17,592706
-30,1,-10,-16,-23,-26,-24,41,-40,32,-109,39,-127,-69,-14,19,24,37,8,17,43,15,4,39,5,-170,23,-2,-1,19,97,592707
5,-5,-25,-24,-27,-19,30,-10,-98,-12,-66,53,-169,-19,8,26,-28,-9,-89,31,88,-15,-35,-32,68,-63,-46,-67,-44,-35,-78,592708
9,16,3,4,-2,-4,-9,-44,-24,-59,-14,-104,6,-72,-68,1,-21,-3,-59,-2,-1,-42,-18,-20,13,-186,-27,-51,-28,-37,36,592709
59,26,18,20,27,20,-17,-19,39,-137,98,-75,34,-40,-75,16,-29,-16,-62,3,12,-52,-13,-30,41,-145,-49,-61,-39,-31,-31,592710
61,10,21,12,23,34,-2,102,64,48,-11,45,22,-89,41,21,-19,-2,-52,14,19,-55,-7,-21,37,-124,-41,-56,-31,-18,23,592711
27,8,27,9,8,17,-15,105,149,177,41,116,196,-75,53,-11,14,31,-13,-4,-35,-52,32,21,2,-213,1,-16,-4,6,82,592712
118,9,-13,-15,-4,2,70,36,-67,79,209,88,73,20,-1,81,-26,-39,-139,89,259,14,-20,-106,225,209,-122,-104,-98,-84,-172,592713
173,14,-46,-37,-3,3,112,-69,-153,-57,192,70,-84,95,20,161,-59,-61,-204,157,495,80,-60,-164,360,561,-186,-151,-146,-127,-286,592714
148,7,-55,-50,-7,-7,37,47,-80,-97,-115,137,-195,6,-42,174,-50,-45,-169,156,512,111,-42,-142,361,612,-151,-110,-125,-101,-318,592715
81,4,-24,-52,-8,3,-73,148,-139,31,-49,31,-57,-17,-32,108,-52,-36,-114,68,365,71,-38,-100,228,410,-106,-97,-102,-81,-151,592716
-5,2,20,-16,-3,-3,-158,68,-50,40,-37,-59,-73,217,53,24,15,35,16,10,108,38,12,33,23,-16,31,-9,7,23,108,592717
-7,10,28,-3,-8,-13,-52,-66,97,-33,170,0,-159,46,73,53,62,78,102,56,112,90,67,103,48,-80,97,69,100,90,119,592718
2,10,6,11,-15,-4,64,87,45,-9,43,-35,8,31,24,34,26,35,57,49,123,87,27,60,64,-69,35,28,56,47,78,592719
19,30,1,31,11,6,90,60,122,1,47,-67,32,-57,6,-30,-45,-50,-31,-9,89,20,-46,-41,23,-89,-60,-61,-38,-59,-21,592720
-15,12,-14,13,-8,-12,47,-52,-33,-101,23,-102,-161,101,-52,-34,-44,-41,-60,-20,52,-3,-60,-46,-9,-134,-61,-76,-42,-64,-76,592721
-23,6,-5,0,-15,-23,47,-103,54,32,110,-66,-74,148,-31,10,2,2,-18,13,90,37,-9,-6,34,-103,-12,-35,-4,-17,5,592722
30,2,-20,-14,-5,-30,117,52,22,79,-78,113,64,222,-23,73,-12,-13,-64,72,240,79,-28,-46,169,139,-61,-61,-37,-39,-104,592723
164,18,-56,-11,10,-14,235,-70,-32,77,22,77,66,158,21,170,-83,-76,-217,166,559,116,-104,-192,401,648,-197,-158,-142,-149,-369,592724
193,36,-39,1,33,20,219,66,-112,-77,174,-8,164,-35,9,165,-96,-78,-228,141,576,86,-113,-197,387,713,-200,-176,-164,-163,-284,592725
117,6,-10,-7,22,27,105,-131,-20,-78,-41,-65,194,-198,-41,89,-82,-50,-176,49,355,23,-102,-129,204,450,-135,-145,-135,-119,-144,592726
2,9,42,13,-1,26,-19,-250,89,-39,-134,-17,95,-291,-118,-13,-39,4,-49,-44,31,-40,-58,-2,-27,-15,-6,-66,-36,-21,104,592727
-2,13,28,19,-5,13,13,0,51,16,-52,-43,81,-229,-28,-16,-60,-32,-85,-36,29,-48,-69,-36,10,11,-34,-87,-47,-36,-2,592728
-27,8,32,8,-6,20,-1,45,-46,-102,113,-85,-104,-117,22,-32,-40,-17,-66,-64,-47,-63,-47,-9,-33,-95,-20,-72,-33,-17,44,592729
14,13,38,10,-1,13,45,71,-52,-86,249,-60,151,-81,6,4,-26,0,-64,-34,-8,-53,-42,-14,0,-30,-15,-66,-22,1,33,592730
-22,0,3,-7,-27,-19,11,1,-10,-218,-3,-53,-52,80,-8,-38,-78,-46,-105,-71,-49,-92,-93,-49,-62,-67,-49,-110,-55,-31,-31,592731
-51,-6,-8,-3,-24,-29,12,-19,-27,6,-81,-15,30,29,-4,-15,-64,-44,-44,-58,-45,-84,-59,-15,-56,-84,-26,-64,-30,-11,-24,592732
101,8,-54,-12,-12,-27,238,38,5,29,169,71,-95,72,29,196,-42,-62,-110,166,447,80,-36,-113,347,622,-112,-81,-74,-64,-335,592733
154,14,-83,-38,-29,-33,313,265,-56,13,127,44,-113,151,29,244,-47,-79,-213,219,662,131,-33,-171,463,950,-176,-135,-136,-121,-358,592734
215,26,-67,-30,3,7,322,225,-22,-145,72,147,-205,125,9,243,-34,-49,-238,224,704,149,-39,-175,471,1022,-175,-139,-149,-134,-289,592735
172,27,-1,4,28,43,189,24,82,-46,-17,87,-7,-150,-3,162,-21,-13,-145,113,473,104,-48,-95,273,690,-111,-95,-93,-71,-43,592736
17,-10,16,-2,-7,1,-5,7,31,55,-75,-139,-39,-173,-107,-12,-22,-5,-55,-53,70,-8,-64,-12,-42,84,-24,-59,-38,-27,109,592737
-4,12,24,8,-18,-11,24,-39,106,172,163,-112,-11,-71,10,2,-20,-15,-35,-25,73,16,-62,5,-19,57,-6,-33,-6,-12,76,592738
6,16,17,-5,-13,-10,14,1,121,-115,226,-40,-38,-20,9,7,-44,-34,-68,-15,112,8,-76,-28,15,104,-27,-65,-31,-40,41,592739
-22,-14,0,-29,-27,-20,-67,-7,-23,-70,152,-59,-112,19,-44,-32,-74,-71,-93,-59,52,-23,-98,-57,-48,20,-62,-103,-65,-72,-9,592740
-34,-13,1,-34,-19,-24,-74,-283,28,-34,-177,-53,-42,38,-45,-14,-34,-28,-48,-37,30,6,-41,-11,-47,-7,-29,-50,-22,-39,38,592741
-13,-7,9,-7,-9,-5,-37,22,-31,32,-158,41,28,122,13,12,-29,-43,-33,-18,61,15,-13,7,-8,30,-12,-23,-9,-29,-15,592742
150,18,-38,1,20,18,127,274,-36,13,205,-50,102,-172,12,129,-102,-145,-201,111,445,64,-105,-168,306,611,-172,-155,-132,-146,-355,592743
265,28,-57,-23,35,23,262,127,-35,-167,270,2,131,-179,57,250,-107,-137,-300,235,801,148,-123,-254,574,1204,-251,-202,-207,-197,-414,592744
222,11,-55,-48,1,-1,248,225,-105,-4,168,-67,102,75,39,244,-76,-94,-239,201,783,156,-107,-192,524,1210,-199,-148,-175,-155,-290,592745
114,11,-9,-34,-9,-5,105,137,-5,35,-102,24,72,62,63,139,-80,-62,-170,71,484,61,-122,-107,274,811,-115,-117,-137,-108,-173,592746
-23,0,46,-14,-10,11,-102,244,-58,45,-315,-79,-17,-80,0,-23,-37,-4,-47,-92,35,-56,-90,14,-68,150,5,-40,-49,-10,102,592747
0,3,42,8,-3,11,-70,3,-49,203,-164,-51,103,38,-115,4,-14,12,-36,-57,39,-33,-52,19,-27,149,15,-17,-17,14,134,592748
-39,-20,34,-17,-14,-5,-112,-210,73,108,55,-58,60,-86,-103,-40,8,-4,-26,-93,-45,-56,-27,35,-86,29,20,3,0,21,122,592749
-67,-27,25,-31,-24,-6,-113,-51,55,-51,152,1,13,-277,-61,-64,16,8,43,-95,-79,-49,4,68,-91,-39,41,42,43,41,158,592750
-53,-33,8,-31,-26,-19,-75,-199,30,36,60,-48,-4,-227,-50,-17,63,46,93,-44,-25,2,63,108,-34,9,78,82,94,82,156,592751
-46,-13,8,-16,-23,-17,-71,-99,-2,103,-32,-113,-24,-143,-18,-23,61,50,65,-49,-53,-8,55,105,-58,-36,77,64,76,76,102,592752
35,22,3,0,14,14,59,139,4,103,44,37,127,-162,55,46,16,5,-3,26,128,24,11,32,87,231,8,19,27,31,-72,592753
65,1,-29,-30,3,15,105,177,-27,-13,91,42,118,68,-7,71,-49,-53,-98,39,252,27,-43,-63,166,436,-74,-59,-63,-45,-163,592754
61,18,12,-1,12,28,114,-72,-14,73,12,30,84,104,53,68,-44,-39,-108,36,248,25,-64,-59,143,432,-66,-68,-74,-43,-108,592755
-10,-1,11,-10,-11,5,43,-67,-88,119,114,-7,-169,-161,0,14,-23,-17,-56,-7,129,-9,-38,-32,47,256,-38,-36,-55,-24,7,592756
-62,-3,17,9,-12,-3,10,65,-55,148,108,-2,-15,-268,-6,-43,-25,-28,-20,-67,6,-45,-34,-1,-40,71,-24,-14,-24,-15,49,592757
-49,-9,14,-2,-20,1,5,13,-43,105,-1,-6,171,-84,-27,-35,-30,0,6,-42,-8,-29,-40,33,-49,20,8,-6,-1,10,86,592758
-29,-15,14,-32,-19,2,-30,18,-50,49,63,57,48,47,-30,6,9,38,22,0,32,8,0,52,-10,61,40,18,33,24,16,592759
-14,-23,24,-49,-4,24,-93,22,-74,27,-119,-50,43,-38,-23,-1,26,23,-1,-8,22,4,13,40,-19,14,31,3,31,17,-5,592760
16,-34,10,-40,8,29,-107,113,16,-1,-157,-18,-17,-179,-27,-17,-35,-36,-73,-42,23,-21,-43,-29,-27,37,-45,-62,-45,-41,-28,592761
26,-11,14,-7,5,27,-57,157,14,9,-136,29,-155,-124,-32,0,-35,-26,-76,-13,58,-8,-47,-29,-8,107,-48,-59,-47,-37,-76,592762
37,19,29,19,12,28,34,-45,35,105,59,-35,-81,26,31,40,-21,3,-14,24,124,31,-34,1,56,195,-12,-10,-6,-5,-39,592763
54,16,25,0,13,27,62,99,84,59,290,-10,-39,-105,35,73,-32,-20,-42,39,186,24,-44,-30,87,289,-28,-32,-39,-23,-194,592764
74,15,-1,-8,6,17,62,59,-4,49,404,24,81,-249,46,83,-45,-43,-93,60,267,26,-48,-74,137,437,-69,-67,-80,-64,-193,592765
69,20,-6,-8,6,0,43,3,56,11,144,38,31,-66,75,89,-17,-8,-50,57,243,20,2,-37,144,428,-42,-29,-50,-39,-128,592766
5,6,15,0,9,-6,-35,21,38,48,-79,-37,49,29,-5,22,12,21,38,-14,69,-16,39,27,65,179,3,34,1,-2,10,592767
-8,-2,10,-13,-4,-3,-57,120,0,41,137,-61,21,-67,15,0,5,11,30,-27,23,-19,31,47,91,120,11,49,26,4,67,592768
6,-6,0,-29,-8,-1,-25,111,72,92,-16,55,122,-80,-16,5,-28,-21,-9,-12,65,3,-5,21,155,189,-6,22,3,-5,5,592769
14,4,16,-12,2,9,10,152,59,116,-43,100,66,-53,-13,46,2,10,10,31,106,50,8,44,198,222,28,42,29,16,11,592770
26,10,6,-13,-9,-9,27,57,51,124,166,61,201,-56,30,69,11,4,-31,44,168,56,-5,12,262,313,5,9,3,-8,48,592771
46,24,2,-3,-2,-6,38,-31,-105,13,125,-49,65,10,72,79,17,21,-12,52,189,68,-11,18,281,337,2,21,14,2,47,592772
102,18,-34,0,14,12,148,17,-98,-58,32,74,-76,87,67,147,-27,-18,-84,134,395,107,-41,-52,437,657,-72,-21,-33,-39,-184,592773
225,33,-63,-19,23,18,318,217,-102,-159,93,128,-260,-11,-29,255,-112,-122,-259,234,769,142,-114,-237,705,1280,-243,-164,-191,-176,-499,592774
180,47,-38,-7,15,-1,293,207,-125,-156,52,70,-41,-91,69,230,-81,-96,-192,189,718,122,-87,-192,620,1228,-198,-138,-177,-156,-363,592775
80,43,-19,1,-5,-24,159,24,-18,71,-226,49,-4,-92,-7,136,-28,-17,-92,90,450,66,-43,-75,378,826,-71,-54,-98,-70,-48,592776
-54,14,0,-23,-33,-50,-44,-45,76,82,-174,6,29,29,-93,-23,4,27,-9,-81,21,-57,-19,35,37,201,32,-13,-33,0,73,592777
-40,10,3,-18,-31,-29,-56,-156,62,100,-20,-10,188,64,-74,-39,4,22,-13,-88,-42,-73,-26,16,0,114,14,-30,-38,-3,120,592778
13,24,34,5,14,10,-27,2,84,132,-155,29,133,-5,21,16,9,31,16,-23,35,-19,2,24,61,201,30,5,4,23,62,592779
27,17,32,-5,6,20,-33,-75,-77,104,-112,91,12,236,15,60,22,53,41,22,102,15,19,45,108,273,51,33,33,43,112,592780
-13,2,29,-11,-12,6,-85,139,-53,-37,22,33,0,3,-66,18,25,51,53,-29,1,-25,15,63,25,127,71,41,38,55,157,592781
-6,-4,12,-12,-14,6,-58,-173,-11,-132,-288,61,70,-93,-72,-3,13,21,36,-38,-3,-41,16,21,39,144,22,17,13,16,56,592782
126,21,-6,-10,15,37,134,-90,35,-81,-113,100,76,-47,-8,147,-16,-28,-80,114,374,48,9,-99,325,690,-95,-57,-76,-71,-233,592783
265,32,-63,-41,15,22,349,152,-111,-158,250,204,112,183,56,336,-98,-129,-285,279,884,160,-84,-287,726,1497,-272,-182,-219,-200,-597,592784
297,45,-69,-70,6,19,388,334,-216,-170,61,179,-24,174,35,378,-138,-151,-357,304,1071,196,-140,-341,863,1824,-326,-230,-282,-247,-588,592785
173,33,-37,-79,-15,-13,190,155,-54,42,2,103,-90,36,-26,252,-92,-81,-293,168,787,116,-120,-229,611,1442,-226,-184,-232,-191,-295,592786
-67,5,21,-43,-38,-29,-123,-30,129,45,29,-48,85,-85,-34,1,7,34,-39,-65,92,-38,-14,22,79,440,16,-26,-58,-21,226,592787
-44,27,41,-12,-6,-5,-118,177,136,135,21,-35,297,-38,-60,-14,22,41,53,-57,36,-38,7,54,75,329,53,18,-11,25,190,592788
-52,5,33,-18,-12,-9,-115,57,92,36,-57,4,-47,139,-60,-33,5,30,65,-67,-3,-43,-10,65,62,266,52,22,-8,33,106,592789
-73,-3,17,-21,-26,-18,-105,-138,12,-24,-117,-61,-205,110,-3,-8,41,43,85,-32,-6,8,28,82,101,226,63,55,31,56,82,592790
-34,23,29,-1,-4,-11,-56,-189,41,-29,-7,-26,-30,183,24,57,74,68,99,29,77,55,61,102,195,321,80,93,63,82,96,592791
-37,0,-3,-22,-10,-15,-57,-134,0,-100,129,-35,-160,7,-47,43,39,31,56,23,68,41,24,57,205,327,35,48,32,47,-6,592792
227,25,-60,-26,22,19,263,15,-55,0,224,152,-158,41,16,261,-93,-115,-218,244,715,162,-92,-224,710,1331,-233,-157,-163,-152,-550,592793
461,50,-90,-50,35,34,527,408,-113,-28,363,231,82,12,92,492,-193,-201,-483,441,1386,282,-199,-477,1179,2415,-452,-334,-363,-334,-945,592794
418,47,-87,-66,13,9,502,224,-52,-13,497,67,159,38,105,510,-177,-166,-485,416,1435,268,-200,-439,1155,2549,-417,-325,-377,-320,-795,592795
234,44,-28,-55,-12,-9,274,-76,11,-245,296,2,213,58,31,342,-89,-53,-285,239,979,164,-125,-224,750,1899,-213,-179,-253,-178,-384,592796
-80,23,60,-37,-37,-21,-138,-320,75,-175,-174,-203,274,-193,-62,6,1,57,20,-112,61,-62,-42,59,16,556,54,4,-55,18,180,592797
-111,20,72,-8,-15,-9,-192,-81,-14,-121,-388,-207,96,-183,-65,-34,33,62,94,-147,-117,-95,-2,97,-88,267,95,33,1,69,229,592798
-90,27,66,10,-10,-17,-180,-35,-76,-96,-129,-77,84,-181,-38,-4,41,72,101,-102,-89,-67,17,91,-54,275,100,49,26,74,175,592799
-89,14,51,12,-25,-35,-141,-132,-3,-132,328,-61,113,-157,-32,-12,44,74,85,-93,-96,-48,28,84,-37,241,94,53,41,84,123,592800
-51,25,53,26,-5,-12,-71,-1,92,6,336,-50,161,-73,45,-2,34,51,74,-60,-32,-37,36,62,28,315,67,51,36,66,141,592801
-17,8,21,-13,-10,-11,-48,82,69,-240,-36,-127,-96,-121,-1,18,3,21,48,-36,53,-33,1,29,105,425,29,32,23,33,73,592802
370,31,-88,-69,28,27,386,305,5,-181,227,88,-285,148,76,409,-108,-124,-305,366,1074,227,-96,-312,931,1967,-316,-191,-200,-203,-848,592803
680,79,-151,-102,54,40,793,534,-214,-162,328,234,-258,327,171,791,-224,-254,-670,701,2127,465,-200,-633,1700,3624,-636,-422,-487,-453,-1402,592804
720,101,-171,-124,36,11,870,466,-166,-208,483,312,-137,219,144,905,-260,-269,-809,769,2497,509,-275,-718,1927,4306,-711,-518,-621,-539,-1451,592805
400,97,-67,-111,-19,-23,438,329,-113,-53,303,134,-64,-19,-24,582,-164,-136,-568,414,1722,284,-220,-420,1266,3264,-425,-366,-481,-371,-640,592806
69,-11,-32,-41,-15,-19,52,83,-13,90,19,81,55,59,6,111,-6,17,-28,75,273,78,11,-27,76,220,-35,-38,-47,-1,-99,634708
90,-3,-29,-26,-6,-14,79,131,14,139,-51,-70,59,33,0,137,-10,-2,-56,104,343,94,-10,-62,138,364,-58,-59,-66,-28,-129,634709
208,17,-68,-30,16,5,206,229,32,66,122,-14,-60,120,-8,233,-65,-67,-195,210,655,156,-72,-190,378,891,-184,-155,-167,-120,-372,634710
209,35,-65,-30,13,9,234,164,-149,-74,-29,89,14,87,12,257,-90,-88,-248,228,754,170,-97,-219,436,1114,-214,-186,-201,-150,-463,634711
107,20,-25,-34,-4,16,115,157,-108,83,-38,-35,35,128,-36,145,-74,-59,-195,106,501,90,-89,-153,237,798,-147,-147,-149,-122,-216,634712
-22,19,45,-11,0,15,-59,-55,91,111,-31,-68,90,135,25,4,8,31,5,-42,49,-8,-9,29,-74,126,27,-7,1,16,178,634713
-11,19,37,-12,-6,0,-24,-65,144,-23,-150,-38,85,-105,-9,29,19,32,33,-14,60,8,22,36,-37,152,41,3,30,31,127,634714
-56,-3,17,-20,-34,-39,-56,-291,21,7,-79,-1,112,-89,-29,-17,-5,14,18,-53,-22,-43,-2,34,-107,48,32,-12,2,10,118,634715
-45,5,28,3,-16,-21,-43,-290,26,-129,126,17,12,-66,-15,-11,10,24,47,-39,-51,-36,12,47,-103,-3,51,4,17,19,114,634716
-8,11,15,24,-4,-14,-22,-30,2,-204,62,-77,-167,-25,-26,9,-6,0,18,-11,1,-20,12,16,-49,85,24,-24,5,-2,46,634717
-22,9,11,23,-4,-24,-32,-122,-210,-117,-36,-14,-122,-28,-62,2,-12,-2,17,-15,-16,-11,2,12,-67,56,24,-26,5,-4,-32,634718
54,23,3,24,2,-5,93,-34,-71,-12,122,-43,-223,-18,-3,78,-26,-30,-53,62,186,44,-16,-63,95,360,-54,-75,-52,-46,-114,634719
162,39,-25,15,17,5,230,93,-8,39,-210,65,-7,6,9,193,-75,-72,-190,161,521,103,-66,-187,321,871,-164,-174,-159,-134,-225,634720
170,15,-33,-27,3,0,235,176,-73,-72,-6,99,-28,-128,-20,176,-88,-77,-218,151,570,97,-91,-210,330,971,-181,-187,-196,-161,-295,634721
128,-2,-12,-42,-3,16,154,315,21,104,91,-32,52,-169,-7,114,-74,-60,-169,68,413,61,-87,-162,205,757,-139,-150,-169,-131,-181,634722
-10,-5,36,-21,-13,-12,-35,-84,-10,212,43,-55,-33,-147,-35,-6,-7,34,11,-59,42,-2,-11,18,-82,137,23,-16,-20,5,98,634723
-15,-6,13,-18,-15,-32,-63,-103,-70,49,137,-5,66,-74,-60,2,4,37,43,-39,56,22,-2,35,-57,82,28,15,5,39,74,634724
-3,-26,-8,-34,-25,-15,-78,-25,-50,-99,26,0,-3,5,-51,-9,-36,-3,-7,-45,117,-3,-52,-28,-18,126,-47,-34,-43,-1,30,634725
-4,-21,0,-28,-10,-9,-95,-68,-123,42,-45,-32,-13,-98,-53,-18,-19,7,5,-65,83,-9,-26,-10,-49,23,-42,-22,-45,2,55,634726
34,2,19,-13,14,18,-32,48,-113,-90,-191,52,147,-36,-35,39,10,23,15,0,180,50,-3,-15,26,127,-38,-7,-32,12,-6,634727
20,-3,-2,-34,-7,-4,-22,27,-89,-116,-21,48,131,69,-22,38,-25,5,-20,7,200,32,-34,-44,39,172,-57,-45,-58,-10,4,634728
66,12,-5,-25,8,-4,70,-168,-6,98,3,-26,118,136,35,96,-32,-8,-53,74,354,65,-32,-65,174,434,-70,-49,-67,-17,-102,634729
101,25,-23,-21,-2,-10,143,19,-65,173,113,-10,-14,105,-11,178,-31,-23,-70,133,504,102,-40,-94,293,715,-90,-66,-84,-38,-158,634730
112,29,-35,-25,-14,-21,170,42,-63,118,281,54,-168,74,-13,197,-29,-22,-102,142,537,99,-36,-117,313,852,-117,-92,-101,-58,-165,634731
52,20,-33,-33,-25,-28,130,19,-37,-95,69,18,138,101,2,157,-15,-2,-80,100,408,69,-25,-73,217,733,-76,-55,-75,-48,-15,634732
-82,15,8,-13,-32,-38,-17,-235,-66,-48,-80,-28,115,205,19,17,30,54,40,-18,15,8,-4,59,-72,200,69,28,36,45,133,634733
-71,-1,13,-11,-22,-30,-42,-199,-116,23,-53,-15,-116,150,-57,-31,-4,10,12,-51,-70,-26,-30,27,-117,124,46,-11,17,19,185,634734
-46,-13,24,-15,-6,16,-114,-219,-64,-4,-133,-38,-42,-190,-40,-94,-70,-56,-73,-110,-157,-90,-96,-37,-187,64,-16,-92,-60,-48,77,634735
-21,-13,25,-12,1,17,-123,-276,-31,84,35,-112,-8,-181,6,-84,-83,-80,-81,-107,-142,-102,-101,-65,-170,113,-34,-107,-70,-70,-12,634736
7,17,37,5,3,16,-49,-155,64,189,105,20,83,-86,36,-30,-2,-10,10,-53,-110,-46,-18,14,-128,139,45,-24,10,4,32,634737
-9,28,32,29,-6,-6,-11,10,20,219,6,-46,-11,83,22,-11,30,31,45,-29,-111,-40,20,57,-120,120,79,9,47,37,36,634738
29,32,14,34,-16,-13,62,341,-30,111,119,12,-120,147,37,28,6,7,0,26,5,-14,-1,9,-25,292,24,-8,11,6,-94,634739
92,16,-24,-2,-8,-24,148,159,-115,-88,269,-13,-208,-8,14,75,-67,-72,-119,58,231,5,-70,-120,137,636,-102,-103,-98,-92,-284,634740
113,4,-25,-15,-2,-4,162,67,-96,60,62,-41,-108,81,13,91,-79,-78,-145,59,303,11,-77,-144,189,726,-125,-115,-130,-109,-272,634741
57,15,13,-13,-8,16,90,-12,107,46,-145,-36,-93,3,-20,60,-31,-14,-54,19,191,10,-38,-60,92,497,-47,-54,-64,-52,-112,634742
-8,15,31,-11,-4,1,-13,-150,117,26,-189,-23,-23,-73,-71,19,22,41,52,-19,46,25,22,37,-5,199,31,28,22,24,61,634743
13,29,16,-14,4,6,-21,-53,41,2,-4,-1,-2,-19,-5,46,49,67,76,35,127,104,41,44,51,214,27,40,28,59,24,634744
0,5,-6,-31,-12,-7,-54,-209,-4,3,19,35,-21,61,45,39,35,58,70,30,148,109,43,37,51,165,3,26,2,46,13,634745
-43,-4,8,-24,-16,-22,-86,-139,25,157,-77,7,-213,88,8,1,48,72,114,-16,60,78,53,76,-14,-33,31,71,26,78,105,634746
-61,-7,10,-12,-18,-33,-96,-255,27,11,-193,-100,-140,-22,1,-20,63,84,140,-27,-5,67,61,105,-49,-163,48,82,49,96,122,634747
1,11,-2,-3,-10,-14,1,-12,1,-178,-55,-24,-87,199,-4,44,43,63,88,37,144,94,32,46,71,50,6,33,17,67,-3,634748
25,6,-23,-30,-19,-20,34,-6,-109,-21,86,7,-93,208,59,53,9,35,34,42,182,54,-1,-5,93,179,-36,-17,-28,20,-67,634749
59,14,-12,-23,-12,-10,45,-48,1,105,-70,6,-168,167,-10,56,-8,2,-12,45,207,47,-14,-37,110,300,-65,-35,-53,-7,-62,634750
53,17,7,-28,2,1,29,-157,45,-42,-420,-45,-118,59,58,67,-7,-7,-22,51,203,38,-15,-26,107,355,-46,-41,-49,-11,-30,634751
37,5,19,-25,0,-1,6,39,-38,87,-133,-34,-22,-96,68,56,-24,-23,-38,18,136,5,-38,-39,63,371,-34,-57,-58,-26,-2,634752
-5,12,40,3,-5,11,-66,-40,12,-56,-122,-32,4,-182,20,-36,-29,-8,8,-64,-104,-66,-34,4,-117,118,26,-44,-24,1,83,634753
7,10,43,14,1,12,-60,36,64,-196,-120,-72,28,-129,-64,-49,-23,-25,4,-73,-132,-73,-45,4,-131,111,26,-43,-25,-12,29,634754
-41,5,42,6,-13,-12,-71,93,56,-89,47,-77,84,-150,-61,-68,18,11,42,-85,-232,-87,-14,53,-197,-2,76,1,18,25,97,634755
-65,12,32,-8,-15,-23,-48,-167,103,13,1,-153,81,26,-34,-54,28,22,84,-80,-257,-87,16,78,-202,-20,111,25,60,55,104,634756
-66,6,4,-21,-18,-24,-37,20,96,-27,-131,-129,218,40,21,-41,-7,-6,44,-57,-198,-71,-17,35,-151,70,64,-2,30,16,96,634757
-63,-10,-3,-32,-23,-31,-74,55,113,-66,-41,-200,250,103,22,-53,-21,-7,21,-70,-204,-87,-24,19,-158,85,48,-18,10,0,100,634758
13,5,-2,-10,-3,-15,15,25,30,43,150,-38,83,-1,-3,18,-6,-3,10,5,-46,-26,-4,10,-30,283,40,-15,2,-2,79,634759
33,12,5,2,1,-4,38,178,26,50,253,51,-5,-4,-66,35,12,3,18,12,-13,1,4,18,-16,283,43,3,8,4,69,634760
17,-2,-6,-29,1,-2,39,120,117,12,71,27,63,111,-51,21,1,-2,15,-11,-11,-9,-18,16,-19,240,15,-14,-8,-2,-36,634761
0,8,-1,-2,10,-4,57,-178,126,54,99,57,-55,35,-17,16,14,17,31,-9,-5,5,1,21,-9,192,25,-1,2,14,-30,634762
-41,4,0,-15,-13,-21,-2,-151,62,-31,73,-17,37,32,-56,-55,-12,3,22,-55,-88,-21,-29,3,-86,20,7,-26,-28,-3,-65,634763
3,5,-6,-23,-9,-8,-12,51,16,77,-75,-43,0,3,-63,-17,-10,-1,-2,-21,27,37,-42,-20,-5,91,-41,-50,-49,-15,-43,634764
42,10,-9,-37,1,4,-41,155,-39,98,48,-106,-11,9,39,49,10,14,-14,33,178,106,-2,-37,97,222,-45,-45,-54,-4,-96,634765
42,-5,-1,-64,9,24,-78,20,58,-64,66,-3,79,72,-32,59,2,17,-15,55,229,124,2,-38,137,246,-60,-30,-59,-1,-169,634766
33,4,14,-58,17,25,-92,31,32,-118,-137,36,-119,234,26,52,14,37,3,38,209,114,0,-14,132,189,-53,-10,-37,15,-49,634767
38,19,12,-14,17,17,-6,113,-12,-38,-150,49,-37,198,50,61,34,45,41,49,196,120,15,19,151,162,-25,26,-5,43,31,634768
-14,31,21,17,3,-10,15,161,-40,-72,-198,36,0,-1,-26,-5,32,39,69,-14,35,61,23,39,30,-12,9,33,6,51,40,634769
6,29,17,29,16,-6,53,-43,-50,-238,-14,22,-97,144,37,5,10,8,25,4,42,33,4,12,48,51,-31,3,-11,23,-53,634770
16,10,-6,-5,3,-2,47,-118,-12,-87,-202,-57,3,-49,50,2,-18,-22,-32,0,52,7,-33,-24,62,164,-52,-37,-50,-24,-35,634771
-7,-2,-6,-26,-13,-18,-23,62,125,69,-193,-39,-92,-107,19,-58,-53,-53,-55,-72,-65,-70,-78,-44,-45,80,-47,-75,-84,-48,-16,634772
-50,0,16,-8,-16,-19,-62,-61,69,-92,-68,8,-26,-215,-50,-116,-47,-43,-15,-122,-222,-121,-75,0,-173,-90,5,-52,-42,-22,39,634773
13,16,13,18,1,-10,5,62,76,162,116,54,120,-188,16,-28,-28,-23,-16,-26,-102,-50,-36,-3,-72,132,7,-32,-21,-21,-3,634774
-7,34,28,39,14,1,31,233,162,22,17,102,161,103,52,0,30,21,56,4,-123,-18,23,63,-79,105,82,31,38,31,67,634775
-49,8,6,10,-13,-22,26,100,119,-74,-172,7,19,193,8,-17,26,6,49,-19,-156,-21,12,49,-100,110,72,14,27,25,96,634776
-38,8,27,2,-4,12,14,-32,30,-30,41,56,15,239,48,-13,20,18,36,-16,-164,-26,3,54,-101,116,73,7,35,24,36,634777
-23,-4,21,-17,-12,17,-9,95,22,-76,-97,82,112,-42,13,-27,-9,-18,0,-39,-165,-55,-30,34,-112,104,43,-18,2,-3,17,634778
-23,-12,15,-21,-3,15,-43,32,-29,-82,-255,-18,200,-10,-79,-61,-25,-31,13,-64,-195,-75,-25,33,-147,44,37,-31,-12,-7,28,634779
4,-1,19,-10,19,18,-21,-194,-7,132,-110,45,153,-19,-1,-36,-18,-29,3,-38,-122,-40,-27,13,-98,116,19,-44,-26,-15,-74,634780
48,10,12,-3,19,19,25,-166,46,36,-181,-21,31,-172,35,53,2,-15,-21,41,59,21,-18,-14,21,319,-7,-45,-32,-22,-140,634781
12,8,18,-14,0,-7,-6,57,28,-179,-75,-61,-138,-221,32,58,31,23,18,54,79,54,3,26,33,291,14,1,-7,7,-80,634782
-24,5,13,-18,-13,-27,-28,-137,26,18,-51,6,-17,6,22,-7,35,32,40,8,-14,34,0,35,-36,121,36,17,1,28,167,634783
6,25,20,16,19,-7,64,16,42,191,78,92,-106,57,29,17,37,44,40,28,49,50,22,19,6,131,21,18,9,39,69,634784
52,36,19,19,26,2,129,64,83,80,-25,102,-189,-39,-27,47,25,24,0,43,160,79,14,-23,84,213,-32,-6,-34,12,-46,634785
60,47,27,32,30,14,115,-46,56,-153,-104,31,-64,113,57,55,28,43,5,53,193,118,8,-26,121,214,-37,-8,-24,20,-47,634786
6,34,27,16,16,16,17,-25,34,-86,-76,59,-96,169,96,1,10,39,11,-3,102,82,-12,-21,49,69,-26,-12,-28,21,38,634787
18,21,23,1,25,27,-49,-58,54,-109,-182,23,-63,-61,-10,-19,-6,12,5,-21,61,55,-34,-37,38,28,-50,-29,-53,4,-89,634788
25,-1,12,-27,6,18,-53,25,2,-21,-91,1,-112,-25,7,-18,-20,-7,-31,-20,59,38,-43,-69,39,87,-65,-54,-75,-10,-129,634789
-37,-19,25,-18,1,1,-67,-6,50,-8,-207,-71,67,-190,64,-68,11,20,23,-69,-112,2,-5,3,-69,-112,-3,-2,-21,28,53,634790
-64,-13,19,-5,-5,-8,-36,74,147,50,58,-60,122,-184,-7,-74,14,18,48,-75,-173,-28,8,30,-96,-160,28,19,11,37,46,634791
-46,8,41,12,8,2,-22,-96,88,-99,144,2,85,-61,1,-59,35,31,77,-46,-191,-35,23,60,-90,-149,71,41,42,60,-9,634792
-62,-6,20,7,-3,-13,-45,14,-65,4,107,-53,48,-100,-36,-68,15,4,70,-62,-222,-77,3,60,-106,-139,61,32,28,39,23,634793
-5,22,9,24,16,3,32,85,-197,112,142,-12,10,-61,-20,2,12,-11,31,6,-97,-39,-11,40,-8,78,36,21,14,20,-14,634794
-17,32,10,41,17,6,56,236,-83,72,203,-61,54,34,44,15,47,30,84,18,-122,-15,34,102,-7,62,98,82,82,70,80,634795
-30,22,-5,31,0,2,59,317,-4,79,53,1,183,85,60,5,42,34,72,18,-138,-16,38,110,-24,65,99,62,72,69,78,634796
-29,-6,-9,-11,-6,6,27,71,-52,-19,-92,29,-6,149,-24,-17,-5,-4,10,0,-140,-57,-15,54,-43,95,44,9,10,12,38,634797
1,-7,3,-18,14,37,21,-85,79,-31,-82,-46,73,-57,46,-31,-31,-35,-12,-22,-132,-82,-40,19,-56,123,22,-27,-22,-23,23,634798
11,-6,-4,-6,29,30,29,-68,46,-123,179,-35,103,67,7,-20,-18,-23,3,-16,-101,-78,-18,33,-45,141,30,-11,-8,-15,-32,634799
32,8,5,4,30,33,59,22,42,-161,45,64,-26,92,4,14,1,-12,11,24,-15,-36,-5,22,21,244,18,12,5,-17,-115,634800
27,19,14,10,34,37,22,80,20,-198,-138,-75,32,-47,-1,9,-5,-17,15,9,-30,-30,-14,25,10,198,15,16,-3,-9,-11,634801
-4,12,15,8,26,17,-15,17,-41,-55,157,-50,147,142,-11,-21,5,2,37,-18,-67,-32,0,32,-29,111,34,32,12,10,61,634802
-24,10,20,16,18,25,-29,237,85,-30,107,-50,-39,32,27,-37,28,28,70,-28,-125,-10,3,61,-65,-27,47,45,50,43,145,634803
-4,-6,2,12,16,19,33,270,90,36,-98,20,18,87,25,-12,23,17,26,-4,-35,27,9,13,4,51,4,7,15,18,35,634804
53,15,10,25,32,20,135,259,-10,-26,-103,54,132,182,26,58,17,14,-17,49,147,83,17,-41,124,269,-44,-15,-33,-11,-56,634805
16,29,27,33,19,19,122,255,-28,30,160,-22,109,8,17,10,29,32,32,5,50,65,27,-8,41,107,-2,12,8,30,-5,634806
4,21,9,31,3,3,117,70,22,83,91,-21,35,-20,1,-17,21,25,27,-22,17,51,21,-17,32,49,-14,14,16,33,35,634807
13,7,8,12,17,14,99,-29,-3,-15,84,-18,-15,-16,-18,4,24,24,11,1,70,85,21,-29,80,117,-31,18,16,23,-41,634808
11,-4,9,-20,9,19,19,-5,22,-2,82,-24,3,-31,-44,6,24,-2,9,-4,67,67,17,-39,89,130,-49,12,1,25,-48,634809
26,-2,-5,-8,8,8,2,128,34,18,86,-10,-130,40,-35,12,-4,-21,-17,13,79,41,-5,-44,102,195,-61,-7,-10,5,-118,634810
13,10,-6,12,12,2,15,34,26,-65,425,16,-131,-16,-40,37,-2,0,-14,36,77,32,-2,-25,109,226,-26,5,-4,10,-92,634811
3,14,-3,5,10,-12,27,62,-34,-52,256,-23,-206,-32,52,54,18,19,13,57,65,28,27,11,107,231,16,20,18,38,-35,634812
-16,10,7,-2,11,-8,-26,-77,4,-2,102,34,-49,27,57,11,47,39,64,28,-70,2,45,69,20,55,67,46,60,69,142,634813
-16,12,-23,-8,-2,-25,-2,-66,-20,-3,-44,60,78,-65,-29,25,24,21,36,44,-42,-10,20,40,35,122,42,18,25,33,32,634814
-68,8,-24,6,-18,-43,16,-100,-159,-83,60,61,-185,103,-47,8,36,32,62,22,-89,-42,33,72,-2,48,72,28,43,52,115,634815
-63,17,-14,18,-9,-29,32,33,-114,-14,116,87,-84,19,28,16,29,29,66,27,-83,-40,41,79,15,51,73,34,54,42,102,634816
-72,7,-1,5,7,-14,-23,-99,35,-61,-60,26,-24,-294,-21,-16,-1,-2,28,5,-133,-57,19,55,-28,0,51,24,31,31,44,634817
-34,6,23,-7,28,19,-32,-42,58,-16,55,2,-59,-144,-25,-19,-1,-3,30,2,-140,-40,8,53,-46,-11,46,27,32,28,80,634818
22,-21,-14,-37,14,15,21,22,136,128,-145,17,-40,61,15,32,-5,-15,-17,43,-5,-6,-1,13,41,183,3,-16,-5,-7,-59,634819
59,-5,-30,-30,-1,-4,90,172,23,56,-159,19,-3,95,-8,102,-2,-6,-46,104,179,46,13,-28,154,450,-36,-44,-45,-31,-111,634820
96,28,-17,-21,2,-4,158,188,-95,-18,43,78,43,15,75,164,12,-3,-74,177,358,112,20,-51,267,694,-54,-54,-64,-42,-186,634821
104,24,-16,-21,18,8,150,36,-72,43,244,116,56,6,64,175,-18,-14,-125,171,398,102,-26,-95,276,794,-75,-86,-98,-61,-152,634822
-12,0,8,-14,3,4,-32,157,-7,-141,-33,75,78,20,-33,19,-23,-2,-66,-8,72,-2,-51,-34,-10,319,-20,-52,-58,-32,66,634823
-32,1,35,12,5,14,-71,119,13,-44,-221,-24,16,-77,-20,-50,1,8,2,-63,-86,-11,-23,13,-123,45,28,-3,5,8,54,634824
40,3,30,7,25,34,25,132,-1,-122,-84,-104,169,-39,32,-3,-23,-29,-60,-21,81,28,-58,-71,-3,277,-50,-40,-36,-41,-28,634825
34,6,21,9,31,23,34,231,-13,-74,-189,-50,146,-142,22,-22,-28,-39,-47,-46,66,2,-54,-70,-45,244,-52,-44,-43,-26,-28,634826
59,11,3,-1,14,14,84,216,-78,39,44,-6,177,-160,-86,12,-39,-47,-62,-20,142,19,-46,-115,-7,372,-72,-62,-70,-43,-162,634827
57,8,-12,-2,10,-5,91,-159,-32,151,93,-69,221,-218,-45,36,-39,-54,-90,10,213,43,-48,-141,42,482,-86,-64,-85,-63,-143,634828
2,0,2,-1,7,-4,-7,-49,66,-47,1,4,152,-119,-76,5,1,-4,-19,-14,100,37,-20,-47,-11,322,2,4,-10,-2,74,634829
105,13,-20,-16,22,9,84,156,3,-163,-32,125,151,-38,-46,120,-19,-38,-75,98,327,99,-38,-118,212,698,-75,-37,-45,-37,-189,634830
173,20,-14,-25,27,34,136,208,-80,-114,380,76,217,98,-45,153,-89,-101,-198,124,478,89,-104,-229,331,980,-196,-139,-147,-144,-333,634831
112,13,-11,-37,3,18,71,42,-84,-14,138,39,37,8,-115,91,-94,-84,-168,70,316,14,-108,-162,208,778,-147,-118,-123,-115,-172,634832
-34,-7,16,-39,-12,-1,-57,102,13,-20,-56,-86,33,27,-65,-17,-26,-2,-10,-29,-44,-40,-41,11,-28,236,0,0,3,0,127,634833
-11,-3,20,-23,12,14,-3,115,-89,-56,-98,-110,87,148,50,17,-11,4,7,20,-6,-4,-9,20,39,265,9,-2,14,25,31,634834
-5,-3,17,-20,7,12,-32,-80,1,122,-182,-54,-106,88,35,-14,-27,-6,0,-11,-56,-31,-31,13,11,170,6,-22,0,5,40,634835
11,6,39,-4,21,34,-40,-160,-26,39,-160,60,-80,-8,-1,-24,0,17,21,-6,-110,-42,-7,45,-13,52,44,5,28,33,50,634836
17,6,31,5,20,18,-7,-24,-22,-40,-62,-17,-96,27,15,9,35,37,39,16,-96,-29,31,63,31,56,60,18,42,60,91,634837
-34,14,13,17,-2,-16,-5,-207,78,-74,-75,22,-257,24,-8,2,70,61,84,17,-140,-20,58,105,21,-46,98,70,77,87,154,634838
-39,13,-1,7,-11,-12,-8,-196,85,-29,22,-6,-119,-133,9,24,49,50,52,33,-103,-12,32,72,76,6,63,49,69,67,10,634839
45,10,-36,-10,-6,-1,81,-4,-18,-111,24,-36,97,0,27,100,-7,-13,-54,101,154,40,-23,-38,267,420,-43,-28,-28,-10,-176,634840
107,19,-50,-12,-13,-19,139,29,-134,-12,179,102,176,218,77,155,-52,-46,-133,148,357,71,-50,-120,387,753,-122,-92,-102,-72,-260,634841
117,22,-35,-20,3,-11,92,60,-144,-56,-157,29,120,9,53,124,-68,-61,-145,102,344,53,-65,-136,319,766,-128,-132,-145,-101,-232,634842
34,21,14,-14,20,14,-19,17,-73,-17,-187,8,45,-262,31,67,-3,1,-62,23,148,39,-13,-34,133,466,-33,-66,-69,-35,15,634843
-51,11,30,-18,-12,-4,-95,-104,-22,-115,-17,-29,99,-166,-7,10,37,36,35,-31,-28,20,30,41,3,204,46,2,7,31,109,634844
-19,20,9,-2,-4,-2,0,-83,36,-53,116,82,79,46,-36,67,18,16,29,26,125,57,25,9,112,454,11,6,-11,18,39,634845
-68,6,-3,-4,-13,-29,-11,-45,20,-31,195,-20,-59,5,16,20,19,12,46,-15,46,23,12,14,33,362,28,10,3,16,121,634846
-37,-13,-23,-30,-20,-30,23,-79,-21,71,360,-19,23,-118,-11,36,-10,-31,5,3,103,23,-23,-36,77,476,-31,-29,-33,-22,26,634847
26,-11,-16,-52,1,-2,21,-74,-19,2,182,-35,73,-290,51,64,-42,-65,-67,34,217,32,-51,-104,135,656,-95,-85,-83,-74,-38,634848
134,8,-14,-49,43,56,35,-17,-56,-113,135,-1,174,-212,58,126,-92,-104,-185,105,438,61,-95,-202,284,998,-197,-158,-167,-157,-263,634849
383,36,-77,-66,55,84,321,143,-172,-68,207,75,38,-3,-2,405,-174,-197,-447,350,1168,206,-169,-454,827,2138,-408,-319,-358,-320,-809,634850
487,54,-103,-73,33,41,495,354,-264,87,182,202,-275,244,107,598,-160,-181,-520,508,1619,314,-161,-493,1130,2867,-456,-340,-409,-341,-890,634851
393,63,-101,-84,-4,-7,438,189,-159,-111,219,241,-187,249,63,593,-103,-101,-440,465,1540,306,-123,-393,1046,2807,-369,-258,-341,-273,-639,634852
43,34,-4,-77,-53,-41,-43,-54,-42,-97,-67,-32,-116,38,2,209,-4,40,-132,84,555,65,-31,-75,283,1354,-60,-48,-114,-57,123,634853
-127,12,50,-53,-50,-36,-289,-23,102,-132,-267,-81,4,-137,38,-13,56,98,72,-100,-42,-66,20,109,-112,412,107,68,39,96,376,634854
-97,1,53,-76,-33,-24,-286,-116,109,30,-251,-77,69,27,-5,-24,61,105,95,-74,-110,-53,27,122,-125,258,120,80,82,118,346,634855
-47,2,41,-59,-25,-29,-177,-168,37,29,21,-40,34,-2,-38,0,43,87,77,-52,-80,-45,21,87,-102,255,98,70,62,110,250,634856
-68,3,15,-18,-26,-60,-73,-25,-49,-68,-41,-43,12,-25,-19,-44,16,50,64,-96,-124,-83,-4,48,-139,160,63,42,42,79,179,634857
-103,7,-4,20,-28,-76,-57,28,-38,-23,-57,-103,88,112,-62,-81,-5,27,47,-130,-194,-106,-10,42,-185,43,48,35,25,59,110,634858
14,22,-19,17,-11,-37,65,-107,-32,-45,33,35,91,-107,-24,33,-48,-45,-88,9,110,-28,-54,-89,71,509,-73,-58,-71,-27,-215,634859
465,61,-110,-32,42,39,546,281,-267,-53,439,243,145,101,19,514,-173,-206,-502,458,1367,248,-167,-483,1006,2436,-462,-329,-370,-294,-926,634860
629,66,-169,-83,38,21,711,288,-367,53,594,289,-123,308,21,723,-253,-274,-730,612,1990,364,-258,-676,1411,3505,-647,-482,-562,-460,-1198,634861
604,89,-152,-95,21,19,681,277,-263,81,238,163,-202,313,36,743,-246,-260,-727,583,2089,363,-272,-661,1410,3771,-617,-490,-590,-474,-1083,634862
110,45,-10,-81,-43,-34,68,-31,-87,-25,-44,-129,109,11,-51,235,-107,-59,-272,55,795,37,-151,-215,374,1920,-179,-202,-286,-197,-53,634863
-147,25,66,-43,-50,-47,-250,-340,106,-85,-6,-280,49,-133,-37,-57,-3,47,80,-189,-60,-122,-47,79,-193,630,87,3,-18,30,339,634864
-85,17,27,-32,-37,-53,-144,-293,-29,46,53,-116,25,-273,-34,23,-19,3,37,-66,70,-55,-68,24,-23,870,36,-23,-21,-9,152,634865
-133,4,29,-31,-40,-55,-187,-283,63,41,125,-142,89,-149,-62,-7,22,37,101,-90,-89,-65,-30,91,-117,635,101,34,45,27,316,634866
-129,7,46,-8,-26,-48,-177,-110,76,-190,3,-199,199,-262,-42,-16,49,51,145,-76,-158,-60,1,125,-132,504,120,73,89,49,267,634867
-53,22,26,9,-22,-31,-40,20,-59,-23,115,-109,103,5,-7,64,31,22,69,6,27,-12,-6,56,29,781,61,39,55,15,122,634868
187,60,-40,13,10,-19,302,62,49,-20,379,116,-96,137,68,333,-14,-44,-114,283,701,172,-35,-127,545,1759,-133,-71,-64,-96,-379,634869
804,113,-197,-71,52,34,1028,470,-214,-82,730,422,-11,269,131,1016,-219,-281,-745,934,2568,565,-232,-751,1886,4608,-710,-506,-564,-509,-1653,634870
908,111,-216,-150,35,39,1037,285,-364,-118,395,375,13,175,135,1134,-314,-338,-985,957,3077,598,-345,-935,2094,5526,-872,-671,-801,-669,-1691,634871
733,108,-152,-156,17,19,774,311,-350,-69,169,211,148,-18,24,956,-283,-265,-893,728,2731,483,-348,-807,1715,5097,-742,-608,-754,-589,-1215,634872
91,62,42,-103,-53,-45,2,-209,23,-182,-180,-139,1,-275,-104,242,-126,-28,-350,15,966,49,-228,-245,324,2489,-195,-256,-348,-214,43,634873
-224,21,132,-42,-66,-54,-349,-398,198,-51,-15,-246,59,-165,-85,-133,7,100,75,-306,-127,-157,-77,119,-409,760,142,14,-9,91,595,634874
-176,20,109,-32,-41,-38,-284,-211,217,-13,-134,-139,277,-147,-121,-107,15,83,103,-251,-138,-121,-40,103,-357,644,120,29,31,119,440,634875
-145,5,76,-40,-35,-34,-265,-88,107,-123,-295,-177,44,-305,-161,-93,-19,35,49,-223,-100,-117,-68,47,-310,636,70,-3,14,90,314,634876
-98,17,83,-23,-30,-25,-228,18,62,-84,-47,-135,18,-207,-66,-57,-7,34,55,-177,-23,-80,-47,48,-231,682,77,7,31,89,196,634877
-103,9,75,-17,-34,-29,-211,-33,22,-46,58,-85,-74,-78,-6,-34,31,71,113,-141,-30,-44,0,82,-203,635,110,58,77,121,224,634878
-40,14,41,-17,-29,-31,-110,-68,-88,-37,-81,-56,-20,-80,14,58,19,50,75,-44,152,32,-1,35,-43,879,60,42,48,96,89,634879
139,21,-20,-51,-18,-17,110,114,-70,114,24,104,-89,-59,71,243,-76,-63,-161,133,666,132,-81,-184,341,1694,-138,-125,-119,-54,-337,634880
260,31,-51,-65,-12,-6,251,405,-131,248,17,141,-109,-33,20,364,-139,-132,-335,230,1031,165,-157,-344,599,2339,-284,-251,-265,-190,-586,634881
331,46,-62,-79,-19,-8,331,249,-143,-117,-62,79,-131,-16,6,456,-159,-146,-409,302,1276,188,-180,-394,768,2795,-353,-295,-331,-248,-627,634882
41,25,17,-71,-53,-43,-4,-62,-81,-92,-186,-75,-17,-63,-18,168,-63,-27,-144,18,523,7,-96,-119,197,1766,-87,-105,-150,-84,-22,634883
-166,10,71,-41,-49,-61,-242,-125,26,-89,-189,-111,217,-87,-29,-49,23,60,127,-165,-137,-121,-10,110,-231,797,132,67,54,82,346,634884
-97,27,52,-25,-33,-40,-160,-82,37,-30,-51,-112,-19,-99,-76,23,27,42,103,-70,-36,-59,-6,78,-98,975,96,39,51,68,184,634885
-42,16,12,-29,-48,-47,-91,-236,-136,-120,-113,-32,14,-15,-80,70,-9,0,30,-6,99,-23,-44,0,36,1209,10,-19,2,-8,-2,634886
-51,7,19,-24,-42,-49,-113,-158,-12,11,-138,-62,121,-69,-36,53,-1,1,18,-27,82,-40,-48,-2,21,1196,21,-15,-3,-18,96,634887
-37,17,21,-9,-37,-52,-74,-91,43,130,-116,9,-44,36,3,66,-4,1,23,-11,92,-39,-27,17,43,1203,25,1,10,-11,82,634888
-39,20,20,-10,-47,-52,-38,-115,-32,-7,-93,32,-68,17,37,67,-17,10,16,-23,91,-40,-18,14,14,1158,16,3,8,-21,48,634889
154,38,-36,-37,-26,-27,193,50,-13,40,174,41,-10,46,92,258,-70,-66,-168,165,638,88,-84,-172,402,1917,-164,-128,-123,-138,-365,634890
267,45,-64,-81,-17,-19,270,228,-77,35,-141,85,-42,54,24,371,-123,-118,-316,237,996,140,-157,-309,601,2467,-290,-236,-259,-235,-561,634891
258,47,-36,-61,-3,1,217,144,-46,-98,-47,45,62,-31,32,335,-94,-82,-293,201,970,147,-136,-277,529,2427,-262,-228,-254,-210,-376,634892
-19,38,58,-24,-20,-13,-85,95,24,192,-81,-27,178,-9,-72,47,-17,24,-48,-90,224,-25,-61,-30,-48,1274,-12,-54,-72,-30,113,634893
-91,24,61,-3,-25,-17,-144,-169,4,26,68,-60,27,13,-126,-44,9,48,45,-153,-31,-66,-26,30,-216,799,56,8,18,46,109,634894
-86,13,51,-3,-9,-9,-145,-185,134,-80,66,-175,126,-387,-83,-58,-10,16,25,-165,-74,-88,-31,-8,-228,707,29,-7,2,29,84,634895
-107,11,77,14,-8,-1,-193,-94,92,4,-7,-209,178,-301,-29,-87,1,37,79,-182,-164,-92,-11,43,-277,523,73,43,49,67,181,634896
-82,2,81,8,-13,0,-186,-230,39,189,22,-146,139,-170,-29,-45,34,62,117,-125,-113,-45,16,72,-197,532,81,95,95,91,184,634897
-93,-13,61,-19,-20,-16,-180,152,9,62,15,-91,152,-131,24,-39,51,73,127,-115,-109,-12,38,69,-166,509,91,119,117,105,252,634898
-102,18,83,8,8,-5,-152,54,0,-37,-90,-96,97,-53,-8,-45,62,80,148,-111,-147,-17,56,83,-183,421,111,130,142,115,275,634899
-147,16,89,17,1,-3,-198,-70,81,-139,9,-136,-13,-173,26,-97,58,77,167,-161,-291,-67,40,121,-281,207,140,134,160,124,326,634900
-179,-5,81,26,12,1,-259,-81,129,20,-98,-126,36,-15,-96,-152,72,95,227,-200,-472,-97,51,189,-381,-62,197,180,219,166,365,634901
-138,-4,61,28,5,-1,-184,-20,113,-74,-62,4,216,-11,-93,-130,51,62,178,-149,-398,-78,49,144,-287,54,141,140,194,127,203,634902
-5,11,37,27,14,5,-2,-56,34,-51,199,-1,47,-126,3,10,10,4,50,-18,-57,-13,6,23,1,621,33,48,90,37,-68,634903
-34,7,26,25,8,-9,-22,-98,-80,-35,14,5,72,-42,-32,-4,5,-3,42,-45,-92,-50,-3,39,-19,647,44,44,80,34,44,634904
-38,3,17,5,-13,-23,-28,15,28,-18,-42,55,-172,11,-7,4,5,-12,22,-33,-69,-48,11,40,10,751,40,32,74,32,29,634905
-87,2,44,17,-21,-14,-106,-35,78,-4,-18,64,29,-54,-25,-23,32,31,71,-76,-200,-58,46,105,-67,592,103,78,118,70,174,634906
-117,10,42,14,-24,-19,-159,-93,36,177,-271,32,49,-32,23,-46,42,38,74,-95,-251,-67,51,127,-98,530,118,79,135,71,187,634907
-82,9,35,2,-13,-8,-152,102,-7,105,-74,18,-132,159,-44,-29,28,27,56,-80,-216,-71,32,116,-56,602,97,54,115,57,109,634908
-98,-5,47,4,-14,-7,-154,78,-31,62,-92,-45,-110,114,-34,-58,49,49,105,-106,-270,-67,50,149,-122,454,127,77,141,85,199,634909
-205,-6,84,37,-7,-18,-226,47,28,45,-95,-22,-71,-70,1,-166,126,129,259,-194,-587,-91,121,294,-365,-152,261,199,260,197,479,634910
-229,-2,78,61,-7,-22,-217,23,57,135,-168,-59,-96,-197,-96,-231,116,120,267,-234,-723,-127,114,277,-472,-431,269,206,264,199,471,634911
-264,-20,83,62,-4,-6,-274,-69,143,181,-110,-102,95,-103,-97,-298,102,111,291,-291,-861,-170,114,272,-587,-758,261,208,276,189,441,634912
-73,-6,46,62,31,26,-52,-14,116,175,-28,4,213,-124,25,-94,80,61,168,-82,-365,-25,89,122,-205,-136,128,127,176,105,128,634913
9,-2,6,37,20,16,63,-125,124,-26,78,39,59,-34,-54,0,33,21,48,-2,-59,29,37,-3,-10,295,22,57,78,15,-35,634914
-53,-3,20,38,-4,4,0,-234,65,-89,30,-54,27,-275,-58,-51,8,11,38,-68,-143,-25,28,6,-100,155,10,55,63,5,5,634915
-27,7,16,44,13,13,4,9,95,57,-52,-31,38,41,-27,-25,12,11,35,-36,-49,6,37,-17,-47,271,-17,44,49,-9,-46,634916
-6,8,21,29,25,36,-48,137,168,152,74,32,84,9,-57,-34,27,30,47,-30,-60,8,44,1,-81,231,11,48,57,2,15,634917
7,-5,10,0,21,30,-54,249,-21,44,89,20,53,-12,-31,-11,17,15,22,-21,-27,9,23,-15,-64,283,4,29,37,0,1,634918
-72,-9,39,18,13,11,-139,231,34,37,-94,-44,38,79,-24,-97,43,66,116,-118,-254,-26,48,68,-243,-78,93,84,113,57,209,634919
-283,-26,88,34,-17,-16,-353,-130,121,196,-175,-106,-2,-143,-3,-319,97,127,292,-309,-843,-158,97,248,-668,-970,257,197,249,180,548,634920
-423,-33,140,71,-2,-4,-496,-164,314,-5,-163,-144,89,-336,-10,-479,180,204,480,-441,-1356,-249,175,439,-997,-1780,434,325,408,322,900,634921
-554,-58,169,96,-7,-12,-638,-333,293,65,-134,-128,323,-214,-92,-642,219,244,609,-566,-1839,-330,230,566,-1285,-2556,554,418,536,415,1083,634922
-184,-23,55,89,32,29,-169,-112,158,89,90,75,40,185,-25,-287,97,68,300,-180,-950,-109,144,240,-506,-1233,240,218,333,213,291,634923
71,-13,-21,67,50,58,136,86,-10,114,56,130,-62,229,0,-33,4,-44,-7,44,-222,-6,41,1,53,-40,-3,49,116,4,-158,634924
59,-12,-12,32,32,43,93,-117,-63,43,-24,21,-19,124,25,-47,-3,-46,-59,9,-228,-48,22,3,46,69,-3,20,78,-32,-105,634925
54,-6,-7,16,29,39,84,-6,32,98,-129,88,22,110,77,-39,-4,-27,-70,3,-210,-31,29,20,59,166,11,7,64,-16,-87,634926
35,-9,2,17,33,38,73,30,-27,-35,-108,116,-7,179,33,-38,-5,-30,-52,-10,-218,-54,28,37,36,213,34,12,60,-7,-67,634927
32,4,-1,37,23,29,91,20,-40,-18,-71,75,-67,90,-4,-21,0,-23,-19,5,-198,-36,35,63,45,263,48,30,73,10,-84,634928
-147,-1,47,61,3,1,-133,-215,44,153,-167,-96,-52,-18,-50,-201,63,63,143,-198,-673,-152,77,222,-340,-477,198,138,185,119,413,634929
-784,-73,211,121,-47,-55,-919,-519,284,182,-527,-308,30,-281,-148,-928,271,313,803,-877,-2563,-568,275,831,-1742,-3477,784,568,669,542,1719,634930
-869,-105,222,145,-30,-28,-998,-483,367,23,-511,-308,177,-278,-192,-1069,303,324,953,-935,-2986,-616,339,907,-1961,-4368,855,659,801,632,1685,634931
-706,-108,173,151,4,5,-794,-356,209,61,-334,-260,-42,4,-53,-937,263,256,863,-763,-2658,-506,334,759,-1660,-4119,710,596,730,543,1204,634932
-171,-65,-4,123,53,34,-101,95,-48,254,90,46,-3,158,73,-332,146,78,430,-156,-1138,-102,237,288,-491,-2023,246,317,409,239,65,634933
147,-31,-107,52,53,28,312,215,-14,110,170,194,-163,274,78,63,11,-70,-3,189,4,124,91,-100,288,-313,-109,42,73,-58,-468,634934
118,-21,-86,45,42,28,255,180,-101,-41,89,168,-67,161,57,44,-9,-70,-48,135,61,108,58,-114,251,-204,-113,14,9,-85,-339,634935
96,-13,-72,49,51,41,173,110,-67,82,-16,119,-70,135,63,23,7,-39,-40,94,22,94,52,-102,204,-250,-98,24,14,-68,-222,634936
85,-4,-47,51,51,56,88,24,-37,56,-159,161,-104,138,24,16,21,-23,-17,76,-7,79,65,-73,165,-283,-72,32,18,-44,-109,634937
45,-16,-22,25,41,67,4,-254,4,88,17,120,-187,25,43,-35,15,-23,9,20,-109,32,50,-42,79,-421,-45,35,30,-34,-68,634938
-90,-37,7,18,20,26,-151,-194,97,171,55,10,-70,89,-4,-191,54,36,127,-143,-508,-63,83,89,-221,-1001,82,125,128,49,300,634939
-444,-56,96,79,-15,-30,-506,-369,139,74,-252,-224,-1,86,-70,-551,202,217,518,-470,-1515,-263,216,463,-941,-2564,439,392,429,305,1080,634940
-608,-71,122,102,-26,-43,-655,-415,319,-45,-291,-231,127,-89,-20,-733,266,276,710,-602,-2070,-358,294,644,-1292,-3476,612,526,607,454,1323,634941
-644,-78,150,138,-3,-14,-717,-460,217,144,-308,-203,27,-93,-11,-809,315,302,826,-637,-2369,-380,363,760,-1440,-4010,723,619,727,560,1324,634942
-137,-55,-8,108,50,39,-99,-154,73,14,57,41,-50,27,45,-305,139,56,337,-103,-1052,-92,223,260,-376,-2070,230,285,375,229,121,634943
172,-35,-84,39,62,66,249,68,-67,22,196,205,-103,90,25,26,-43,-129,-134,188,-52,54,47,-137,309,-421,-153,-37,11,-93,-423,634944
118,-26,-49,20,50,69,150,59,-72,14,127,125,-52,144,-1,-38,-47,-114,-140,94,-133,-14,28,-85,196,-405,-114,-44,-12,-97,-265,634945
48,-43,-35,19,30,37,56,96,-10,202,-113,-6,-102,93,17,-113,-47,-95,-89,5,-293,-78,25,-11,54,-566,-42,-8,19,-69,-152,634946
52,-20,-32,45,32,31,116,169,49,244,42,12,-237,174,40,-60,-9,-45,-47,52,-241,-30,65,31,96,-453,3,35,58,-24,-96,634947
58,-34,-65,13,8,-4,178,53,100,25,136,90,-160,113,44,-36,-20,-59,-102,78,-113,-7,35,-21,160,-259,-42,-15,1,-63,-201,634948
-183,-57,2,25,-22,-27,-109,-25,53,-76,-108,23,128,15,-82,-294,12,15,60,-211,-729,-185,54,148,-364,-1167,133,63,86,30,369,634949
-949,-115,220,119,-73,-60,-1079,-743,182,-101,-629,-296,104,-194,-191,-1154,278,335,880,-1023,-3027,-670,311,920,-2070,-4766,862,607,700,563,1954,634950
-1005,-129,235,186,-40,-29,-1157,-509,361,85,-292,-251,160,-60,-130,-1267,380,387,1158,-1028,-3504,-663,441,1090,-2265,-5781,1011,796,949,750,1998,634951
-767,-122,146,188,1,-16,-835,-362,311,308,-303,-158,-41,-156,-68,-1039,316,273,982,-757,-2974,-501,417,868,-1769,-5216,803,692,837,635,1383,634952
-136,-77,-44,135,64,37,-74,-158,70,7,-4,141,-210,112,29,-381,113,4,379,-107,-1233,-96,245,236,-440,-2726,201,289,376,222,53,634953
219,-58,-136,49,82,73,298,160,-130,-50,-17,245,-17,87,124,16,-49,-145,-86,204,-54,104,77,-183,339,-931,-201,-16,-7,-127,-565,634954
198,-39,-89,40,71,82,249,234,-106,5,59,195,-122,210,161,22,-19,-83,-70,177,0,103,71,-141,310,-818,-143,12,-24,-116,-387,634955
115,-40,-90,11,35,42,177,202,-66,48,270,123,-14,218,108,-19,6,-49,-42,120,-69,74,68,-102,212,-905,-105,24,-15,-90,-273,634956
62,-42,-103,20,7,6,155,64,-79,-153,201,161,44,219,16,-36,-1,-36,-38,82,-129,46,60,-99,139,-965,-98,8,-25,-90,-200,634957
65,-22,-94,43,6,12,176,-111,23,-41,-57,255,160,147,-31,-29,-15,-51,-66,91,-59,43,35,-117,161,-852,-117,-32,-46,-89,-227,634958
-29,-25,-55,41,5,20,32,-42,104,-77,-18,105,57,174,6,-144,10,-21,-4,-29,-333,-35,33,-20,-60,-1228,-38,13,4,-34,-21,634959
-380,-76,44,62,-19,-12,-434,-170,100,-53,-312,-175,-36,2,-63,-550,126,121,345,-410,-1405,-277,147,323,-835,-2838,297,259,274,204,727,634960
-552,-96,93,98,-23,-25,-643,-594,113,-21,-306,-230,-36,-158,-46,-745,216,211,597,-570,-2021,-366,256,546,-1223,-3849,503,436,496,369,1061,634961
-622,-99,100,125,-12,-15,-676,-471,169,121,-231,-239,-27,-68,-38,-833,260,229,706,-619,-2314,-411,320,643,-1373,-4380,587,528,596,448,1100,634962
-169,-71,-53,101,27,6,-92,-115,55,207,50,-28,-50,343,-3,-359,104,20,294,-125,-1100,-142,192,232,-393,-2612,186,253,316,174,11,634963
200,-38,-151,58,47,33,347,169,-59,241,350,171,-57,262,109,43,-56,-148,-155,235,36,89,28,-156,404,-809,-176,-42,-21,-128,-569,634964
170,-42,-141,29,31,20,295,272,-175,249,231,164,179,154,96,33,-67,-131,-200,179,62,46,5,-157,358,-672,-174,-66,-73,-157,-427,634965
126,-47,-101,25,35,27,208,168,-33,90,118,116,69,85,8,-35,-46,-102,-156,116,-65,-4,6,-92,223,-801,-112,-41,-48,-116,-223,634966
171,-33,-92,23,47,46,239,155,-9,-94,335,190,-126,137,22,12,-68,-118,-185,165,71,25,-12,-113,310,-562,-148,-90,-80,-131,-347,634967
172,-29,-101,12,28,43,243,304,-139,-170,296,188,-99,-65,72,57,-58,-113,-194,190,186,48,-8,-127,375,-362,-150,-104,-106,-147,-395,634968
30,-38,-65,-15,6,26,88,136,-11,41,162,-21,75,49,-19,-56,-26,-60,-89,59,-100,-22,7,-37,129,-758,-50,-43,-52,-84,-77,634969
-403,-77,53,15,-34,-18,-422,-79,150,87,-109,-147,-35,-132,-43,-504,121,123,327,-381,-1313,-269,137,361,-785,-2602,343,231,248,203,719,634970
-421,-69,57,57,-13,-13,-437,-130,211,-75,-86,-142,40,-232,70,-539,173,161,458,-376,-1487,-245,214,436,-858,-3008,410,321,363,297,674,634971
-177,-56,-4,58,21,16,-190,-92,0,-54,-299,16,9,-144,72,-319,77,38,243,-170,-923,-128,123,201,-412,-2230,179,168,196,139,210,634972
23,-54,-69,26,24,25,44,71,-169,-292,52,105,-213,106,102,-98,8,-36,23,30,-304,-6,58,-3,25,-1340,-23,34,28,-10,-123,634973
106,-40,-108,5,17,5,170,212,-128,-86,46,163,-297,183,185,28,-5,-50,-80,144,60,76,39,-93,265,-784,-112,-22,-57,-71,-286,634974
94,-35,-110,-11,-2,-15,155,134,-172,37,-221,167,-129,398,93,36,5,-31,-77,144,110,100,35,-88,256,-694,-97,-32,-60,-70,-216,634975
80,-41,-124,-34,-18,-34,171,32,-144,-57,65,127,-175,200,68,46,-17,-51,-115,152,158,111,3,-117,256,-585,-128,-64,-94,-88,-314,634976
31,-14,-113,-5,-16,-40,137,126,-129,-73,123,72,-92,194,101,26,-7,-34,-79,120,117,98,18,-99,202,-630,-109,-43,-76,-83,-264,634977
-2,8,-69,34,-10,-21,44,4,-43,-83,73,46,73,212,-26,-20,17,-4,-28,60,-3,43,36,-41,115,-811,-58,-8,-46,-44,-95,634978
5,-24,-88,9,-14,-23,-3,-18,-102,20,30,85,-103,40,3,-2,19,-15,-50,72,34,39,30,-65,155,-743,-80,-17,-55,-53,-87,634979
153,-39,-122,-43,11,14,122,29,-35,83,0,101,-56,229,-7,117,-50,-87,-195,191,382,115,-22,-191,424,-177,-191,-109,-155,-149,-438,634980
320,-4,-118,-55,28,60,328,177,-99,-3,113,153,-156,142,18,244,-115,-160,-350,302,763,169,-81,-332,677,466,-324,-213,-280,-261,-749,634981
458,25,-160,-50,31,44,562,238,-164,9,191,151,-408,229,91,415,-173,-222,-501,434,1243,229,-149,-480,998,1264,-475,-321,-419,-371,-958,634982
192,9,-103,-47,-18,-10,279,172,-158,24,-123,123,-211,50,46,215,-70,-85,-278,225,709,100,-68,-220,537,526,-231,-157,-243,-199,-326,634983
-66,-4,-33,-19,-46,-37,-36,137,-1,-151,-159,-13,-127,30,12,-28,53,55,21,12,-32,-8,53,67,8,-599,58,42,3,29,70,634984
50,8,-52,5,-15,-12,88,246,-79,-43,-92,-9,-48,3,111,58,4,5,-47,111,175,25,16,-28,193,-304,-22,-14,-37,-35,-105,634985
25,-10,-33,1,4,-1,26,98,-64,-58,123,-23,-128,-90,21,-12,-19,-35,-62,42,43,-46,-22,-35,79,-482,-31,-48,-55,-64,-70,634986
32,-7,-1,3,15,18,17,82,32,-69,182,-59,9,-43,-67,-44,-26,-39,-76,27,-22,-48,-19,-38,23,-585,-40,-48,-55,-55,32,634987
40,-9,-13,6,20,17,29,-72,53,-7,27,-61,126,-22,-25,-38,-29,-40,-72,35,0,-21,-21,-57,12,-579,-55,-54,-61,-69,-56,634988
158,3,-58,-4,21,17,176,58,-102,5,111,96,-39,-95,52,94,-77,-99,-184,172,366,62,-60,-179,287,-29,-166,-134,-160,-153,-411,634989
445,22,-148,-44,30,32,513,132,-186,48,290,102,30,144,114,435,-188,-220,-491,474,1285,254,-166,-478,943,1408,-456,-347,-413,-361,-988,634990
426,31,-124,-75,15,23,477,-50,-129,-74,371,74,-70,327,102,473,-185,-194,-527,448,1388,265,-183,-470,966,1676,-451,-362,-449,-369,-860,634991
326,27,-105,-89,-14,-5,374,-6,-88,-96,346,55,57,257,128,407,-147,-145,-462,351,1212,217,-172,-394,812,1518,-371,-316,-395,-312,-709,634992
68,-3,-36,-75,-42,-37,49,-16,-117,-83,27,-97,29,-70,43,105,-108,-80,-252,59,507,20,-133,-193,263,541,-182,-180,-256,-172,-246,634993
-49,11,21,-25,-11,-23,-84,-15,-165,66,-95,-171,54,-182,29,-25,-30,-10,-66,-37,102,-38,-62,-26,7,-92,-27,-44,-95,-35,28,634994
-57,-4,10,-33,-18,-28,-108,-100,-64,1,-31,-131,5,-12,-26,-53,-24,-9,-41,-64,-1,-42,-64,-2,-43,-259,-14,-34,-63,-29,49,634995
-30,-20,6,-33,-25,-26,-86,-29,16,-147,37,-88,56,-67,-34,-59,-27,-17,-43,-61,-26,-46,-68,-12,-27,-290,-22,-34,-56,-30,59,634996
-43,-29,3,-25,-32,-29,-67,-145,-71,-87,-74,-76,38,-81,42,-67,-15,-7,-15,-66,-62,-42,-42,20,-34,-368,7,6,-23,1,54,634997
-15,-12,11,-6,-14,-12,5,-20,-76,58,-77,-61,1,-110,21,-29,5,14,-1,-15,-2,-4,-11,24,21,-309,14,16,0,17,34,634998
38,-8,-6,-1,-8,-4,82,103,-143,17,-110,18,-76,-228,57,27,-20,-25,-46,41,139,3,-29,-37,124,-92,-44,-31,-42,-30,-100,634999
149,7,-44,-7,0,-1,195,-11,-123,-39,20,74,-67,-97,18,138,-84,-98,-176,140,469,45,-78,-170,348,451,-170,-118,-162,-128,-364,635000
130,2,-54,-12,-20,-27,154,-32,-142,62,102,36,-45,44,-36,136,-84,-93,-179,126,491,38,-70,-184,345,522,-174,-113,-170,-134,-398,635001
93,-15,-50,-47,-32,-34,91,146,-61,-50,225,162,-41,-43,-19,122,-76,-73,-169,109,459,41,-71,-163,303,500,-164,-108,-162,-125,-256,635002
-8,-23,-20,-40,-34,-30,-51,145,-49,-112,55,22,-90,-58,-19,30,-29,-4,-69,15,174,-5,-29,-47,64,51,-51,-37,-77,-40,-19,635003
-79,-19,-9,-20,-37,-45,-116,13,55,-60,-44,-17,-105,-88,-37,-41,15,31,35,-44,-47,-17,17,34,-98,-351,49,23,7,36,111,635004
3,-6,-28,-6,-18,-38,-8,-45,112,-125,6,47,-141,-38,10,42,-6,9,-19,53,148,51,11,-17,44,-130,-6,-11,-9,6,-20,635005
17,17,-16,13,-10,-15,1,-126,14,-73,114,59,-90,-36,-10,65,5,11,-8,83,174,56,7,-12,67,-120,-7,10,-9,7,-62,635006
54,30,-25,-5,3,-1,40,-19,-42,76,-18,58,-18,-85,-5,95,-17,-7,-54,112,290,67,-20,-60,151,27,-52,-22,-62,-24,-138,635007
69,29,-11,-8,14,8,23,70,39,1,20,31,-92,8,31,99,-3,2,-59,106,297,64,-12,-60,163,30,-56,-31,-47,-14,-110,635008
19,2,-11,-16,-6,-2,-37,182,-11,62,48,0,31,-84,19,47,-18,-6,-62,53,207,26,-27,-52,85,-76,-34,-31,-54,-24,-65,635009
-133,-6,39,-2,-19,-22,-183,-72,14,-130,-147,-201,173,-144,-19,-97,14,53,69,-90,-197,-54,4,92,-209,-665,89,59,51,63,246,635010
-226,-19,49,18,-28,-33,-250,-44,3,52,-278,-203,193,-12,-5,-199,49,86,171,-181,-498,-109,39,185,-417,-1099,168,120,137,131,438,635011
-258,-20,54,38,-25,-18,-261,-82,147,148,-212,-141,61,-57,-2,-240,87,117,243,-199,-657,-114,74,253,-512,-1336,231,167,204,184,516,635012
-191,-15,43,34,-3,7,-193,23,217,80,-38,-43,36,100,9,-185,79,95,205,-137,-565,-82,79,225,-400,-1209,191,140,190,162,326,635013
74,5,-17,19,33,35,91,148,68,82,325,87,-121,87,12,65,-9,-18,-38,103,105,69,5,-24,102,-183,-44,-16,6,-7,-197,635014
53,-8,-21,-1,14,17,30,134,20,1,371,106,-273,-67,-45,34,-26,-33,-65,53,88,21,-26,-39,62,-148,-62,-36,-32,-33,-132,635015
21,-6,-10,8,-2,6,6,23,-80,-27,109,66,-5,-16,-33,15,-18,-11,-6,25,32,1,-5,15,30,-206,-18,4,-8,-4,-4,635016
13,-16,-15,-16,-2,8,31,3,-25,-20,-47,-92,-8,-92,9,16,-9,-7,1,31,43,12,-5,30,53,-170,-7,17,7,10,-22,635017
22,1,-9,-12,9,2,30,17,-51,39,28,-117,-42,-110,90,36,-2,5,-18,54,69,41,-10,23,56,-115,-9,15,4,8,-49,635018
-58,-6,9,-18,-11,-18,-91,-72,-16,16,38,-116,-82,-45,59,-53,-8,13,26,-38,-140,-24,1,71,-120,-416,49,35,23,28,71,635019
-274,-25,98,4,-18,-1,-415,-220,197,-2,-134,-145,39,-160,-67,-328,60,97,252,-307,-844,-192,63,280,-670,-1511,259,183,189,171,588,635020
-399,-42,130,40,-11,7,-538,-297,99,118,-187,-178,54,68,-115,-468,125,160,422,-403,-1268,-264,123,413,-932,-2223,389,288,324,286,768,635021
-429,-65,101,37,-28,-14,-503,-179,74,-17,-226,-228,-70,-18,-104,-503,129,147,446,-410,-1381,-272,130,421,-989,-2489,398,293,364,297,781,635022
-142,-27,15,54,23,23,-126,-91,-19,150,-94,-14,-126,-91,14,-212,69,54,240,-93,-674,-62,93,188,-418,-1535,179,149,218,168,131,635023
140,3,-76,27,42,42,227,61,-79,73,33,67,-203,86,60,99,-11,-44,-42,181,168,106,20,-94,182,-308,-80,-33,-15,-36,-288,635024
208,20,-73,22,48,42,287,88,34,-135,282,126,-148,197,53,187,-41,-54,-126,234,436,145,-5,-154,335,82,-135,-65,-97,-87,-357,635025
141,31,-47,26,39,40,191,298,-3,-20,36,26,-145,175,23,134,-8,-17,-76,169,330,111,4,-95,212,-75,-74,-29,-73,-54,-246,635026
96,-5,-67,-16,10,8,121,100,-114,20,-94,31,-54,189,54,91,-27,-53,-92,123,278,80,-28,-111,162,-147,-94,-59,-92,-80,-247,635027
101,13,-31,5,23,31,109,149,-159,67,-1,1,56,72,-10,88,-18,-33,-76,111,244,77,-13,-91,131,-201,-79,-29,-63,-61,-126,635028
23,7,-3,6,11,37,-20,-29,-125,-43,-5,-98,-49,-40,52,-3,-3,-4,-30,11,30,11,-9,-22,-37,-476,-21,11,-23,-24,88,635029
-295,-49,67,15,-20,6,-410,-316,90,-20,-321,-272,52,-132,-45,-369,75,111,254,-334,-909,-212,69,274,-739,-1880,259,195,203,168,724,635030
-421,-60,104,50,-5,3,-518,-304,131,-20,-459,-289,-125,-160,-105,-524,154,189,480,-441,-1397,-270,150,474,-1027,-2680,426,334,382,321,900,635031
-377,-45,82,63,-6,7,-405,-256,109,-92,-112,-201,-48,-68,-91,-459,185,190,516,-339,-1331,-192,198,474,-901,-2623,427,370,431,345,724,635032
-186,-27,14,60,7,22,-126,-182,-24,77,-159,7,23,0,-11,-233,142,121,361,-107,-802,-43,176,320,-467,-1851,270,277,328,247,265,635033
109,-12,-69,25,14,23,205,164,-147,179,26,185,6,245,-39,68,0,-31,-1,166,60,106,34,-16,157,-493,-44,25,49,2,-305,635034
57,-5,-45,34,16,25,128,75,-65,153,55,30,-32,-70,6,9,-20,-35,-20,78,-2,43,16,-27,71,-518,-42,7,2,-31,-198,635035
80,5,-10,54,48,66,113,9,-22,144,-152,30,-83,59,7,19,-3,-21,-13,78,19,57,38,-9,84,-460,-28,11,1,-26,-137,635036
106,-12,-18,11,47,55,132,-15,-57,218,-10,21,-227,-38,49,48,-22,-53,-76,105,116,63,11,-46,127,-282,-65,-28,-38,-54,-96,635037
87,-25,-36,-17,21,23,126,194,-124,65,28,70,-280,-45,13,36,-37,-53,-100,91,108,51,-8,-54,99,-254,-69,-40,-63,-65,-129,635038
64,-12,-27,8,11,24,137,282,-30,-3,53,64,-116,-21,-14,13,-26,-29,-71,71,64,49,-1,-22,47,-312,-33,-19,-41,-43,-64,635039
-98,9,36,58,-1,12,-27,34,12,-52,58,-21,0,-87,-14,-134,48,63,122,-77,-367,-43,72,154,-286,-985,136,100,95,87,333,635040
-248,-6,53,63,-19,-9,-214,54,65,-169,-109,-100,81,-71,-72,-293,86,101,261,-206,-771,-137,96,279,-569,-1647,250,189,197,186,567,635041
-281,-37,66,43,-14,4,-320,-162,34,-16,-129,-118,127,-145,-81,-358,96,100,291,-258,-963,-165,99,307,-690,-1988,277,207,241,200,606,635042
-115,-25,44,38,31,47,-136,3,107,43,-11,-44,142,-140,45,-198,69,56,184,-97,-601,-44,87,176,-393,-1518,158,122,162,137,207,635043
117,-25,-28,11,39,55,135,95,-21,121,231,90,13,23,83,57,-33,-44,-68,125,116,85,14,-91,100,-487,-76,-40,-50,-48,-201,635044
135,-20,-52,-9,35,43,155,130,1,67,58,122,-118,16,27,99,-38,-63,-128,149,268,117,-19,-142,170,-262,-119,-80,-110,-93,-226,635045
130,7,-46,-3,28,47,154,183,-63,63,-41,95,-189,33,125,111,-16,-37,-111,142,294,119,-6,-110,172,-220,-103,-67,-93,-69,-192,635046
57,10,-44,-6,2,10,70,33,-148,-49,-285,45,-53,5,127,38,-3,-6,-51,67,132,47,-1,-42,48,-459,-38,-5,-37,-37,-107,635047
89,15,-37,-5,10,12,103,23,-84,-65,-202,89,-12,121,31,81,7,5,-53,110,213,70,0,-32,117,-354,-32,8,-30,-13,-147,635048
86,25,-16,13,23,22,87,62,18,-24,-133,44,-112,121,88,64,17,16,-36,81,169,63,16,-17,83,-386,-20,18,-21,-8,-25,635049
-247,-18,66,32,-23,-12,-302,-89,34,-24,-163,-74,21,0,-60,-314,94,125,274,-273,-772,-161,100,281,-633,-1787,266,204,197,184,717,635050
-462,-61,102,46,-43,-36,-516,-174,73,97,-234,-108,188,98,-132,-561,150,182,494,-480,-1466,-298,159,474,-1101,-2867,454,333,378,329,1022,635051
-440,-52,98,63,-12,-22,-447,-119,79,37,-168,-126,-49,81,-113,-539,161,180,510,-414,-1486,-258,190,481,-1046,-2975,455,354,416,356,912,635052
-200,-38,19,49,21,3,-194,-78,145,234,-252,-33,46,-67,-100,-312,87,74,288,-173,-921,-114,119,257,-575,-2127,227,206,263,197,365,635053
119,-2,-34,37,58,55,164,87,29,161,58,160,54,-113,-14,23,-3,-56,-13,136,-28,80,45,-31,81,-767,-58,7,27,-22,-272,635054
128,17,-16,57,62,74,196,129,-49,129,83,145,-36,67,-21,64,-6,-49,-39,150,96,77,51,-32,138,-547,-59,1,0,-26,-223,635055
79,3,-17,37,44,54,144,96,-90,135,-31,115,-247,16,-8,25,-14,-41,-43,111,46,38,27,-19,77,-572,-39,-11,-11,-38,-126,635056
114,6,-22,19,42,51,186,160,54,156,299,85,-126,-29,-9,73,-4,-30,-58,146,149,75,18,-36,150,-393,-51,-26,-34,-43,-125,635057
88,-12,-41,-10,13,21,181,30,16,9,230,35,-142,50,55,54,-15,-40,-63,125,146,60,-1,-44,122,-371,-59,-27,-46,-54,-88,635058
37,-6,-7,13,21,25,109,-83,25,34,-51,22,-37,-17,-60,-18,-7,-14,-8,56,-26,19,14,13,-18,-596,-3,10,-18,-20,28,635059
-211,-19,58,64,4,-1,-171,-218,43,12,-248,-48,128,-105,7,-266,110,118,247,-192,-718,-122,103,276,-551,-1685,243,177,178,163,602,635060
-450,-37,89,87,-25,-31,-434,-268,62,-63,-437,-91,205,-191,20,-504,183,211,483,-394,-1403,-238,176,495,-1023,-2815,460,326,378,338,1070,635061
-477,-57,94,92,-18,-32,-520,-283,106,45,-275,-218,130,-205,5,-555,209,230,564,-419,-1619,-241,222,559,-1126,-3235,532,384,468,409,1047,635062
-181,-37,18,74,23,-6,-179,-31,-21,89,-72,22,59,-21,-4,-266,137,116,345,-115,-897,-55,168,296,-525,-2251,283,236,305,247,338,635063
211,5,-79,35,70,35,302,194,-109,133,150,252,-120,179,90,140,-8,-66,-105,247,263,159,19,-128,301,-498,-144,-51,-41,-68,-390,635064
211,10,-71,5,51,46,288,217,-72,96,245,130,-63,172,58,154,-33,-84,-186,231,398,138,-30,-177,337,-246,-185,-101,-131,-119,-396,635065
138,-14,-61,-19,24,32,190,-100,-51,-98,-23,61,91,54,70,76,-59,-70,-165,127,277,83,-51,-159,192,-399,-149,-101,-152,-112,-261,635066
97,-13,-44,-2,26,41,112,-37,-32,-95,32,14,-12,35,69,37,-52,-53,-125,55,166,57,-52,-120,72,-540,-108,-84,-133,-93,-179,635067
82,-1,-35,-3,22,24,74,104,-73,31,-35,23,6,89,39,36,-48,-45,-102,47,139,36,-40,-99,62,-562,-77,-67,-108,-79,-203,635068
65,1,-13,-7,23,24,-3,60,0,18,-34,25,40,180,-18,29,-7,-6,-39,32,89,44,11,-36,19,-636,-23,-10,-56,-29,6,635069
-242,-24,79,19,-6,6,-426,-173,214,206,-274,-74,-61,92,-89,-319,125,133,273,-287,-843,-146,106,273,-667,-2028,276,201,185,189,611,635070
-268,-39,86,46,6,15,-426,-153,186,254,-231,-60,-81,-191,-68,-373,157,155,366,-276,-1044,-158,157,351,-756,-2403,338,256,283,260,616,635071
-161,-51,41,47,17,31,-228,66,51,195,-261,3,115,-72,-52,-274,108,91,271,-150,-778,-90,128,259,-529,-2052,230,188,226,199,324,635072
-17,-11,14,63,42,55,40,90,36,-35,77,22,-51,101,-27,-113,77,51,159,23,-377,30,96,140,-226,-1474,127,120,150,115,43,635073
125,-9,-48,34,32,47,224,169,31,-87,90,-2,63,93,1,29,-18,-67,-66,149,89,95,10,-71,100,-712,-85,-52,-45,-52,-220,635074
98,9,-35,38,35,30,187,108,82,106,-90,28,219,-131,82,21,-14,-50,-70,127,93,72,12,-53,75,-651,-71,-51,-54,-60,-168,635075
11,5,-35,28,9,2,121,49,149,108,55,63,20,25,47,3,24,-11,-15,87,8,63,43,5,1,-784,-10,2,0,-22,-125,635076
29,22,-22,46,21,19,121,137,-40,-9,23,50,-26,232,10,28,21,-2,-21,113,55,80,54,-2,34,-704,-14,-7,-6,-23,-153,635077
42,18,-25,43,27,27,120,-63,100,5,-124,85,-73,118,23,13,-12,-33,-45,91,69,33,12,-30,22,-654,-45,-54,-50,-54,-81,635078
78,22,-40,16,31,29,172,-4,11,-31,140,48,127,115,13,59,-15,-48,-77,135,180,73,-4,-57,117,-471,-70,-58,-65,-65,-182,635079
105,5,-57,-20,21,21,185,238,46,-38,18,113,85,125,9,76,-34,-56,-112,140,262,94,-39,-92,173,-335,-104,-93,-104,-89,-163,635080
117,13,-41,7,37,29,177,271,97,36,104,109,-67,17,112,89,-3,-21,-80,140,245,124,-10,-44,150,-378,-72,-75,-74,-50,-109,635081
155,34,-50,19,40,33,222,204,-33,172,21,139,-89,81,31,135,-17,-31,-126,181,382,147,-21,-100,241,-160,-105,-96,-113,-79,-280,635082
87,32,-15,23,26,31,114,-19,24,15,16,56,18,170,-32,46,-3,-12,-51,73,169,46,-4,-28,78,-437,-37,-26,-56,-35,-96,635083
67,21,-4,13,30,29,78,-14,-24,-140,97,25,108,110,-25,27,-1,-7,-19,26,92,-14,-12,-8,29,-550,-14,0,-42,-23,-146,635084
93,20,-39,1,22,14,130,140,-58,20,78,90,96,67,27,58,-31,-48,-95,49,222,-3,-55,-86,112,-372,-84,-58,-100,-70,-282,635085
38,-3,-43,-31,-1,-22,100,77,26,46,193,103,117,-21,13,24,-39,-43,-82,4,146,-6,-43,-83,51,-480,-77,-54,-95,-55,-159,635086
49,2,-28,-16,-5,-12,128,-78,196,-92,324,46,-5,-5,-1,81,2,-3,-49,58,220,61,-11,-51,109,-395,-51,-31,-66,-21,-166,635087
55,-3,-43,-22,-6,-9,148,-204,121,-183,212,-4,-7,68,29,85,-46,-45,-97,63,291,53,-54,-110,152,-265,-101,-90,-124,-70,-228,635088
164,4,-62,-26,14,8,230,-42,-127,-114,78,8,26,-11,2,133,-103,-115,-224,127,514,70,-116,-230,296,98,-216,-181,-230,-166,-400,635089
378,27,-104,-35,38,45,485,190,-153,-18,110,237,-87,52,91,369,-147,-170,-395,341,1088,216,-148,-385,714,1006,-364,-285,-347,-273,-815,635090
456,55,-107,-29,35,54,569,160,-162,-212,364,215,8,-46,88,495,-151,-166,-487,431,1391,290,-157,-441,908,1556,-405,-328,-408,-315,-865,635091
401,56,-84,-41,18,33,439,176,-86,-213,415,216,105,-22,37,441,-137,-138,-459,375,1287,256,-164,-387,804,1493,-359,-306,-392,-296,-652,635092
148,39,-14,-35,-6,-6,97,41,-53,-210,117,-19,-22,12,17,174,-71,-46,-222,105,623,91,-107,-155,272,539,-134,-157,-222,-150,-80,635093
-39,17,23,-7,-18,-21,-101,-29,105,13,45,-105,-99,41,39,-1,21,49,18,-32,88,1,-21,57,-93,-285,71,-2,-32,25,258,635094
-16,21,-3,-22,-18,-36,-46,-74,25,9,26,30,-72,257,94,57,37,52,21,35,143,60,16,56,-18,-218,63,-4,-8,38,145,635095
3,12,-10,-36,-13,-29,-28,-9,1,24,-92,89,6,157,43,49,21,23,-6,51,147,44,-9,30,-17,-217,33,-21,-26,14,55,635096
10,17,4,-18,-10,-3,-45,-30,50,-11,-89,86,65,210,26,17,-2,7,-12,26,117,16,-30,1,-42,-252,-3,-34,-42,-7,-29,635097
37,-3,17,-25,1,20,-31,-4,63,-78,-33,-39,67,134,-71,9,-29,-26,-28,12,151,7,-37,-39,-2,-192,-38,-50,-64,-33,-132,635098
105,8,33,-19,29,54,52,-108,41,5,-86,7,90,8,-55,81,-28,-31,-48,80,302,37,-37,-65,118,26,-70,-64,-73,-53,-247,635099
343,36,-56,-37,39,52,414,164,-84,102,-35,125,-96,48,30,382,-119,-154,-331,356,1092,206,-118,-331,703,1253,-330,-248,-286,-234,-828,635100
425,56,-101,-55,23,21,526,57,-87,71,85,89,-301,25,106,500,-168,-195,-466,423,1439,261,-169,-448,904,1863,-431,-327,-400,-334,-951,635101
429,78,-87,-49,26,27,501,136,31,81,222,224,-113,38,86,510,-174,-178,-477,407,1511,259,-180,-459,920,2030,-447,-349,-442,-350,-841,635102
145,27,-12,-70,-31,-12,112,100,107,-137,-114,77,6,29,20,208,-109,-81,-279,93,781,69,-150,-224,322,984,-221,-211,-287,-208,-245,635103
-33,11,51,-59,-36,-21,-116,-75,13,-91,-151,-35,175,-219,-25,27,-30,17,-31,-51,217,-17,-72,3,-51,118,-3,-50,-91,-20,-18,635104
13,15,45,-54,-22,-5,-43,11,-5,64,-277,-61,34,-250,-23,61,-41,-10,-33,-13,276,-4,-62,-36,36,182,-40,-68,-98,-22,-75,635105
-14,9,60,-28,-9,4,-76,10,37,-146,4,-52,63,-58,-57,30,-17,16,10,-43,168,-23,-44,-10,-31,-13,-5,-38,-52,5,10,635106
-39,1,49,-27,-18,-2,-101,-31,-37,-24,67,-33,69,-8,-88,-1,-2,32,32,-73,61,-32,-43,13,-105,-194,31,-20,-29,29,121,635107
-8,4,26,-18,-14,-1,-47,-34,52,170,29,103,-72,-22,-6,26,23,44,32,-47,85,18,-6,22,-63,-185,34,3,-13,48,100,635108
84,20,-8,-14,-5,-11,136,17,69,-17,-63,182,-198,-45,-28,149,19,21,-36,94,362,101,-16,-54,162,216,-38,-42,-52,-8,-166,635109
363,52,-89,-44,16,2,501,384,-151,-35,228,196,-132,-30,25,462,-97,-130,-373,392,1257,267,-127,-380,809,1612,-354,-279,-309,-252,-800,635110
459,63,-117,-67,14,10,573,256,-223,-31,138,155,-99,-87,67,577,-191,-226,-583,471,1679,309,-224,-560,1043,2365,-525,-422,-494,-405,-1014,635111
387,63,-97,-75,-7,-14,432,191,-190,21,231,84,0,-135,0,512,-200,-198,-544,387,1571,256,-242,-495,922,2316,-467,-411,-496,-376,-809,635112
90,37,3,-68,-38,-44,30,103,52,-66,194,-31,80,-125,-67,198,-86,-54,-242,73,738,61,-147,-187,275,1124,-165,-206,-272,-169,-42,635113
-128,21,66,-40,-44,-53,-217,-254,137,-251,68,-116,70,-124,2,-29,20,70,55,-114,43,-50,-36,77,-204,37,88,4,-21,42,400,635114
-91,5,62,-39,-19,-31,-198,-6,139,-285,-27,-42,31,-55,-55,-19,22,58,64,-96,14,-33,-36,69,-189,-29,77,-5,-5,44,368,635115
-68,8,64,-22,-7,-4,-181,-19,109,-161,-49,-62,85,-192,-21,-36,27,52,87,-100,-36,-42,-22,75,-214,-136,72,13,18,59,332,635116
-58,2,35,-24,-23,-9,-159,-34,130,-26,-201,-20,148,-159,-87,-52,-13,17,42,-98,-32,-56,-59,32,-205,-135,26,-34,-12,14,150,635117
-37,22,40,-5,-4,5,-141,-85,98,-15,-167,-79,206,-220,-21,-38,5,27,54,-84,-37,-46,-32,41,-183,-150,40,-12,13,20,92,635118
-11,6,5,-15,-9,-11,-82,-191,56,-109,-56,-2,127,-66,47,24,3,9,27,-16,88,0,-27,5,-67,19,-8,-22,0,3,-11,635119
257,24,-80,-53,7,3,261,40,-91,4,363,145,-95,-60,46,334,-83,-105,-246,285,907,197,-113,-263,571,1262,-269,-198,-197,-173,-613,635120
377,31,-101,-95,13,12,402,328,-143,-23,231,196,-81,101,60,478,-150,-171,-419,386,1348,243,-174,-421,862,1997,-399,-307,-346,-304,-871,635121
372,55,-73,-81,17,19,377,347,-67,-152,-7,75,34,210,62,467,-141,-153,-415,342,1363,211,-183,-395,835,2084,-386,-305,-365,-297,-749,635122
113,45,6,-42,-14,-7,83,-38,21,-51,28,-12,-58,54,39,199,-84,-52,-204,81,703,65,-131,-173,298,1139,-170,-159,-212,-151,-105,635123
-82,29,68,-20,-21,-10,-142,-176,159,-12,-243,-165,-13,-104,-80,-19,-3,36,26,-106,53,-45,-62,48,-158,157,36,-11,-15,20,250,635124
-14,31,46,-13,-3,-6,-53,-81,16,-142,35,-100,54,-72,-36,41,-4,26,2,-42,159,-6,-44,15,-43,293,4,-30,-18,5,82,635125
-40,30,39,1,-5,-18,-73,28,15,-38,96,-5,161,160,-87,13,17,53,44,-59,66,-26,-27,45,-99,116,41,5,10,30,130,635126
0,16,23,-10,-9,-22,-32,140,-29,81,297,-45,185,2,-47,41,-13,15,8,-30,148,-29,-32,-20,-30,229,-17,-41,-26,-5,14,635127
-2,-2,15,-25,-18,-28,-49,71,13,-4,231,-113,-9,-62,-19,31,-22,-4,0,-24,149,-3,-45,-36,-32,237,-33,-63,-38,-11,29,635128
66,-1,-9,-47,-8,2,36,-114,84,-43,227,79,56,-58,-9,131,-32,-31,-65,81,379,68,-67,-83,147,587,-86,-115,-78,-37,-216,635129
307,50,-49,-54,33,45,273,8,69,106,255,59,28,50,67,390,-110,-117,-298,312,1044,210,-143,-291,646,1602,-282,-246,-244,-183,-712,635130
452,70,-73,-75,45,49,427,202,-103,4,170,94,-95,12,94,562,-157,-169,-469,448,1543,282,-182,-437,978,2425,-423,-330,-388,-311,-841,635131
364,75,-45,-67,13,7,371,100,-160,-132,156,121,-134,-6,83,502,-110,-113,-395,356,1413,235,-152,-366,834,2303,-339,-272,-334,-262,-640,635132
57,45,20,-45,-28,-37,54,-182,-49,31,164,-18,-31,0,56,192,-33,-3,-136,45,622,59,-90,-93,232,1166,-94,-108,-139,-92,-33,635133
-143,21,60,-23,-39,-49,-169,-41,-61,104,20,-58,19,-144,-10,-30,30,78,96,-144,-24,-71,-25,112,-209,169,117,44,44,69,331,635134
-115,16,48,-28,-33,-49,-149,67,-2,-54,158,-75,-28,-115,-38,-26,19,50,85,-108,-28,-56,-32,83,-182,126,82,25,39,58,222,635135
-50,22,33,-16,-9,-32,-101,-63,149,-105,75,-102,193,-2,22,12,13,32,55,-58,62,-15,-35,46,-99,227,36,-1,21,41,105,635136
-62,18,39,-15,-11,-27,-118,-127,152,-90,-172,27,164,-99,28,-18,5,28,46,-85,-3,-42,-37,51,-140,120,43,-6,22,42,126,635137
-67,2,27,-14,-24,-25,-124,-88,52,113,-77,39,110,-62,4,-25,1,27,36,-83,-38,-30,-24,55,-144,73,39,-4,25,40,135,635138
-41,8,15,-7,-29,-25,-82,-78,-47,152,135,7,26,82,39,20,27,50,66,-47,17,-12,3,56,-85,124,43,15,42,52,115,635139
84,21,-15,-34,-21,-15,52,66,-29,5,251,-31,11,117,60,152,-13,-7,-41,84,359,53,-24,-61,172,652,-65,-49,-33,-23,-138,635140
190,24,-9,-46,8,16,146,58,-23,-9,344,69,42,118,-50,240,-58,-53,-154,163,638,98,-67,-171,350,1096,-166,-119,-129,-109,-385,635141
215,28,-2,-48,12,28,180,88,21,-68,125,73,267,-94,-38,260,-84,-75,-234,159,748,95,-115,-221,387,1292,-217,-158,-190,-164,-376,635142
60,5,17,-44,-10,3,13,-30,7,54,153,15,99,-229,58,111,-55,-33,-122,14,388,6,-93,-106,107,796,-111,-99,-130,-93,-6,635143
-60,0,43,-28,-32,-16,-126,-11,57,-17,24,-22,171,-190,57,-6,-9,28,25,-75,33,-35,-41,35,-125,249,27,-14,-7,14,260,635144
5,10,19,-12,-24,-11,-14,-124,11,45,18,-21,28,-181,-40,69,-7,26,4,1,175,21,-26,9,13,458,8,-26,-9,6,21,635145
-24,17,26,1,-32,-31,-31,-125,-41,151,-52,-44,-93,-201,-22,49,37,48,49,-22,87,-3,22,50,-50,325,47,7,27,27,91,635146
-10,30,16,4,-18,-36,26,9,-9,67,-245,5,-117,-55,7,78,55,56,63,27,142,22,64,54,22,404,48,23,46,33,88,635147
-6,30,21,10,-6,-20,51,9,-2,-10,-128,-49,-27,44,-13,88,69,76,76,38,128,44,72,73,24,387,61,58,75,58,136,635148
5,30,18,4,-9,-18,105,66,111,49,21,-62,-39,100,29,102,25,35,21,33,176,40,20,23,55,464,19,20,20,28,26,635149
99,35,-10,-15,-7,-15,224,150,-53,-42,125,-58,-16,7,27,174,-55,-49,-112,110,458,64,-56,-118,266,899,-116,-94,-91,-79,-255,635150
210,51,-38,-27,5,-7,306,-83,-64,29,10,-1,-149,60,37,265,-103,-99,-240,186,764,112,-120,-244,471,1388,-235,-187,-197,-173,-505,635151
194,47,-18,-41,1,3,220,-161,-25,-18,17,32,-74,83,51,261,-92,-79,-237,161,762,104,-115,-243,438,1402,-211,-182,-216,-175,-375,635152
5,5,37,-47,-12,-8,-63,-99,83,-61,-116,-50,76,-91,-22,72,-47,-12,-76,-31,273,-20,-60,-74,67,692,-48,-80,-104,-56,15,635153
-66,-5,39,-38,-21,-9,-141,-269,26,44,-125,-44,-128,-16,-57,-8,-13,18,16,-93,36,-59,-31,16,-80,291,17,-19,-7,19,75,635154
-35,-5,46,-26,-12,17,-118,-438,6,-81,32,-84,-168,51,-100,-18,-37,-10,-2,-92,15,-76,-62,-20,-88,259,-8,-35,-21,-2,37,635155
-25,6,52,-13,6,15,-98,-277,-19,-131,85,-168,42,-127,-90,-16,-36,-5,19,-85,-13,-66,-53,-4,-92,228,19,-25,-2,10,80,635156
-74,-5,32,-19,-23,-24,-114,-90,-32,-105,124,-135,65,-254,-69,-21,3,12,70,-91,-77,-49,-22,46,-131,84,63,20,35,44,191,635157
-63,-1,26,-9,-34,-32,-79,128,-117,-67,48,-38,50,-14,-19,13,32,39,83,-47,-36,6,15,55,-82,117,69,42,53,53,135,635158
-60,10,21,7,-32,-36,-56,-7,-93,156,-62,-60,-95,14,-10,15,28,46,71,-44,-34,7,9,48,-81,113,61,18,46,56,126,635159
27,8,-6,-2,-14,-35,68,58,-113,56,24,-49,-162,198,61,122,-16,-5,-45,79,265,63,-20,-48,156,548,-34,-54,-19,-12,-173,635160
106,16,-7,-34,3,2,122,-32,-127,32,-104,-26,-95,126,-49,184,-38,-28,-116,135,458,92,-44,-124,292,869,-104,-98,-80,-62,-248,635161
138,9,5,-46,6,13,103,93,-141,-74,-33,-27,-53,29,24,177,-45,-29,-123,111,452,70,-54,-128,264,905,-99,-95,-94,-69,-145,635162
56,13,22,-39,-2,4,18,61,-115,-17,70,-53,92,-109,16,88,-22,3,-43,32,243,21,-30,-54,93,618,-28,-59,-60,-29,-27,635163
-73,-6,32,-27,-29,-16,-110,-10,26,50,-3,-176,-133,-66,-21,-48,5,34,57,-105,-81,-58,1,43,-152,131,39,2,7,27,121,635164
-54,-12,27,-41,-37,-9,-79,-123,-33,-91,46,-99,10,121,-71,2,11,35,53,-57,-28,-15,0,40,-82,223,27,19,27,27,108,635165
-61,-7,48,-35,-37,0,-88,49,-57,-38,-101,-91,92,47,-32,0,34,57,58,-43,-62,-3,17,76,-96,180,67,51,56,39,204,635166
-42,-12,50,-24,-7,14,-60,136,-59,-47,-173,62,8,-156,62,-7,23,36,41,-44,-59,-2,22,57,-84,195,54,33,48,38,140,635167
-2,1,31,-18,-4,12,-38,-69,-83,-32,-79,135,34,-178,20,-1,-6,2,4,-36,8,-23,-18,8,-30,305,-6,0,15,7,-34,635168
15,10,20,0,-2,1,-10,109,-20,3,88,-19,101,140,9,28,-4,3,1,4,65,-6,-11,8,25,391,-3,7,20,11,-41,635169
27,28,13,19,-1,-12,41,54,76,-69,77,-54,25,172,-8,73,17,23,6,48,132,41,15,9,95,491,14,3,31,21,44,635170
21,20,-9,-9,-21,-37,44,24,69,-8,180,18,157,115,34,72,-5,1,-30,35,153,26,-9,-34,105,510,-16,-39,-8,-14,19,635171
3,15,9,-4,-4,-22,13,-21,56,111,-137,11,8,163,17,35,-7,-2,-22,-2,92,-9,-13,-38,40,388,-16,-39,-11,-21,-59,635172
-61,0,35,-14,-6,-12,-82,-23,44,86,-439,14,55,-23,-13,-38,4,20,30,-70,-98,-61,-16,15,-113,90,32,-8,19,17,-8,635173
-49,12,43,-9,-3,-8,-73,66,-25,-59,-454,-83,163,-11,-22,-21,31,38,79,-47,-109,-34,11,45,-101,49,58,30,54,61,19,635174
-50,5,36,-4,-20,-11,-64,51,-26,-51,-219,-116,211,-88,-20,-18,38,45,78,-39,-97,-29,13,49,-104,20,62,41,67,59,116,635175
-33,-8,7,-3,-24,-19,-19,111,-138,-92,10,-74,96,-46,-12,15,18,17,29,-3,-8,-21,-3,3,-26,134,20,17,39,32,32,635176
-21,3,18,4,-4,-6,-10,84,-113,-135,197,-82,-2,4,-58,22,17,21,43,0,-13,-22,8,13,-22,127,33,37,41,39,42,635177
1,17,27,16,28,5,1,159,-89,22,10,-13,78,-57,-19,42,14,27,45,19,8,-5,2,18,-6,162,41,36,46,41,92,635178
-9,9,11,5,9,-19,-38,161,3,14,-37,-91,140,9,19,-4,-2,3,13,-26,-55,-30,-9,1,-70,74,42,2,19,35,97,635179
46,17,6,14,12,2,19,142,-27,-131,-68,-15,183,29,45,55,3,12,-6,20,54,11,3,-27,16,246,14,-18,-1,15,36,635180
21,3,-12,9,-9,-25,20,247,-128,-67,-42,26,106,-69,-7,62,5,20,-16,31,85,31,-4,-25,33,290,-14,-31,-14,0,26,635181
-24,8,6,2,-12,-20,17,-49,-93,-220,-15,-1,-1,29,-13,56,28,28,13,26,53,20,17,-2,18,248,24,5,20,24,71,635182
-45,14,30,20,3,-1,-20,-124,-111,-145,28,-159,-69,49,-47,5,35,47,60,-28,-79,-26,19,53,-72,62,72,44,54,63,192,635183
-38,18,30,25,17,4,-24,-100,-135,-22,62,-88,-93,142,18,-9,31,31,50,-39,-89,-33,12,40,-70,53,62,41,56,47,113,635184
35,1,-4,1,7,4,21,-32,-92,90,58,-31,-77,128,15,52,-5,-7,-49,35,112,24,-10,-48,77,378,-35,-19,-15,-24,-48,635185
55,8,15,5,16,17,1,-180,-37,-8,-36,0,-125,-167,39,39,8,7,-37,25,84,41,-2,-14,59,383,-3,4,-2,-4,108,635186
77,32,20,22,27,29,27,-20,7,-129,29,-16,79,-54,1,63,3,3,-40,48,130,50,2,-12,99,472,-14,1,-3,-6,47,635187
11,11,18,10,3,17,-16,-1,10,-152,-44,-115,215,-43,43,3,-26,-9,-38,-15,9,-15,-20,-20,5,309,-13,-11,-21,-26,-9,635188
-2,6,20,1,-5,8,-5,41,-25,196,-4,-19,39,-85,48,-17,-38,-23,-34,-38,-11,-37,-31,-25,-6,284,-22,-16,-26,-37,8,635189
-38,2,19,17,-3,-7,-18,-96,-66,-22,101,89,42,-4,29,-31,12,28,49,-45,-101,-27,14,44,-62,119,56,56,43,37,79,635190
-6,-5,-3,-12,-6,-8,-2,62,0,-63,191,35,139,186,-50,12,-5,12,9,-2,-12,-10,-9,1,23,240,24,21,21,8,2,635191
5,-13,-13,-31,-2,5,-56,23,-74,-41,211,-2,85,96,19,13,-23,-11,-33,1,15,-19,-34,-36,24,256,-25,-14,-2,-18,17,635192
-24,-17,2,-39,-18,-1,-116,122,-40,84,119,64,190,120,-14,4,-12,-9,-7,-21,-10,-43,-7,-10,-16,183,-10,3,1,-1,116,635193
7,3,9,-19,7,5,-109,190,47,-79,-94,21,266,206,18,40,8,4,-5,15,42,2,3,0,35,238,14,8,16,8,13,635194
-15,-5,-5,-7,-2,-13,-82,103,-30,166,-135,-40,181,56,77,40,20,27,17,20,20,10,9,23,39,196,47,40,38,44,9,635195
-56,-12,-3,8,-27,-27,-14,132,-135,107,-15,-16,-28,-33,62,7,22,31,39,-14,-53,-10,32,28,-7,85,45,51,43,46,43,635196
-53,4,11,22,-7,-18,35,79,-176,136,-3,-53,-48,86,73,-6,49,49,82,-29,-105,-18,56,49,-44,-16,75,82,74,64,134,635197
-24,17,1,34,12,-4,56,-84,18,16,187,-87,-44,74,25,10,32,18,49,-32,-71,-18,15,19,-16,35,34,46,54,42,123,635198
-21,6,-1,25,16,8,29,-66,104,-159,122,5,-141,-70,-38,-14,-9,-7,8,-54,-83,-43,-13,-11,-37,11,10,22,19,8,56,635199
44,7,1,15,40,23,47,51,89,-94,-132,1,-44,-64,-20,8,-21,-13,-22,-20,-7,-26,-23,-28,21,114,-11,5,0,-9,-12,635200
73,7,-14,20,24,20,58,-88,140,-12,-135,-45,-13,-132,24,31,-18,-20,-34,15,60,5,-31,-29,82,223,-20,3,-7,-10,-59,635201
41,-10,-35,-1,-6,-15,69,-102,66,9,221,-8,-68,40,-10,39,-47,-42,-84,31,98,10,-53,-66,99,323,-46,-34,-37,-36,-73,635202
25,-7,-14,-6,-8,-14,47,179,-10,-10,3,7,-99,33,-95,2,-61,-44,-107,-9,52,-23,-55,-83,43,283,-56,-55,-57,-60,-67,635203
-42,-4,20,23,1,-11,-44,214,-67,-56,-68,50,59,125,-54,-86,-23,-6,-39,-101,-185,-78,-26,-13,-143,-53,20,2,-12,-15,48,635204
19,13,13,30,26,7,28,204,6,97,45,69,65,111,87,17,20,25,-18,19,-35,-2,18,-11,-7,154,18,39,16,10,27,635205
8,0,17,12,20,3,19,-69,63,41,4,-17,-34,61,94,24,9,16,-6,30,-4,13,18,1,13,214,9,50,23,10,-21,635206
9,-4,16,9,14,1,-3,-306,44,-33,-117,-1,-97,118,-62,15,5,14,0,22,-24,6,9,6,9,202,17,60,13,12,-46,635207
61,21,17,23,30,14,70,-50,-7,-19,-64,16,19,-46,-38,53,11,16,-13,76,87,27,21,-12,89,357,8,52,-15,-5,-1,635208
65,23,7,14,21,1,106,54,-126,-138,-10,21,66,-61,-59,82,7,21,-36,88,151,36,13,-37,143,479,-13,48,-25,-22,4,635209
-25,-8,6,-3,-9,-29,23,293,-38,-194,-56,92,26,-3,11,17,49,45,47,25,-43,2,27,47,4,186,44,112,40,35,99,635210
39,3,4,11,14,5,85,239,28,-209,-125,117,95,-63,36,58,16,14,1,53,70,28,2,2,89,339,-2,81,9,12,-45,635211
36,-1,6,9,14,31,50,81,43,-214,-11,-19,203,-123,-10,15,-27,-17,-23,-8,1,-12,-27,-27,30,259,-22,36,-26,-27,59,635212
-9,1,41,28,9,43,-24,-108,-14,-167,-86,-138,-33,-162,3,-44,3,15,28,-71,-175,-48,1,26,-105,-10,42,65,11,17,267,635213
9,-1,34,16,7,32,40,-108,5,-207,-152,-119,33,-118,-32,-11,4,2,14,-37,-75,-7,7,5,-33,89,13,56,6,6,67,635214
8,-18,-1,-13,-9,5,51,-29,27,2,-125,-51,177,23,37,-1,-18,-18,-35,-47,-2,-9,-11,-41,-1,180,-33,31,-31,-30,4,635215
-1,-11,12,2,-2,4,-19,89,-29,121,-65,63,-92,-12,-13,-16,-5,4,-2,-51,-62,-2,-8,-4,-55,64,10,46,-5,1,18,635216
25,-1,18,3,14,19,-17,-133,25,161,2,40,-90,-40,-14,1,-14,-8,-42,-15,18,19,-16,-38,3,172,-10,24,-18,0,-42,635217
14,4,27,-5,17,12,-21,-164,83,-16,20,-52,-60,110,-35,-7,-31,-16,-57,-33,17,-7,-28,-45,-15,176,-20,-4,-40,-17,-59,635218
-11,-7,39,-15,10,4,-41,253,167,-89,21,-64,46,3,-11,-32,-12,-11,-26,-54,-44,-33,-11,-11,-57,86,4,20,-20,-8,12,635219
4,-6,30,-6,2,0,1,-2,50,34,108,73,-30,-27,-49,-13,-35,-26,-45,-48,8,-30,-26,-56,-12,178,-31,14,-39,-35,-11,635220
11,1,24,7,7,-3,27,130,59,125,276,32,51,-104,53,18,-21,-10,-39,-18,48,-12,-10,-31,35,241,-17,42,-13,-18,15,635221
15,9,10,3,8,-2,27,162,90,74,65,51,-136,-41,70,41,-11,-4,-21,8,75,8,10,-7,71,297,-12,47,-4,-14,-45,635222
-6,17,22,8,8,-4,3,83,95,-70,2,-23,1,64,4,23,23,18,16,-1,13,-2,15,14,30,180,21,73,38,3,-113,635223
-31,5,22,13,0,-19,-36,-33,34,36,-70,-62,-70,5,-34,-8,51,40,70,-15,-96,3,44,59,-46,29,59,116,73,42,73,635224
33,25,12,20,21,-12,44,0,-30,-128,65,44,-69,-17,39,54,18,13,18,73,80,47,31,2,81,296,5,62,18,12,-28,635225
27,8,-10,-1,13,-8,30,82,-90,-204,133,28,7,23,-7,39,-41,-37,-52,49,93,3,-39,-61,73,363,-57,-9,-48,-49,-84,635226
-13,1,1,6,3,-6,-26,48,21,15,115,-107,35,4,-52,-27,-40,-22,-32,-4,-42,-40,-54,-20,-46,169,-14,-2,-38,-34,-13,635227
3,-8,-1,-13,-1,-19,-18,31,36,215,60,-51,11,-149,-67,5,-36,-20,-53,18,12,-13,-56,-30,-12,256,-18,-14,-48,-35,-64,635228
25,-3,-1,-18,6,-18,1,-109,-70,-5,-30,59,-50,-257,-31,38,-17,-14,-52,41,57,8,-25,-33,31,325,-33,-8,-25,-35,-46,635229
77,14,-5,-10,28,-1,72,-136,47,-8,32,1,-56,-173,7,104,-5,-4,-63,95,210,58,0,-54,144,536,-50,4,-32,-35,-101,635230
124,21,-19,-14,27,0,156,100,-80,32,131,0,-136,-48,24,178,-17,-29,-102,160,404,90,-15,-98,282,835,-93,-22,-71,-65,-178,635231
132,14,-25,-11,22,0,171,228,-18,-39,268,32,-208,-43,45,169,-51,-63,-139,134,450,78,-58,-122,287,916,-119,-59,-117,-87,-226,635232
99,27,-2,-5,20,7,134,2,-67,101,132,24,-111,-56,-16,119,-32,-31,-117,73,336,59,-47,-89,185,760,-89,-40,-94,-71,-125,635233
0,21,18,9,-1,-7,37,-121,-31,119,214,-63,3,-79,-61,22,25,47,25,-22,42,20,11,38,-32,303,33,53,5,25,97,635234
-41,21,13,18,-10,-35,28,-80,-26,125,150,30,29,-18,-63,15,37,58,69,-33,-12,26,43,63,-57,200,66,81,37,51,80,635235
-52,29,44,17,-2,-17,-47,-271,118,-57,28,-61,-35,141,-39,-15,53,75,116,-55,-95,4,47,110,-127,51,110,120,79,78,102,635236
-14,10,38,7,13,0,-64,-133,109,-57,-48,-76,-27,-32,-8,-29,15,44,66,-67,-55,-10,24,56,-85,119,40,78,50,28,15,635237
-47,-13,23,-13,-8,-10,-90,9,36,6,-62,-50,-57,-47,24,-87,-17,0,32,-115,-115,-62,-7,20,-118,24,4,53,16,6,33,635238
-50,-5,21,-6,5,-7,-71,-96,-38,-1,54,-26,70,8,-11,-46,17,36,70,-65,-94,-10,33,65,-80,15,46,100,57,46,38,635239
152,18,-43,-19,19,-3,172,-54,-77,10,254,51,50,-31,-30,182,-30,-46,-116,160,467,144,-20,-118,339,869,-139,-27,-71,-79,-335,635240
353,31,-84,-53,17,15,392,166,-28,-245,263,97,108,103,4,384,-141,-167,-397,340,1095,228,-148,-381,751,1889,-375,-233,-309,-276,-697,635241
395,42,-80,-75,18,18,420,239,-137,17,191,66,45,69,55,448,-167,-182,-470,375,1300,253,-185,-442,852,2280,-432,-295,-391,-329,-750,635242
226,31,-43,-59,-1,-4,222,218,-44,-5,145,4,70,52,-14,307,-91,-80,-301,212,906,142,-119,-267,517,1744,-255,-178,-268,-213,-307,635243
-67,18,43,-15,-31,-35,-116,-13,137,96,-73,-24,173,-75,-81,-3,30,63,24,-68,43,-40,-16,52,-109,457,58,23,-16,12,230,635244
-43,37,47,11,-8,-32,-68,-43,128,-68,-246,-31,116,-186,-40,-8,19,40,47,-53,-18,-54,-4,49,-119,360,58,12,-3,25,129,635245
-73,18,32,-4,-20,-46,-95,23,120,2,-128,-63,215,-10,-29,-49,-15,13,37,-105,-109,-117,-31,35,-174,218,38,6,-2,16,68,635246
-83,10,26,1,-27,-44,-105,11,100,210,-136,-159,45,10,-22,-54,-11,23,45,-95,-154,-111,-32,51,-191,127,53,26,31,33,181,635247
-66,7,30,4,-9,-26,-80,144,43,133,47,-96,-67,97,-34,-25,6,23,49,-44,-119,-60,-20,66,-137,149,61,35,45,42,184,635248
57,12,10,-3,8,3,31,63,21,-18,-4,-43,14,70,-5,81,-26,-9,-45,52,168,17,-37,-26,79,571,-31,-29,-33,-23,-51,635249
331,27,-84,-53,27,19,367,113,-110,138,105,63,26,99,40,386,-134,-152,-326,340,1001,181,-143,-316,682,1849,-312,-228,-258,-222,-770,635250
671,86,-178,-74,47,27,809,412,-228,66,440,286,-324,206,128,818,-245,-277,-701,713,2169,431,-259,-675,1485,3702,-660,-463,-563,-474,-1405,635251
612,103,-162,-87,-3,-23,775,494,-101,3,503,288,-267,168,124,828,-214,-227,-705,667,2269,442,-247,-647,1473,3973,-631,-457,-579,-473,-1231,635252
261,63,-73,-83,-54,-65,364,208,-79,-41,122,14,-21,-57,-9,465,-144,-110,-454,283,1421,225,-201,-389,771,2786,-346,-305,-399,-310,-475,635253
-223,15,72,-32,-98,-93,-243,-303,51,-41,-184,-185,-139,-331,-125,-111,-14,61,25,-256,-70,-131,-74,65,-326,553,82,3,-45,4,439,635254
-196,13,95,-26,-36,-21,-270,-383,42,-14,-232,-175,-190,-194,-123,-166,-2,60,122,-259,-273,-136,-33,120,-398,185,106,43,40,67,413,635255
-96,19,96,-13,-2,15,-246,-244,177,97,-238,-138,-57,-325,-45,-125,1,34,102,-211,-224,-91,-35,94,-312,199,88,36,54,69,304,635256
-86,8,88,-3,-11,0,-236,-152,251,-102,-324,-168,138,-294,-27,-108,-8,21,90,-186,-187,-71,-15,82,-264,215,75,32,55,63,217,635257
-94,-13,64,-18,-29,-13,-186,-188,169,-59,-218,0,188,-118,-36,-72,11,34,96,-130,-139,-38,-4,77,-218,257,74,56,69,67,166,635258
-79,8,79,9,-8,-1,-148,-32,101,47,-209,74,86,0,-28,-51,57,72,148,-89,-120,-5,32,121,-206,245,97,100,115,97,203,635259
45,30,35,5,6,1,24,20,-47,71,51,41,-28,45,27,103,13,5,21,59,256,74,11,-13,76,805,-27,13,12,10,-123,635260
167,45,-5,-16,20,13,204,91,-121,113,213,85,50,170,25,251,-47,-59,-132,170,638,116,-49,-166,347,1425,-155,-106,-127,-104,-429,635261
201,32,-33,-42,10,-5,221,51,-40,103,96,83,-23,-50,67,273,-77,-73,-208,179,763,126,-91,-229,401,1660,-216,-163,-190,-163,-476,635262
84,19,2,-52,-14,-25,51,-171,-25,201,78,92,71,-106,-34,155,-33,-13,-96,61,440,69,-55,-98,152,1220,-96,-95,-110,-84,-124,635263
-45,11,54,-27,-18,-19,-110,-150,90,80,-149,-50,188,-153,-75,5,6,48,56,-66,19,-35,-12,43,-130,599,47,2,4,30,219,635264
-16,9,22,-16,-21,-24,-48,7,36,-11,-189,-75,197,-142,-54,34,-18,18,23,-30,79,-34,-36,17,-45,690,25,-24,-13,9,57,635265
-65,8,27,-16,-36,-32,-82,50,32,226,-203,-88,104,-23,-94,1,-5,32,43,-71,-29,-70,-36,41,-114,526,48,-8,15,18,61,635266
-46,4,22,-31,-31,-38,-51,53,54,22,-4,-17,7,-68,55,16,1,16,26,-47,2,-63,-26,24,-81,573,34,-6,1,5,29,635267
-47,1,11,-26,-30,-42,-60,-109,64,-37,-147,-72,2,26,35,31,11,21,31,-45,6,-61,-17,24,-76,586,24,-4,20,5,32,635268
-45,0,4,-25,-26,-32,-69,-84,91,-86,-113,-147,-3,38,-28,36,-7,1,-3,-45,15,-57,-32,2,-74,604,6,-31,-10,-15,-17,635269
-145,-9,65,2,-21,-12,-240,-276,168,70,-327,-97,-65,-52,-66,-133,8,37,95,-202,-373,-145,-11,103,-384,3,103,9,48,39,258,635270
-80,-15,40,-7,-17,-11,-165,-136,-4,-53,-158,-68,-42,-72,-20,-96,-11,7,39,-140,-247,-98,-21,39,-287,142,45,-27,15,13,118,635271
-33,3,32,-3,-18,-9,-64,80,121,74,-223,-102,74,-5,-50,-22,16,31,51,-65,-110,-21,8,41,-172,298,56,-3,23,25,116,635272
-28,4,13,0,-15,-21,-42,-30,10,2,-91,-137,-15,-58,-26,-25,-7,20,42,-62,-72,-13,-14,34,-158,321,42,-1,18,12,1,635273
-24,-6,14,14,-2,-10,-47,17,-11,249,11,46,16,-43,18,-38,-14,9,48,-62,-72,-20,-9,28,-156,301,20,1,14,17,-11,635274
1,3,30,15,8,6,-37,142,20,-21,-67,32,1,-77,-39,5,0,8,43,-27,25,20,15,0,-73,437,-3,-14,13,4,28,635275
-48,-12,25,-18,-10,-19,-116,-54,61,-15,-163,33,150,111,-46,-11,18,24,59,-45,-25,20,21,21,-91,378,16,0,31,24,102,635276
-80,-20,19,-25,-20,-33,-171,56,60,-43,-30,52,33,117,-8,-23,25,35,67,-50,-89,25,11,46,-138,275,40,9,48,38,115,635277
-80,-5,38,-7,-5,-11,-193,-93,5,56,-280,30,72,-38,17,-27,46,63,99,-51,-129,26,54,81,-172,181,83,36,70,69,123,635278
-82,-20,36,-15,-17,-11,-192,-187,-69,-12,-256,-125,63,-44,0,-58,36,51,107,-77,-175,-17,48,77,-207,113,75,44,76,73,169,635279
-143,-28,41,-4,-27,-10,-180,118,62,66,-61,-82,17,37,-19,-111,76,84,176,-107,-317,-31,81,143,-292,-122,139,96,136,119,305,635280
-237,-13,65,31,-16,-17,-213,-98,-119,11,-84,-91,-29,10,44,-195,124,133,294,-175,-597,-66,125,250,-476,-573,236,158,229,188,436,635281
-241,-20,62,46,-15,-11,-223,-158,-154,-11,-146,-111,102,-31,-39,-244,94,106,310,-225,-701,-131,112,245,-543,-761,229,157,216,183,408,635282
-184,-23,29,36,-9,-12,-181,-152,64,-31,-194,-100,56,41,-59,-202,45,57,244,-192,-605,-124,82,192,-456,-619,171,108,163,147,303,635283
-8,-22,-16,8,11,1,29,-239,82,-113,-15,21,-103,-31,-13,-9,8,-11,74,6,-113,-22,46,30,-70,107,8,24,57,23,-36,635284
10,-25,-23,-7,-8,-17,42,-217,16,99,-40,63,-13,38,17,3,-31,-37,-4,2,-16,-26,-2,-22,-11,292,-33,-25,7,-33,-100,635285
-24,3,14,14,8,10,-4,-141,89,80,5,34,9,-90,15,-35,6,14,48,-34,-147,-28,30,43,-135,122,39,14,46,24,77,635286
-32,2,1,4,-3,6,14,70,-119,3,68,124,-15,-63,3,-33,6,-1,40,-35,-142,-37,23,32,-146,145,27,-7,29,5,14,635287
-33,-13,0,-2,-10,5,12,101,-70,-8,4,86,38,-10,22,-34,0,-13,15,-45,-150,-51,14,10,-136,147,15,-25,21,-11,-36,635288
21,-14,-12,-4,-6,-4,53,111,-13,-60,95,-29,-15,-27,47,16,-28,-38,-51,18,14,-12,-14,-41,-20,392,-33,-76,-31,-44,-147,635289
-129,-18,25,12,-31,-25,-172,28,-71,64,-74,-88,174,-64,-73,-157,-7,17,61,-163,-400,-111,25,80,-348,-236,93,-23,46,41,258,635290
-333,-44,67,27,-53,-36,-405,-168,80,90,-141,-130,73,12,-147,-386,75,104,276,-367,-1008,-219,105,276,-777,-1229,284,123,213,186,617,635291
-316,-53,69,35,-27,-21,-377,-276,45,277,-187,-142,-99,106,-142,-398,94,112,337,-339,-1061,-222,122,300,-757,-1386,293,177,267,219,496,635292
-168,-39,35,38,5,-2,-191,-152,70,209,44,-24,-28,58,-60,-243,60,62,247,-191,-703,-149,94,198,-458,-918,176,138,205,151,244,635293
-3,-22,-30,16,11,10,-1,104,23,89,88,85,-56,49,57,-45,20,-6,62,-22,-218,-14,56,25,-90,-204,21,31,99,30,16,635294
26,-2,-18,28,6,19,51,219,91,-27,86,64,-21,-125,90,18,30,10,38,37,-62,36,58,15,11,19,18,24,81,31,-9,635295
-20,-20,-27,2,-14,-1,75,166,-20,-5,-73,38,3,41,57,-2,3,5,11,16,-55,10,37,-5,-5,39,-5,3,45,16,-33,635296
-14,-9,-33,6,-10,-7,107,122,-52,12,-52,34,-75,232,31,22,2,-5,11,26,-18,18,37,-8,17,98,-11,-8,27,9,-43,635297
17,-3,-38,29,-5,-9,102,287,-101,-49,135,36,192,71,-1,45,13,1,29,55,41,58,45,-8,57,199,-2,4,40,13,-60,635298
13,7,-22,36,4,9,69,118,45,-1,249,148,-18,-66,22,29,11,16,46,42,4,54,41,5,19,144,13,11,48,32,-24,635299
-17,-4,-22,16,0,19,21,78,18,-6,36,140,-74,31,1,-13,2,6,49,-6,-60,2,23,9,-29,52,15,1,37,32,-34,635300
-148,-28,13,4,-24,-5,-161,-281,113,48,-275,-23,-163,56,-16,-159,34,50,146,-151,-431,-99,44,113,-321,-486,124,60,105,95,231,635301
-172,-27,30,34,-13,-11,-184,-229,103,3,-34,-10,44,82,-97,-192,72,89,202,-165,-571,-99,83,173,-399,-738,185,109,172,147,321,635302
-109,-11,32,40,7,-3,-107,-152,122,46,-69,104,72,-74,13,-133,60,77,164,-95,-452,-30,90,138,-291,-580,144,89,159,130,273,635303
24,10,12,27,24,23,64,90,46,-55,-39,132,23,-96,16,-2,-14,-10,7,30,-78,15,24,-9,-29,0,0,-29,40,14,9,635304
50,-11,-5,13,19,31,91,88,-71,54,-40,38,-110,59,24,31,-57,-52,-78,43,42,1,-27,-69,50,211,-63,-88,-28,-55,-137,635305
37,-18,-2,7,8,26,61,-41,18,119,63,109,-215,130,36,17,-31,-43,-69,41,28,-8,-20,-57,39,209,-50,-82,-34,-45,-94,635306
46,-14,2,3,18,18,56,-61,-24,-129,87,152,-103,132,-11,37,-21,-37,-50,44,63,-5,-4,-53,75,289,-60,-64,-23,-37,-103,635307
44,12,18,20,17,35,45,123,-62,-118,85,128,-59,52,28,16,-5,-9,-14,18,6,-18,27,-21,31,219,-25,-39,5,-15,-66,635308
48,16,6,15,6,38,63,128,-20,119,170,62,93,201,12,28,3,2,-1,42,38,-4,35,-11,44,249,-11,-15,13,-18,-119,635309
-125,-14,33,13,-25,2,-139,-64,-58,-179,12,8,116,196,-78,-139,32,50,134,-138,-395,-112,50,121,-293,-391,115,73,96,56,222,635310
-214,-34,63,24,-25,13,-272,-311,1,-122,-183,-62,169,46,-85,-262,64,82,245,-246,-736,-160,82,225,-523,-962,207,145,191,138,412,635311
-165,-22,55,39,8,23,-220,-313,28,-155,-297,34,222,-231,-41,-232,71,93,239,-183,-673,-101,101,213,-462,-952,206,148,205,155,381,635312
-68,-9,26,40,25,24,-91,144,66,-108,-13,28,-50,33,-13,-131,54,48,160,-72,-427,-41,74,119,-264,-609,119,85,138,110,181,635313
58,-5,-6,25,33,20,68,131,20,-227,60,120,-45,167,-11,-5,-13,-30,-14,48,-20,18,8,-39,33,2,-28,-39,11,4,-164,635314
67,2,-18,28,24,16,94,13,-18,-282,109,-6,91,160,7,34,-13,-25,-51,75,88,33,-3,-55,96,181,-49,-49,-27,-15,-193,635315
11,3,-9,26,22,13,74,-24,-27,-137,97,93,79,7,-97,-10,-4,-8,-12,21,-13,2,18,-27,10,45,-26,-34,-15,-6,-32,635316
-20,-7,-7,9,2,12,60,6,-82,94,-89,83,71,77,-67,-27,3,-4,2,-2,-63,-10,19,-17,-36,-30,-4,-20,-8,-6,30,635317
-18,3,12,17,8,26,51,-3,-37,18,25,-33,-50,118,-90,-24,29,20,51,-12,-116,6,36,24,-81,-124,34,12,30,34,66,635318
-48,-16,-8,4,-7,7,-7,35,-3,-35,-164,-62,-239,34,-70,-75,5,1,23,-70,-209,-45,4,8,-155,-254,17,-20,6,15,80,635319
-73,-23,13,4,-1,13,-76,-131,26,-100,-255,-104,62,-65,-23,-122,3,-5,26,-96,-299,-73,-3,14,-224,-390,34,-19,10,31,86,635320
-60,-23,10,2,2,13,-73,-77,73,79,-263,90,46,-66,26,-101,3,4,41,-54,-265,-41,10,32,-181,-352,44,5,38,52,146,635321
-36,-12,15,8,10,21,-46,119,52,39,-16,54,81,5,-19,-68,12,19,45,-23,-203,-18,32,50,-126,-280,50,10,60,51,167,635322
-18,-6,1,5,7,26,-17,59,17,-26,-209,-12,-9,-12,39,-47,-1,5,15,5,-126,-15,23,14,-64,-172,14,-12,37,22,-11,635323
-5,-13,-12,-1,14,20,5,64,-98,-8,97,-110,-41,16,109,-18,-10,-3,-15,21,-58,10,14,-5,-22,-50,-15,-30,12,17,-102,635324
14,-5,-26,-5,3,4,56,163,14,26,277,118,-147,204,67,26,-14,-16,-32,59,23,42,9,-35,38,98,-26,-41,-5,0,-95,635325
-38,-7,-27,0,-20,-24,19,152,-23,-125,22,9,-193,86,-1,-9,4,0,-4,21,-63,18,11,-4,-39,-16,-2,-28,5,5,28,635326
-28,3,-16,4,-12,-20,49,33,-29,-94,-23,-34,-64,5,54,26,11,2,-18,46,3,49,19,6,36,64,1,-27,24,-3,-55,635327
-9,1,-26,-2,-18,-15,69,-75,-4,-132,-65,115,1,93,51,34,-24,-39,-58,48,72,26,-4,-37,90,174,-39,-48,-24,-47,-130,635328
24,-4,-31,-14,12,-5,35,69,-43,-100,18,136,92,40,36,-2,-70,-80,-118,29,100,-25,-57,-101,78,242,-108,-110,-93,-104,-136,635329
-126,-1,41,-1,12,4,-200,-22,-18,-18,12,-29,26,-125,-3,-186,21,28,92,-153,-432,-120,26,105,-321,-550,97,44,70,43,348,635330
-110,-18,50,8,20,39,-218,-45,63,150,-99,17,260,-82,-56,-200,58,65,190,-151,-540,-112,71,179,-365,-784,150,105,156,120,378,635331
-79,-30,35,4,15,35,-174,-116,-23,198,-167,-98,288,-93,-57,-173,36,34,109,-115,-480,-64,43,116,-307,-716,99,53,119,85,268,635332
-57,-31,23,9,10,21,-108,-106,58,-41,-196,10,204,18,8,-122,25,22,50,-58,-368,-13,31,73,-221,-551,54,21,75,54,100,635333
46,-10,-6,29,21,31,56,76,27,-99,184,44,138,138,30,10,-10,-7,-38,58,-42,37,-10,-35,0,-68,-32,-51,-13,-14,-138,635334
52,-6,-24,11,4,16,75,141,16,61,167,36,43,41,13,9,-40,-43,-77,36,46,-20,-46,-83,18,86,-69,-69,-84,-64,-211,635335
9,7,-9,30,4,9,53,3,-22,126,278,7,-56,-43,73,-18,-2,-20,5,5,-52,-36,6,-21,-55,-27,-12,-8,-36,-16,-59,635336
34,16,-12,30,12,9,78,-43,-33,64,168,55,-50,-30,50,13,18,3,36,31,-11,-6,34,2,-1,13,6,14,-1,14,-6,635337
24,4,-14,9,10,6,73,2,7,63,112,0,-219,-73,18,8,14,-5,23,27,7,-14,36,-14,26,35,-9,-1,-4,9,29,635338
-1,3,-2,8,2,5,32,59,87,187,169,12,-48,1,-5,-15,8,3,19,0,-46,-26,25,-7,-4,-34,2,-4,-7,16,36,635339
-7,-13,-11,3,-7,-10,-28,-47,91,-10,163,-63,188,-107,-8,-37,-2,3,18,-23,-89,-52,18,-6,-36,-102,6,1,-5,20,13,635340
-5,-7,-19,-4,-12,-16,-44,-3,130,-214,-75,-71,93,49,-69,-38,-9,-3,-5,-19,-80,-26,12,0,-20,-97,7,14,10,22,12,635341
37,11,-15,5,-3,0,21,210,27,-136,-120,27,39,70,21,22,-3,-10,-27,43,46,29,17,-8,83,101,-9,-6,3,18,-66,635342
25,-7,-31,0,-13,-9,40,139,-90,-236,-52,-22,97,7,76,37,-7,-27,-40,65,113,16,-5,-46,103,205,-31,-25,-31,-3,-182,635343
-81,-14,-2,11,-25,-13,-83,77,-84,-73,46,-68,76,93,21,-46,38,28,49,-44,-159,-11,24,65,-125,-193,62,20,34,52,45,635344
-4,0,-9,12,6,18,5,59,-79,-62,174,12,-28,32,-23,13,26,-4,-6,38,-23,37,11,7,-9,13,-4,-22,-3,12,-75,635345
47,-2,-3,5,19,36,23,-76,-72,-17,144,-31,113,83,-3,19,-11,-35,-61,46,68,24,-20,-50,55,164,-54,-60,-59,-42,-93,635346
71,1,-4,5,33,58,1,25,1,69,-11,-78,8,112,-46,8,-16,-21,-46,29,43,7,-15,-34,42,129,-41,-44,-40,-31,-120,635347
70,-2,-15,1,21,32,-6,25,-52,-98,35,-31,-36,-107,-42,-3,-22,-21,-47,14,30,2,-43,-28,20,118,-30,-60,-50,-37,-75,635348
56,3,-16,-1,-1,3,31,98,-57,-54,-30,123,145,49,-51,27,1,-12,-13,30,63,36,-1,5,51,152,-15,-17,-11,-14,-22,635349
175,16,-69,-17,-7,-8,233,181,-35,-16,192,180,18,265,33,217,-7,-41,-120,210,517,155,-12,-115,412,830,-133,-64,-83,-88,-365,635350
347,50,-115,-33,15,-6,466,179,-72,-71,317,115,-38,246,112,456,-69,-109,-316,431,1167,275,-74,-303,875,1853,-314,-182,-238,-223,-750,635351
298,47,-87,-58,4,-19,386,171,-135,-139,178,102,-84,225,73,438,-63,-90,-313,378,1147,233,-65,-285,811,1913,-301,-184,-251,-226,-693,635352
146,38,-46,-58,-7,-9,140,18,-141,-198,62,114,-6,125,64,279,-22,-22,-184,219,751,145,-23,-155,482,1366,-158,-101,-165,-128,-270,635353
-25,28,11,-37,-11,-11,-150,-241,-30,73,-170,-131,43,-4,0,40,11,24,-11,19,172,-3,-6,7,53,505,3,-9,-54,-13,80,635354
-60,-6,18,-42,-19,-24,-226,-165,-6,111,-122,-78,-54,68,-18,-54,-14,-10,-18,-55,-22,-57,-49,0,-65,196,-2,-35,-43,-13,84,635355
-59,-12,29,-27,-16,-10,-164,67,23,-63,72,-103,65,27,-18,-49,20,16,15,-55,-86,-26,-17,50,-88,58,36,14,33,33,100,635356
-43,4,45,3,-5,4,-48,61,165,-73,218,-46,119,-69,-32,-34,47,51,60,-15,-80,-7,22,82,-66,28,64,51,74,70,153,635357
-63,-2,18,-1,-10,-28,-21,6,97,-31,194,-104,87,-124,5,-70,16,7,17,-55,-122,-51,-20,41,-99,-25,12,25,27,29,96,635358
-66,20,26,15,-5,-19,-33,7,-71,48,-101,-90,139,-40,36,-76,20,1,31,-66,-163,-42,-9,50,-109,-81,35,30,32,30,55,635359
-53,18,29,7,-9,-18,-55,-87,-90,26,25,-45,-93,-68,-34,-60,20,15,43,-49,-158,-26,6,60,-106,-93,43,28,37,27,58,635360
-11,5,11,11,-1,-12,-29,17,-120,-13,400,53,-5,-35,-14,-25,15,2,34,-22,-48,-14,14,28,-33,50,21,3,14,21,96,635361
-13,9,18,10,1,-4,-29,-98,43,-45,108,5,-104,15,-1,-22,27,-1,29,-16,-50,3,9,24,-31,53,22,4,16,31,132,635362
-56,6,33,10,-7,3,-56,-33,-19,-54,4,-51,-55,59,-23,-70,22,8,38,-57,-155,-22,-3,49,-123,-105,42,10,28,33,110,635363
-54,-15,-5,-12,-22,-18,-73,96,-70,5,154,-119,31,-17,-45,-82,-10,-17,4,-81,-152,-57,-25,17,-147,-100,11,-25,-5,6,4,635364
21,-14,-20,-24,-5,3,-9,56,13,-79,209,-120,-15,23,-84,-7,-10,-32,-46,-21,14,-20,-23,-44,-29,148,-36,-52,-40,-27,-92,635365
40,-9,-17,-18,10,10,-1,183,-9,-168,125,-15,42,-126,-44,5,-19,-36,-86,-34,34,-20,-32,-63,-13,211,-48,-68,-51,-48,-66,635366
-13,-9,5,14,-2,-1,-63,-91,130,27,27,17,154,-229,-65,-65,-5,-9,-18,-97,-136,-48,-6,16,-127,-54,10,-24,4,-2,95,635367
-15,-3,9,20,-1,1,-38,-172,104,109,147,-44,17,11,-72,-55,-9,-23,17,-78,-121,-54,-13,30,-90,-29,9,8,23,9,134,635368
10,20,2,21,4,2,35,-148,20,74,72,-40,-161,-118,30,7,3,-13,28,-28,-29,-19,-23,19,-4,109,3,5,12,1,21,635369
-52,11,6,13,-6,-1,-2,-168,139,-43,7,-91,-191,-158,82,-42,17,19,36,-49,-131,-15,-14,51,-96,-67,33,4,35,18,95,635370
-112,12,24,17,-5,-5,-72,-7,118,-66,10,-65,-57,-117,47,-93,36,42,84,-79,-301,-35,8,97,-238,-338,96,28,65,57,187,635371
-107,-3,1,10,-7,-13,-91,-16,-38,6,85,-89,-80,-19,1,-108,12,5,52,-85,-309,-69,-14,57,-277,-345,60,-19,25,32,118,635372
-105,-18,-4,-6,-19,-14,-85,41,49,237,-212,-114,76,-56,-1,-122,-4,-9,48,-102,-312,-90,-6,46,-278,-352,46,-25,6,18,119,635373
-70,-6,-9,9,-9,-14,-15,56,134,145,-141,-28,-48,12,53,-96,-4,-9,83,-75,-221,-99,22,54,-156,-237,36,42,32,22,-58,635374
-55,-1,-25,10,-1,-29,27,-105,-63,10,-30,-19,-122,123,7,-73,-5,-12,68,-53,-151,-62,25,46,-76,-157,28,42,34,10,3,635375
-71,-4,-24,10,-7,-33,-43,-62,13,-155,-57,-67,62,-75,-2,-78,15,11,53,-38,-194,-17,25,74,-89,-249,52,48,69,37,98,635376
-47,-14,-17,-4,-5,-10,-80,42,-101,-124,-90,-63,-26,-85,30,-74,9,5,10,-10,-136,10,16,39,-68,-185,15,27,39,12,20,635377
-3,-8,0,-5,16,20,-43,-32,-90,-91,-101,48,-422,-39,15,-12,37,19,9,61,3,74,33,44,13,-13,6,26,31,21,-9,635378
-50,-14,7,-2,6,-2,-55,-190,-137,-225,-98,-82,-163,33,5,-37,48,26,46,42,-61,67,35,76,-48,-121,40,43,45,43,113,635379
-130,-6,47,19,-2,-4,-137,-187,-28,-71,-123,-2,38,91,2,-144,60,64,132,-73,-364,-5,45,158,-268,-543,137,85,99,96,335,635380
-201,-6,76,44,13,4,-218,-179,48,59,39,-7,65,18,-48,-250,74,94,227,-183,-668,-93,68,232,-496,-1012,213,125,162,164,402,635381
-218,-24,57,38,-2,4,-219,-160,92,87,-60,-17,-192,41,48,-258,69,74,240,-207,-728,-126,57,226,-558,-1120,215,126,166,162,402,635382
-162,-46,7,33,-2,4,-156,-83,-37,172,-22,-39,-126,109,49,-231,21,6,173,-173,-630,-121,15,162,-452,-961,159,74,107,104,245,635383
-9,-28,-27,7,19,20,0,44,-58,146,73,26,-65,141,13,-96,-43,-69,17,-50,-242,-48,-45,2,-136,-377,8,-26,-4,-14,-91,635384
53,-7,-32,-5,21,14,76,154,-48,49,60,-27,80,94,-5,-3,-26,-66,-23,10,-24,-14,-34,-42,24,-42,-58,-39,-31,-43,-191,635385
49,15,-4,6,30,30,89,-7,-73,-18,-15,38,20,-2,-15,-4,-32,-43,23,-26,-25,-69,-6,-7,13,9,-15,7,-35,-26,-61,635386
60,16,-2,9,34,39,111,143,-85,-41,47,-58,130,128,15,7,-16,-28,43,-14,-6,-71,18,-12,12,40,3,22,-55,-16,-81,635387
90,18,-8,7,39,34,125,126,10,40,18,-38,68,175,51,73,32,8,16,63,97,48,59,3,108,168,8,43,-24,9,-110,635388
121,18,-20,17,30,23,147,241,-33,126,44,75,-47,-24,39,144,43,4,-26,122,244,133,74,-7,263,385,-12,46,-12,9,-72,635389
-155,-15,47,33,-7,-16,-167,108,80,146,-71,-55,174,-255,28,-150,99,89,169,-169,-457,-79,108,206,-271,-653,196,183,139,136,432,635390
-286,-16,81,55,-18,-37,-264,-12,119,155,-173,-115,80,-36,18,-284,142,136,311,-260,-828,-142,144,333,-530,-1277,308,255,252,232,595,635391
-283,-28,66,50,-10,-31,-261,45,59,40,-83,-80,12,-23,-51,-304,114,102,290,-257,-865,-133,129,297,-534,-1381,265,222,234,198,441,635392
-144,-14,51,47,26,29,-131,-65,-17,100,187,-16,25,-108,17,-203,79,63,194,-125,-595,-50,87,188,-315,-1031,163,140,165,126,252,635393
63,-3,2,12,40,49,94,206,-33,79,209,12,-42,-85,60,23,39,1,22,115,-33,130,39,30,92,-240,10,7,45,21,-26,635394
80,-5,-12,11,34,38,134,33,57,52,112,14,-96,-112,41,69,18,-8,-47,144,126,132,20,-17,151,25,-32,-46,-8,-23,29,635395
42,-4,-9,9,22,24,62,94,-109,192,-96,-53,-120,23,28,22,15,-11,-35,96,68,61,3,4,65,-54,-27,-31,-12,-14,-47,635396
-4,-7,-6,13,12,11,-8,-22,-146,-2,35,11,-44,-166,-32,-30,10,-1,-1,53,-9,26,-4,24,1,-159,-19,-18,1,-1,-37,635397
1,-13,-25,3,-1,-5,-11,17,-78,74,18,145,31,17,16,-17,1,-10,-8,58,22,17,6,25,33,-97,-29,-4,1,-18,-30,635398
-11,-6,-10,5,5,7,-16,5,31,106,79,160,118,51,4,-15,33,22,49,57,-18,34,72,76,21,-153,14,65,63,18,37,635399
-53,-2,-3,11,10,18,-24,53,27,107,138,80,-34,132,-5,-25,73,50,106,43,-86,52,118,116,-19,-266,55,104,99,48,133,635400
-177,-21,16,10,-6,-8,-158,2,60,124,8,-108,-21,34,-34,-151,115,100,220,-80,-411,-23,139,228,-251,-787,153,178,175,115,287,635401
-116,-27,-20,4,-4,-35,-86,-85,27,69,64,-35,-18,0,-49,-102,84,66,190,-32,-287,-33,108,167,-108,-622,99,177,143,83,86,635402
-47,11,-21,25,11,-14,13,-178,61,32,304,28,-209,4,-56,-28,83,58,160,33,-150,33,123,132,4,-416,74,164,131,75,59,635403
0,24,-29,36,18,-3,70,-82,23,-151,-42,153,-171,60,18,7,59,28,93,58,-49,45,89,67,60,-228,30,111,77,35,62,635404
19,3,-38,15,15,8,75,-32,-42,-125,-141,15,-21,13,18,8,43,27,92,39,-36,30,76,70,53,-208,42,105,69,39,-50,635405
141,2,-51,2,38,31,116,-37,-106,36,-150,27,68,7,13,100,1,-24,-28,117,195,109,34,-31,198,154,-44,10,-25,-27,-237,635406
106,-2,-20,14,44,33,-19,-216,29,-76,-6,-40,33,-106,-38,-13,-62,-82,-82,0,15,-1,-43,-100,-2,-37,-84,-90,-106,-73,-130,635407
64,7,8,11,34,25,-7,-161,82,-31,43,-103,-24,-125,-71,-35,-47,-49,-25,-58,-75,-104,-18,-47,-63,-130,-19,-41,-68,-30,-78,635408
32,-4,-15,2,-15,-6,89,-176,27,56,69,-73,-101,41,-25,40,11,-2,16,4,20,-45,32,-4,19,-12,22,2,-18,15,-84,635409
32,-11,-7,1,-10,-6,113,94,-73,-11,217,-12,45,-25,-9,59,11,-5,-11,51,94,37,30,-9,86,76,2,-7,-12,12,-149,635410
76,9,-22,6,5,-10,140,198,-2,130,254,35,-103,-164,75,105,1,-25,-48,115,255,87,28,-42,221,293,-37,1,-26,-12,-241,635411
57,1,-16,-13,0,5,52,132,60,-180,-117,96,-76,20,82,67,-36,-43,-42,69,235,36,-7,-43,208,279,-48,1,-44,-38,-112,635412
22,-12,1,-25,1,11,-67,-149,34,-218,59,12,58,106,-34,-11,-45,-57,-42,-12,114,-32,-27,-29,98,113,-52,-25,-49,-46,-48,635413
-26,-9,29,-15,0,15,-114,5,36,-60,-52,46,0,-28,12,-21,37,16,35,3,2,43,42,72,2,-98,38,46,59,28,126,635414
-28,0,11,3,-4,-4,-29,108,-48,129,-92,32,-79,20,76,26,58,49,46,67,35,128,80,94,29,-43,50,76,83,50,64,635415
-32,3,17,7,9,4,-4,128,94,181,-103,-5,-23,51,43,-31,20,22,36,16,-46,52,33,68,-60,-159,30,34,34,16,66,635416
6,-6,-4,10,16,6,10,93,55,110,-139,-59,19,-13,-28,-71,-41,-33,-25,-19,-61,-6,-42,4,-86,-143,-35,-46,-43,-48,-40,635417
57,17,-8,28,23,27,57,8,108,20,23,22,85,59,43,-5,-34,-25,-23,44,58,44,-39,3,25,30,-31,-37,-35,-47,-100,635418
32,5,-7,9,17,18,29,-70,-33,49,-62,24,6,119,46,-12,-33,-15,-9,24,44,18,-35,4,10,14,-24,-33,-29,-50,-20,635419
22,2,-10,4,10,15,12,124,-52,75,-157,-26,-45,10,18,-27,-26,-25,-17,10,28,1,-39,-3,12,1,-28,-35,-26,-44,1,635420
-42,1,22,21,14,9,-66,175,50,79,-134,-41,-120,-159,5,-86,21,29,75,-62,-200,-60,20,97,-127,-326,66,60,61,19,119,635421
-86,-12,36,33,12,10,-128,-281,64,217,-158,-84,77,-141,-46,-145,37,47,133,-121,-369,-96,42,136,-246,-601,96,102,95,49,147,635422
-98,-19,28,18,5,2,-143,-296,161,219,-106,-36,167,-133,-32,-159,47,54,156,-137,-432,-84,67,146,-277,-736,101,128,120,64,253,635423
28,-7,-5,6,13,7,39,-50,109,65,11,58,73,-157,32,-14,21,6,37,13,-77,2,60,21,15,-234,-14,63,46,4,24,635424
73,16,-4,28,18,11,93,12,73,-6,19,82,85,-85,55,43,19,-3,13,37,45,36,57,-1,116,-60,-11,55,28,5,-67,635425
107,4,-46,2,-5,-10,171,229,54,-15,45,9,-111,-11,93,130,-16,-31,-62,111,257,91,12,-68,266,271,-64,-6,-13,-31,-179,635426
34,2,-30,-3,-19,-41,149,80,-11,50,84,143,-231,-65,101,122,23,25,-7,100,177,113,25,-4,183,158,10,31,23,27,-70,635427
-6,1,-27,-16,-18,-30,102,-86,-28,38,83,124,31,-61,88,82,10,21,1,63,111,97,26,-15,108,73,1,15,3,28,-103,635428
81,14,-19,-10,20,17,121,-163,61,2,-26,-3,-8,60,77,78,-50,-49,-84,60,214,45,-44,-122,133,253,-90,-88,-103,-47,-222,635429
-98,1,59,16,17,23,-145,-104,-10,158,-204,-171,-18,31,-49,-167,-8,20,83,-189,-369,-127,6,59,-346,-595,90,14,4,66,329,635430
-417,-43,133,61,-19,-9,-532,-247,156,76,-452,-142,38,-185,-95,-535,113,161,428,-520,-1401,-327,131,407,-1066,-2174,410,243,298,320,970,635431
-437,-50,118,90,-21,-13,-481,-184,197,-42,-440,-92,-12,-121,-37,-560,138,184,492,-484,-1541,-319,167,465,-1088,-2483,458,301,383,369,990,635432
-276,-41,52,86,-8,-30,-209,-46,130,-103,-217,13,-133,-57,-35,-355,112,130,364,-252,-1081,-148,147,329,-687,-1862,314,236,316,279,522,635433
-1,-16,-26,70,19,-10,163,-21,-24,-72,45,105,-100,105,-26,-35,44,29,78,76,-254,79,87,61,-74,-646,61,55,109,98,-85,635434
96,-5,-50,30,30,16,220,139,-60,86,80,165,32,132,-12,66,3,-10,-53,149,74,118,41,-48,114,-122,-27,-36,-15,-18,-207,635435
53,-6,-47,23,18,17,111,-137,-35,63,-17,175,-134,69,-9,24,-8,-23,-33,96,26,67,39,-44,49,-148,-25,-40,-54,-37,-100,635436
28,-7,-48,15,-4,-15,69,-112,52,45,130,131,-257,85,1,27,7,-16,-19,85,38,55,50,-28,57,-110,-15,-17,-37,-36,-61,635437
8,-7,-49,13,-10,-29,41,-37,-33,75,-112,109,-45,98,-3,12,-1,-12,-10,52,6,8,43,-11,47,-143,-13,3,-7,-37,-12,635438
-10,-20,-51,10,-21,-32,10,-40,32,-57,-26,12,-79,71,-16,-21,-10,-12,-15,12,-70,-17,30,-5,-21,-255,-9,12,-9,-47,-36,635439
-23,-13,-46,15,-14,-33,0,-50,100,-62,-316,-50,-141,38,69,-50,-19,-22,-20,-21,-122,-39,0,-8,-69,-336,-17,22,-2,-35,-11,635440
-74,-20,-3,18,-12,-5,-83,-109,160,-84,-740,-148,87,-24,-33,-148,-17,-22,19,-100,-334,-96,2,27,-216,-633,18,49,33,-22,63,635441
-17,-24,-7,13,5,12,-36,7,-33,-3,-193,-19,189,-90,-82,-115,-36,-50,-25,-58,-226,-62,0,-32,-108,-488,-38,2,-4,-60,-63,635442
30,-6,-15,8,15,19,24,163,-53,48,-92,29,28,-38,-62,-42,-15,-28,-35,9,-79,-16,7,-44,41,-302,-56,13,0,-44,-127,635443
96,6,-24,7,15,27,112,-14,70,22,-108,139,-20,-7,54,67,-8,-27,-77,111,146,60,3,-71,232,27,-79,6,-16,-47,-191,635444
128,5,-23,10,11,24,133,132,33,52,6,123,-177,-72,146,88,-25,-33,-94,123,213,82,-20,-92,282,155,-79,-15,-38,-56,-197,635445
110,11,-13,4,8,13,122,-29,24,130,22,-35,-65,30,115,100,0,-3,-44,123,216,109,-3,-50,281,141,-44,37,-6,-21,-153,635446
77,8,-24,-8,-5,-4,121,3,-50,150,13,109,102,143,91,115,13,20,-33,131,228,129,1,-38,280,166,-14,39,6,8,-143,635447
44,-1,-35,-4,-8,-4,64,306,-97,132,22,52,-84,5,28,69,2,17,-54,86,143,123,-28,-57,154,44,-10,-31,-29,4,-129,635448
81,-2,-42,-9,15,13,70,441,-22,-27,-76,-8,25,84,32,61,-46,-31,-120,81,191,93,-56,-127,163,175,-83,-98,-104,-41,-195,635449
95,-5,-33,-15,19,17,40,114,-41,-4,-195,3,-73,127,-39,48,-63,-51,-103,59,175,46,-66,-124,139,182,-81,-88,-112,-48,-195,635450
317,18,-95,-30,33,29,315,139,-249,-99,147,63,4,76,28,284,-128,-151,-305,297,822,177,-137,-323,638,1182,-276,-218,-251,-182,-672,635451
426,56,-92,-25,36,42,493,235,-89,-34,484,118,19,69,84,448,-116,-147,-389,435,1233,269,-125,-380,923,1844,-330,-252,-308,-225,-761,635452
363,68,-80,-35,23,20,434,223,-116,-119,233,144,-154,90,91,429,-84,-99,-343,375,1181,225,-83,-319,846,1840,-288,-199,-283,-209,-528,635453
-29,11,13,-31,-32,-18,-45,-127,-105,-159,-107,1,-29,35,-95,14,-14,10,-60,-40,129,-37,-15,-20,25,337,-8,-21,-64,-42,194,635454
-45,-2,50,-18,-22,0,-127,-28,57,-7,-136,9,234,-94,-77,-61,5,9,21,-81,-114,-74,-8,34,-123,-53,29,16,-2,20,170,635455
-39,-5,42,-8,-20,0,-112,-18,50,14,-72,-45,78,111,-46,-72,3,10,37,-77,-153,-95,-22,22,-149,-117,26,8,-11,10,137,635456
-71,4,43,-2,-15,-11,-105,-245,177,6,28,-75,3,52,40,-55,19,39,55,-67,-216,-76,-7,51,-186,-227,76,22,20,34,185,635457
-25,-1,17,-9,-5,-9,-47,-120,99,51,-3,-149,195,-69,34,-20,-29,-6,-59,-28,-138,-56,-48,-31,-136,-124,9,-72,-48,-17,11,635458
21,11,18,-2,16,23,-11,-73,144,192,-201,-59,139,-206,-34,-9,-64,-23,-129,-22,-82,-68,-99,-76,-115,-26,-31,-123,-89,-59,-30,635459
149,26,-14,7,31,30,134,78,50,43,61,70,8,-103,-34,138,-84,-53,-192,124,269,21,-112,-153,142,490,-117,-154,-137,-106,-283,635460
249,25,-73,-23,10,4,282,254,-108,18,373,72,28,-75,49,278,-123,-113,-304,244,653,100,-150,-292,413,1115,-242,-236,-241,-216,-491,635461
461,54,-136,-64,17,15,552,433,-169,-6,105,193,114,78,123,544,-180,-195,-538,501,1393,310,-213,-515,963,2256,-465,-375,-413,-363,-935,635462
495,67,-120,-92,15,9,549,473,-131,-100,279,238,70,161,164,605,-186,-193,-608,498,1622,315,-234,-563,1062,2661,-508,-403,-489,-415,-917,635463
16,25,24,-48,-44,-29,-32,-105,129,39,-60,37,-39,47,-9,105,-17,38,-127,-10,353,19,-81,-85,72,783,-51,-70,-154,-94,131,635464
-90,25,55,-7,-28,-29,-151,-211,186,82,-155,-4,-9,-25,-35,-39,19,73,38,-101,-45,-20,-42,41,-165,127,74,44,-10,36,245,635465
-117,2,21,-30,-45,-52,-155,7,27,-4,-57,-45,90,-28,-84,-81,9,50,14,-116,-116,5,-67,1,-191,-7,27,5,3,26,173,635466
-141,-16,9,-40,-58,-61,-156,13,-35,61,-92,-84,-42,-93,14,-104,17,59,67,-130,-174,7,-32,42,-192,-122,47,40,55,59,237,635467
-168,-25,22,-37,-46,-47,-222,17,-33,36,-158,-75,76,-182,-6,-156,33,56,115,-170,-310,-6,9,71,-282,-354,80,56,78,79,301,635468
-106,-20,29,-33,-20,-22,-169,-46,35,46,-119,-26,-84,-183,-16,-112,17,34,74,-124,-241,20,-3,14,-200,-237,33,21,45,44,132,635469
61,-5,-25,-38,-9,-14,34,-141,17,46,9,86,-246,-27,47,69,-17,-11,-21,33,173,81,-9,-100,137,405,-87,-29,-41,-34,-169,635470
340,23,-97,-64,14,19,357,113,-179,-45,148,183,-120,51,74,369,-112,-131,-321,288,951,191,-93,-379,709,1654,-342,-225,-280,-247,-781,635471
443,54,-104,-57,24,40,470,87,-203,59,193,174,-64,138,98,488,-147,-162,-458,370,1267,242,-148,-466,889,2218,-415,-300,-368,-335,-901,635472
226,49,-54,-55,-16,2,245,170,-65,65,129,27,-132,35,3,285,-118,-98,-317,142,771,96,-139,-304,481,1578,-255,-206,-274,-249,-334,635473
-228,10,62,-4,-49,-40,-275,-212,64,51,-169,-203,138,-148,-118,-209,21,77,118,-344,-545,-251,-21,120,-486,-374,148,80,46,35,523,635474
-258,2,92,21,-27,-17,-333,-299,39,-202,-385,-124,73,-74,-140,-296,52,95,252,-399,-841,-312,31,219,-642,-924,233,155,159,122,524,635475
-240,-12,77,27,-20,-31,-308,-300,104,-187,-162,-109,-13,-108,-57,-291,42,81,230,-374,-882,-302,39,193,-614,-1008,216,139,178,106,514,635476
-230,-23,56,13,-21,-27,-280,-216,-18,-68,-190,-57,21,235,-45,-265,40,64,193,-347,-862,-282,58,158,-593,-1025,203,128,163,86,455,635477
-237,-28,73,13,-31,-10,-297,-36,92,-210,-77,-129,-11,37,-148,-289,59,80,213,-352,-938,-278,71,161,-662,-1199,222,132,178,90,449,635478
-209,-42,70,19,-15,-4,-272,-45,-15,-141,92,-151,-88,-72,-49,-277,64,70,208,-325,-930,-268,77,156,-641,-1229,209,125,164,88,416,635479
-139,-33,70,35,-6,4,-192,-275,104,120,106,-10,28,147,-33,-224,45,50,157,-264,-787,-224,60,114,-524,-1064,156,113,146,49,262,635480
-115,-8,67,44,8,20,-150,-178,65,26,100,-8,57,49,36,-197,46,40,129,-235,-706,-182,52,92,-487,-1012,146,85,123,35,293,635481
-308,-29,106,51,-11,1,-347,-153,188,1,-159,-166,-107,-113,35,-385,93,103,264,-399,-1179,-250,102,244,-860,-1764,282,167,241,145,641,635482
-361,-43,137,77,5,-3,-421,-76,183,103,-158,-97,16,-55,39,-470,128,133,379,-440,-1427,-266,138,338,-997,-2201,355,253,319,217,743,635483
-182,-39,56,53,13,12,-189,-119,-22,243,38,-75,58,76,10,-279,65,55,240,-236,-907,-121,87,156,-570,-1499,183,156,204,105,250,635484
-138,-37,25,39,5,15,-122,-145,-100,100,-4,-74,-114,65,-12,-212,20,13,142,-164,-672,-48,49,59,-410,-1166,70,75,107,23,147,635485
-158,-28,31,41,11,18,-122,-229,21,160,200,113,-190,31,7,-237,38,28,142,-196,-670,-54,63,73,-426,-1185,71,85,100,33,159,635486
-147,-29,13,39,1,10,-82,20,15,67,138,54,-32,46,20,-189,72,65,180,-142,-586,7,95,110,-335,-1097,93,137,135,73,161,635487
-150,-20,8,52,3,-4,-85,166,-9,112,-25,9,13,212,14,-170,85,71,181,-93,-558,67,90,135,-298,-1080,96,135,150,89,213,635488
-145,-32,-4,35,8,-1,-119,13,-55,-58,130,123,-115,128,-42,-180,59,56,133,-92,-559,45,71,105,-289,-1075,81,107,118,74,115,635489
-92,-28,-13,36,18,24,-64,-10,20,-55,11,124,75,45,-21,-126,21,23,77,-51,-417,22,51,34,-182,-849,21,52,57,31,70,635490
-136,-39,24,24,14,40,-166,-116,2,-72,-154,-18,99,112,-86,-215,20,30,121,-141,-624,-56,30,68,-354,-1140,52,48,65,39,205,635491
-212,-52,37,28,10,19,-254,-278,55,205,90,-48,17,-158,-121,-300,62,59,222,-218,-887,-103,62,156,-529,-1544,162,115,147,102,317,635492
-239,-43,48,48,8,3,-240,-215,62,255,-35,-94,120,-77,4,-311,113,103,300,-198,-1029,-96,110,246,-581,-1798,254,184,243,186,394,635493
-70,-13,-12,60,15,1,-24,29,-5,243,90,-6,142,-61,100,-143,65,42,167,-30,-635,-46,76,120,-223,-1211,134,109,152,112,171,635494
-7,-9,-47,42,-1,-16,101,82,-12,119,126,110,57,-28,101,-36,19,-4,58,49,-346,-58,34,15,-2,-738,34,57,70,30,6,635495
-34,7,-24,47,1,-22,117,167,-84,97,112,159,-26,-139,39,11,54,32,83,76,-267,-32,86,54,39,-636,73,104,105,56,-21,635496
-76,16,-9,46,0,-11,82,90,-114,197,10,123,72,-38,69,0,69,50,118,66,-292,-36,101,79,-3,-687,115,124,114,74,24,635497
-60,-12,-16,14,-8,-1,60,-1,-129,155,25,26,-101,-54,92,-31,28,6,71,34,-268,-89,53,4,-3,-607,58,68,50,28,-79,635498
-56,-26,-11,9,1,25,-19,-11,8,-29,82,84,-86,-52,49,-83,6,-26,66,-23,-341,-143,37,0,-69,-707,49,49,26,11,-23,635499
-53,-30,10,1,30,63,-102,-198,38,-35,68,5,-46,-259,8,-147,17,-12,82,-88,-490,-152,51,45,-170,-966,83,59,63,28,127,635500
-105,-42,26,4,21,53,-192,-539,-54,-26,109,-53,-48,-52,10,-219,46,30,147,-143,-667,-145,64,125,-301,-1272,139,118,120,92,304,635501
-197,-35,38,28,-1,10,-246,-154,28,-131,98,-121,-198,232,-21,-268,109,111,269,-180,-881,-131,125,257,-453,-1658,265,214,238,198,473,635502
-241,-46,33,37,-14,-4,-273,-116,18,-152,-118,-104,-95,2,-60,-315,106,114,294,-193,-980,-120,145,295,-530,-1870,292,227,279,227,467,635503
-64,-19,-3,43,33,21,-71,-122,-145,-225,-136,7,136,50,-43,-148,59,41,149,-18,-481,16,99,132,-173,-1193,119,128,155,118,81,635504
33,-14,-31,28,36,25,76,13,-186,-67,9,106,88,250,14,-8,34,5,28,103,-60,124,79,12,92,-641,-6,48,40,37,-88,635505
2,-9,-6,36,27,41,1,67,-34,7,12,57,33,188,22,-77,32,-1,30,37,-114,89,77,10,3,-745,-6,30,2,20,-18,635506
28,-14,-14,28,34,54,-21,154,-17,-87,-118,-99,162,74,-31,-90,-9,-41,-14,21,-78,65,41,-45,15,-716,-76,-19,-42,-20,-93,635507
78,-7,-5,41,39,47,57,14,67,-152,-31,32,28,230,32,-31,-17,-37,-37,64,52,84,25,-67,118,-539,-100,-15,-42,-24,-126,635508
95,-6,-36,25,22,30,118,73,-33,-131,80,112,-116,146,32,46,-13,-30,-51,133,207,143,17,-70,261,-316,-108,2,-35,-33,-179,635509
-56,-17,3,25,4,14,-51,28,35,-141,-129,-13,-107,-11,29,-108,49,46,87,-19,-202,62,40,90,-36,-892,49,101,76,66,197,635510
-329,-38,79,59,-15,-6,-362,-310,177,2,-237,-160,-50,-53,-63,-384,169,182,416,-270,-1037,-121,149,399,-605,-2144,358,328,342,298,750,635511
-354,-55,56,53,-16,-16,-387,-371,125,-58,-203,-177,-72,9,-5,-432,171,163,462,-289,-1213,-169,177,423,-660,-2407,376,353,398,328,687,635512
-263,-54,26,73,5,0,-287,-97,122,16,-270,-211,-54,89,12,-383,124,95,368,-230,-1077,-184,142,320,-518,-2188,287,278,325,253,445,635513
88,-33,-68,35,45,42,114,69,-33,-143,69,84,-215,51,54,-23,-20,-84,15,114,-129,-6,11,-30,199,-707,-55,36,41,7,-344,635514
216,-13,-92,-1,44,52,268,-55,-142,3,222,-11,-281,-60,76,142,-80,-140,-185,246,355,92,-61,-197,502,114,-201,-95,-127,-127,-510,635515
178,-4,-48,-6,46,51,194,-70,-112,-16,211,17,-98,31,98,105,-45,-91,-148,190,272,77,-41,-132,396,53,-130,-75,-98,-83,-325,635516
155,-12,-24,-2,47,51,103,102,-86,-18,-19,65,33,-67,48,36,-57,-99,-118,112,140,17,-53,-100,282,-77,-103,-73,-96,-70,-226,635517
153,-8,-18,13,38,51,100,-10,-30,81,147,27,110,55,32,55,-33,-64,-67,126,136,64,-30,-56,276,-47,-62,-44,-64,-27,-168,635518
105,5,-11,13,30,30,107,-16,-69,86,241,38,132,-44,13,58,9,-18,-8,147,145,93,-4,-2,258,-54,-7,1,-14,26,-139,635519
18,-3,-31,4,-10,-14,58,218,-124,-73,183,-12,140,-87,82,14,17,-8,15,107,56,73,2,26,170,-197,21,10,-6,42,-77,635520
-87,-14,-13,16,-19,-34,-57,203,-69,69,126,2,-162,-96,66,-74,56,39,91,21,-179,32,35,112,-28,-578,100,59,60,118,124,635521
-170,-7,38,51,-2,-13,-192,-55,-62,-9,4,-57,56,-110,27,-196,95,105,227,-107,-531,-46,84,233,-289,-1155,217,142,159,198,381,635522
-205,-20,50,63,-9,3,-226,-278,77,-87,-244,-112,102,-43,-76,-257,107,105,291,-151,-708,-73,103,269,-430,-1492,262,158,198,233,428,635523
4,-19,-34,27,14,19,39,90,-18,-70,36,0,-73,68,-49,-48,1,-15,53,58,-141,57,10,19,-11,-691,24,-18,17,70,-102,635524
112,-25,-75,-7,15,17,155,25,-53,-44,138,73,-17,19,-100,73,-59,-71,-125,159,229,130,-47,-143,230,-149,-144,-132,-139,-50,-394,635525
126,-10,-77,-14,12,11,176,103,-34,-188,-105,93,66,25,-92,111,-66,-71,-146,165,360,111,-43,-173,296,9,-168,-135,-180,-80,-298,635526
125,11,-58,-10,10,10,166,107,-59,-119,54,-11,-181,216,-20,103,-42,-56,-120,152,370,77,-30,-139,334,2,-145,-82,-142,-68,-280,635527
163,3,-70,-28,9,21,201,-90,-120,-94,100,-5,-155,245,13,146,-74,-59,-169,187,502,100,-77,-177,447,207,-184,-99,-166,-91,-250,635528
165,12,-64,-23,2,17,198,24,-126,65,180,-9,47,133,37,173,-58,-50,-182,201,530,137,-84,-186,443,259,-167,-103,-164,-81,-247,635529
-94,-6,14,-8,-28,-7,-121,-90,-31,-26,13,-63,154,-25,-52,-108,2,29,-18,-80,-169,-34,-59,20,-136,-755,41,-21,-37,41,326,635530
-596,-54,151,57,-64,-44,-703,-326,219,-7,-410,-215,-6,-24,-193,-668,154,232,491,-589,-1702,-369,101,513,-1236,-3058,517,289,353,387,1338,635531
-683,-75,177,100,-41,-29,-780,-468,134,113,-344,-205,100,-183,-178,-795,216,258,707,-650,-2166,-428,197,661,-1465,-3830,639,426,523,513,1312,635532
-449,-81,104,101,-16,5,-492,-288,150,191,-120,-97,60,-217,-145,-575,162,150,559,-389,-1643,-300,177,484,-968,-3142,450,346,450,401,663,635533
140,-16,-51,52,56,55,215,114,5,111,248,127,-94,262,73,65,9,-61,22,248,21,99,37,-35,326,-648,-45,24,75,52,-517,635534
304,4,-99,6,58,66,391,291,-63,-46,401,139,-53,352,80,261,-80,-131,-239,385,636,185,-58,-247,704,407,-233,-157,-166,-142,-712,635535
250,-6,-84,-11,31,61,271,314,-25,36,176,186,136,67,47,213,-68,-103,-212,305,548,165,-57,-184,581,357,-179,-144,-161,-113,-510,635536
238,3,-75,-19,21,54,243,378,-6,90,115,130,-84,28,36,204,-57,-90,-204,300,549,163,-52,-147,568,417,-157,-130,-143,-90,-423,635537
185,19,-51,3,23,37,203,81,-132,-132,3,139,-147,88,77,155,-38,-64,-146,250,436,122,-39,-92,473,313,-103,-96,-104,-54,-268,635538
114,7,-58,-4,-4,-11,165,73,-27,-217,-21,112,-26,31,85,130,-25,-50,-84,206,362,92,-24,-53,418,235,-70,-38,-76,-25,-217,635539
31,3,-44,0,-13,-31,90,119,-32,-98,-58,107,-23,-34,5,84,21,2,9,152,204,89,32,40,296,10,26,31,-11,47,-24,635540
-24,6,-35,5,-17,-33,20,66,17,-175,-356,144,-33,111,27,5,15,3,41,84,50,40,28,63,162,-228,49,36,-8,55,71,635541
-99,-15,4,14,-22,-31,-111,18,41,-104,-95,24,-57,-95,-9,-128,23,17,108,-62,-254,-74,29,113,-90,-691,116,49,31,97,245,635542
-133,-30,24,22,-11,1,-147,-77,12,148,-21,-22,11,-55,-41,-169,52,56,176,-83,-387,-70,60,165,-175,-959,168,88,104,155,333,635543
105,2,-28,11,30,42,125,347,-22,135,135,0,108,162,37,84,-4,-21,2,156,225,90,16,-22,292,-133,-28,-23,-21,46,-225,635544
204,1,-57,-12,27,41,217,189,-128,37,92,53,36,58,88,173,-52,-73,-143,214,551,136,-41,-166,465,339,-162,-125,-144,-54,-404,635545
233,13,-68,-22,24,35,260,79,-83,-60,37,68,-49,189,105,251,-45,-55,-162,269,759,227,-39,-184,557,606,-176,-133,-167,-53,-384,635546
179,25,-36,-12,20,33,200,-30,21,24,116,136,-204,53,54,241,10,0,-90,231,683,244,-14,-109,463,465,-105,-77,-118,-6,-234,635547
197,23,-47,-19,11,17,210,20,-37,-93,173,108,-174,-28,69,249,-14,-12,-127,235,756,221,-39,-150,511,577,-143,-80,-137,-37,-309,635548
232,48,-47,-16,24,27,253,62,-117,5,129,43,-10,-47,120,282,-25,-22,-147,260,880,238,-46,-171,602,771,-181,-74,-131,-47,-412,635549
172,50,-25,-15,22,21,189,47,-26,0,78,-8,24,63,95,213,-27,-17,-121,208,733,183,-36,-141,494,602,-148,-53,-114,-48,-234,635550
37,34,12,-6,6,-9,43,35,89,46,74,-122,-134,75,90,75,11,29,12,83,348,83,9,0,241,92,-16,38,-17,47,3,635551
-4,18,11,-6,-4,-24,14,245,57,5,-239,-99,-40,119,78,41,15,25,11,54,204,26,2,26,189,-46,4,28,-15,71,96,635552
94,24,-20,-26,6,1,123,-4,-34,-156,75,67,23,123,39,130,-51,-38,-118,156,430,36,-58,-90,377,367,-99,-75,-115,-11,-194,635553
141,12,-30,-44,7,21,140,-26,-22,14,184,59,-20,13,-20,178,-81,-75,-177,189,540,53,-99,-141,464,614,-153,-116,-150,-60,-300,635554
153,6,-13,-36,9,37,108,194,23,-90,292,34,84,-53,-46,173,-72,-66,-184,197,497,71,-108,-131,458,632,-145,-120,-130,-53,-268,635555
160,15,-7,-29,9,46,86,190,-17,-158,121,21,134,24,-12,166,-75,-61,-163,191,447,45,-125,-106,442,603,-118,-111,-125,-39,-282,635556
185,24,-23,-26,6,35,140,42,-37,-64,3,-47,55,43,-7,208,-64,-60,-171,227,530,64,-117,-114,525,758,-133,-103,-129,-42,-273,635557
137,25,-30,-25,10,11,127,99,14,111,-14,61,-82,79,24,207,-44,-40,-133,215,497,72,-92,-72,509,710,-94,-68,-107,-18,-222,635558
121,31,-15,-24,5,2,131,141,-38,8,-120,47,79,63,12,202,-45,-49,-150,205,490,75,-94,-80,496,713,-83,-84,-118,-30,-204,635559
133,41,-17,-12,7,4,170,316,-46,-79,24,28,-16,46,47,214,-38,-40,-133,214,533,73,-62,-92,493,781,-67,-100,-134,-42,-248,635560
169,45,-36,-11,11,20,210,289,-32,19,166,46,-13,-50,-22,262,-32,-28,-149,256,669,125,-65,-120,576,982,-102,-131,-146,-45,-355,635561
255,45,-46,-28,25,30,274,153,-99,0,111,159,-46,8,3,337,-73,-75,-234,310,907,176,-100,-205,734,1345,-190,-184,-215,-102,-422,635562
248,42,-55,-49,6,13,265,146,-137,50,237,20,-32,1,55,343,-85,-67,-246,287,976,173,-108,-237,742,1478,-214,-200,-243,-125,-439,635563
136,51,-9,-35,-2,1,123,99,53,-120,153,-38,-95,-167,54,223,-20,3,-141,157,688,128,-34,-114,471,1045,-90,-151,-164,-35,-195,635564
126,53,-5,-20,7,-4,112,202,176,-55,68,47,61,-188,107,196,4,12,-94,132,656,129,-15,-81,403,963,-69,-107,-118,-1,-118,635565
166,40,-33,-44,-4,-17,160,148,50,-73,-12,30,70,44,66,231,-48,-35,-143,157,836,167,-56,-154,466,1209,-156,-123,-162,-63,-233,635566
123,40,1,-31,-5,-7,115,67,62,54,-178,21,124,58,-9,178,-40,-27,-100,103,738,147,-51,-130,351,1073,-126,-101,-148,-44,-143,635567
112,41,11,-26,1,4,89,-22,12,79,-124,107,128,-79,-27,157,-10,-8,-73,85,702,140,-28,-99,310,1021,-107,-68,-120,-18,-109,635568
148,44,-4,-34,3,4,145,-104,-78,25,-72,56,85,-74,10,207,-17,-22,-127,126,804,158,-48,-128,391,1191,-143,-82,-128,-46,-165,635569
179,42,-39,-45,-18,-14,200,-56,-73,-33,152,99,45,-47,36,247,-49,-56,-191,166,904,160,-93,-190,487,1394,-192,-122,-162,-88,-362,635570
574,80,-155,-65,16,4,701,279,-183,-74,521,246,29,21,98,713,-176,-230,-596,613,2086,413,-210,-586,1390,3236,-565,-380,-456,-355,-1184,635571
644,98,-147,-88,19,15,744,479,-196,-129,454,310,-60,130,60,824,-228,-248,-742,674,2398,433,-269,-691,1545,3843,-653,-485,-588,-458,-1211,635572
535,108,-92,-99,20,27,573,308,-137,-7,326,258,-22,94,-27,727,-198,-188,-669,550,2124,349,-252,-591,1290,3556,-536,-445,-551,-402,-868,635573
21,46,45,-88,-42,-33,-53,-71,27,16,-154,-91,100,-57,-133,186,-65,0,-221,20,699,11,-122,-151,194,1497,-95,-188,-250,-113,175,635574
-107,32,81,-59,-39,-44,-209,-129,29,-66,-243,-99,101,-49,-64,24,24,73,28,-100,159,-75,-7,42,-139,622,84,-40,-64,55,381,635575
-65,20,51,-54,-36,-38,-179,-218,65,-136,-231,-188,82,66,-99,21,21,63,38,-82,98,-85,-11,41,-115,507,78,-36,-38,55,267,635576
-19,28,49,-25,-22,-30,-95,-21,18,-106,-304,-197,66,154,-64,63,14,63,24,-24,144,-52,-20,25,-25,565,67,-38,-24,61,182,635577
-37,34,57,-20,-8,-17,-89,96,101,-188,-138,-55,76,19,-89,69,21,63,44,-24,110,-53,0,54,-14,467,78,-6,1,73,212,635578
-34,26,41,-32,-14,-14,-69,14,71,54,-131,-61,-10,241,-61,56,5,47,11,-25,113,-45,-12,19,-4,451,40,-41,-8,47,180,635579
68,22,11,-32,-14,-17,64,72,-65,122,-80,-88,23,395,-40,157,-30,1,-85,71,388,12,-62,-93,204,857,-69,-114,-75,-15,-120,635580
114,32,6,-33,-7,4,108,158,-65,68,78,-32,185,137,-51,210,-35,-11,-118,109,533,45,-69,-129,313,1087,-107,-134,-104,-47,-184,635581
218,53,-19,-40,14,38,213,133,-81,153,211,16,102,71,61,305,-71,-75,-211,199,833,103,-81,-224,531,1556,-197,-179,-189,-123,-415,635582
323,64,-43,-45,28,34,327,142,-80,45,309,38,-174,169,99,413,-114,-119,-341,277,1152,154,-151,-343,728,2093,-300,-281,-310,-217,-560,635583
85,36,14,-39,-18,-21,41,134,-22,57,-5,-119,-175,-91,23,182,-56,-17,-145,37,568,27,-108,-127,255,1285,-102,-151,-179,-95,43,635584
-85,35,53,-18,-37,-44,-147,-80,69,-4,-65,-100,3,-170,9,19,35,71,87,-95,97,-36,-21,86,-55,567,88,25,25,60,306,635585
-28,27,21,-34,-41,-57,-74,-114,-52,-51,81,24,-118,-147,24,86,18,45,20,-17,244,11,-32,26,80,773,32,1,19,36,101,635586
-53,7,14,-46,-43,-64,-102,-36,7,-118,48,63,-137,-67,5,71,12,31,-23,-14,209,22,-45,7,36,722,22,-18,14,15,71,635587
