-150,22,64,-2,-34,-49,-185,-16,128,-11,-77,-54,159,-240,-89,-68,25,96,79,-146,-106,-68,-7,132,-263,51,125,25,28,60,402,659800
-100,35,72,28,-8,-12,-147,-16,96,102,79,-92,137,-1,-92,-10,63,111,128,-73,-91,-20,38,147,-189,22,144,65,90,109,383,659801
-72,36,55,12,-1,-4,-106,-29,89,-27,-148,-177,5,-90,-6,7,47,92,124,-24,-41,-14,35,118,-131,70,136,63,85,110,234,659802
-43,24,37,-16,-2,1,-103,-266,97,-79,66,-65,-149,-132,-59,-7,9,48,70,-28,-32,-19,14,74,-116,87,85,38,48,61,156,659803
-28,6,40,-11,-9,-3,-76,-34,75,10,-23,-33,-64,-114,23,-6,-8,20,47,-25,-29,-19,-12,39,-112,101,54,14,27,43,66,659804
87,30,15,9,3,0,114,357,-21,104,210,2,-148,17,102,147,-4,16,-29,135,327,90,-16,-25,181,604,-9,-14,-8,15,-224,659805
530,77,-94,-21,52,40,657,583,-145,-2,332,310,-156,172,169,658,-112,-124,-430,636,1653,396,-97,-411,1187,2604,-404,-263,-291,-252,-1055,659806
731,91,-146,-62,65,71,880,419,-168,-160,376,290,-71,204,107,852,-245,-254,-751,776,2361,471,-234,-709,1637,3809,-683,-485,-567,-500,-1404,659807
683,107,-130,-74,40,44,804,549,-253,-45,395,164,-39,114,118,791,-298,-275,-816,661,2360,401,-306,-736,1543,3971,-687,-544,-657,-541,-1230,659808
155,68,23,-66,-24,-15,148,58,-80,204,-66,-70,161,-29,74,277,-135,-45,-335,120,1015,93,-188,-244,447,2027,-205,-236,-328,-209,-120,659809
-157,31,99,-28,-43,-43,-256,-14,82,103,-200,-212,135,-173,-95,-60,-13,93,31,-183,35,-78,-55,84,-247,511,107,4,-39,56,337,659810
-135,29,86,-24,-32,-27,-244,-26,90,-18,-163,-186,6,-128,-130,-76,-53,34,19,-200,-24,-84,-68,36,-252,399,57,-26,-40,38,238,659811
-151,14,98,-25,-32,-25,-279,-108,90,55,-206,-103,85,-273,-97,-133,-33,50,108,-250,-199,-98,-38,95,-347,98,119,27,26,79,322,659812
-130,-1,75,-29,-33,-26,-253,-131,140,42,-241,-78,92,-248,-81,-77,1,94,148,-177,-160,-45,-2,142,-270,110,161,77,91,124,284,659813
-51,-6,42,-36,-23,-13,-188,-40,111,-126,-192,-74,110,-81,-46,-17,-12,63,92,-102,1,-1,-10,81,-135,332,99,50,56,93,114,659814
126,31,10,-16,10,17,0,-66,51,-51,48,-11,1,-106,34,133,-40,1,-21,71,400,105,-10,-45,189,909,-27,-19,-28,2,-174,659815
880,98,-204,-86,63,62,972,716,-242,64,625,518,-307,111,198,1033,-241,-277,-754,961,2729,630,-203,-781,1981,4469,-739,-492,-557,-477,-1802,659816
1138,130,-264,-165,52,60,1309,704,-305,-4,773,542,-252,287,224,1370,-398,-405,-1203,1218,3825,766,-393,-1147,2644,6339,-1078,-788,-931,-785,-2167,659817
861,126,-182,-176,5,9,976,366,-268,-83,389,174,-128,180,114,1066,-396,-362,-1085,858,3235,523,-440,-982,2055,5684,-922,-737,-902,-727,-1581,659818
166,89,36,-115,-63,-46,126,5,26,-162,-336,-223,-33,-146,-86,286,-198,-89,-433,69,1246,41,-276,-336,460,2798,-288,-339,-444,-301,-62,659819
-253,49,153,-37,-78,-73,-382,-355,136,-85,-189,-246,52,-313,-90,-183,-20,103,100,-333,-150,-202,-81,156,-512,617,169,2,-13,73,677,659820
-204,32,134,-23,-63,-49,-334,-462,114,-95,-21,-220,238,-185,-54,-150,-13,83,129,-260,-192,-165,-50,149,-437,489,156,24,45,113,536,659821
-150,19,132,-6,-42,-16,-268,-97,150,-39,94,-118,263,-153,-30,-102,-1,86,131,-195,-150,-114,-31,125,-356,501,140,45,74,120,396,659822
-144,25,118,2,-30,-30,-220,55,218,-102,-135,-51,-34,-269,-12,-104,16,83,160,-176,-174,-107,-3,137,-344,406,145,65,100,127,298,659823
-103,31,105,-5,-13,-21,-180,-216,215,1,-138,-53,-168,-248,-2,-76,0,61,141,-139,-133,-92,-10,109,-295,445,121,47,83,105,219,659824
13,22,56,-16,-2,-2,-28,-85,14,76,45,-26,57,-80,-6,43,-54,-17,3,-22,172,-31,-68,-38,-28,900,-18,-44,-9,5,-88,659825
326,47,-31,-50,28,36,373,52,-16,-74,361,106,-9,-29,5,378,-178,-169,-347,300,1121,159,-184,-384,683,2354,-357,-266,-267,-245,-772,659826
491,75,-71,-70,29,47,578,298,-166,-75,469,213,54,-35,31,553,-260,-238,-575,452,1697,251,-256,-577,1050,3302,-513,-417,-455,-394,-1030,659827
401,72,-45,-86,-1,10,451,255,-125,106,139,161,140,-14,-47,469,-233,-188,-525,329,1521,187,-256,-481,857,3127,-432,-386,-437,-345,-710,659828
-4,41,70,-64,-50,-32,-30,-36,48,-153,-138,-180,171,150,-131,91,-67,8,-109,-76,462,-21,-122,-73,21,1570,-37,-109,-138,-61,144,659829
-191,17,112,-37,-56,-51,-289,-187,74,-123,-274,-238,17,-53,-155,-98,51,129,178,-241,-179,-107,7,178,-401,539,193,89,109,155,511,659830
-90,29,110,-19,-13,-2,-235,-26,141,127,-182,-142,-70,-192,-36,-72,-4,77,114,-195,-110,-94,-17,106,-301,628,115,46,68,95,315,659831
-122,24,112,-12,-14,-4,-256,-187,180,-57,-203,-165,106,-354,-52,-134,-19,57,140,-250,-254,-128,-25,127,-389,388,135,56,86,111,306,659832
-101,16,78,-23,-27,-28,-178,-262,144,-108,-240,-76,222,-111,-18,-84,7,67,153,-191,-198,-76,5,136,-308,461,132,63,115,119,317,659833
-98,9,61,-7,-23,-34,-146,-139,154,-96,-130,-184,248,-53,-46,-54,25,71,150,-151,-144,-42,33,139,-238,529,128,73,113,109,231,659834
-47,2,36,-24,-20,-21,-79,-200,37,95,92,-198,54,-46,-89,-6,-3,25,83,-85,34,-12,-2,61,-113,768,46,27,54,60,90,659835
104,27,11,-35,0,-1,93,84,46,135,148,-93,-18,34,30,172,-29,-4,-24,103,459,111,-13,-52,219,1392,-55,-30,-16,-7,-163,659836
206,38,-19,-55,-2,-8,214,189,-89,44,242,50,-161,132,3,322,-46,-16,-129,243,819,184,-23,-150,482,1933,-131,-87,-94,-79,-310,659837
156,33,-20,-54,-29,-41,168,49,-67,-13,70,84,33,-8,22,287,-38,-19,-149,201,761,142,-35,-141,414,1900,-118,-99,-114,-82,-219,659838
-50,28,34,-46,-51,-63,-112,17,68,41,-43,-85,65,25,-25,44,-15,31,6,-32,205,-6,-11,4,-27,1082,16,-9,-19,6,164,659839
-137,15,75,-22,-35,-42,-289,9,186,134,-87,-178,193,-47,-104,-76,10,68,112,-125,-130,-72,6,105,-257,535,105,65,73,87,268,659840
-117,-1,58,-39,-26,-30,-274,-194,98,42,-107,21,342,-106,-11,-41,25,74,114,-85,-83,-45,18,103,-208,562,97,64,75,90,212,659841
-97,21,65,-29,-22,-29,-140,-256,88,30,117,61,56,122,46,7,56,99,151,-35,-37,-1,67,137,-149,594,133,100,120,125,238,659842
-104,43,59,10,-10,-31,-19,-133,135,45,-25,59,118,162,-14,-1,59,97,150,-46,-70,-7,61,143,-163,538,146,87,124,126,231,659843
-134,40,58,44,-3,-27,-34,-260,-45,49,92,-27,-2,31,-60,-79,21,47,110,-117,-192,-67,23,103,-254,363,117,54,81,93,206,659844
-23,30,48,36,16,2,35,-202,-44,68,167,6,10,62,8,-38,-37,-13,-1,-64,-23,-46,-30,-9,-123,618,7,-29,9,16,-47,659845
185,32,-23,-12,22,6,240,-33,-54,-91,114,72,29,182,-90,183,-100,-92,-194,141,542,74,-107,-200,305,1482,-176,-148,-135,-115,-408,659846
287,41,-39,-28,32,20,348,-21,-117,-228,147,128,4,68,45,313,-119,-113,-282,258,896,151,-119,-284,561,2057,-255,-202,-221,-189,-558,659847
367,47,-54,-73,30,28,403,246,-205,-75,209,98,-117,66,20,409,-138,-131,-378,340,1202,203,-147,-355,756,2565,-334,-253,-300,-251,-672,659848
117,29,23,-67,-6,18,62,-68,-156,-9,64,-13,55,-175,-53,172,-56,-17,-172,61,569,43,-88,-132,231,1680,-107,-117,-148,-109,-41,659849
-103,17,88,-42,-35,-4,-193,-288,34,32,-219,-195,157,-153,-34,-66,31,71,94,-162,-112,-88,-6,117,-250,650,105,51,52,66,301,659850
-111,7,64,-34,-29,-22,-150,-30,22,13,-113,-150,230,13,-1,-103,-20,1,78,-183,-172,-121,-39,65,-261,566,54,12,30,35,164,659851
-104,0,53,-21,-19,-27,-155,-61,-64,-54,-176,-163,132,23,-23,-123,-49,-22,51,-192,-201,-129,-74,53,-275,511,36,-8,22,24,137,659852
-84,17,62,-2,-10,-2,-169,-112,85,-12,-111,6,50,20,-81,-94,-4,29,88,-154,-202,-81,-22,81,-255,474,84,39,72,67,192,659853
-97,16,51,0,-12,-13,-177,14,120,-57,-130,-7,53,-64,-39,-93,21,41,115,-146,-225,-66,21,103,-249,432,110,57,89,79,242,659854
2,26,9,-17,-14,-27,-6,70,2,-45,14,6,27,146,-38,51,-6,8,18,5,116,22,-10,3,35,918,3,-7,28,21,-65,659855
269,70,-52,-12,20,-2,357,152,-77,-49,357,122,-107,360,78,334,-93,-104,-256,279,906,173,-97,-255,617,2097,-252,-180,-171,-155,-574,659856
272,58,-78,-27,4,-28,369,94,-47,-172,-40,152,23,229,44,326,-151,-152,-366,262,1023,146,-163,-331,633,2348,-323,-261,-274,-230,-595,659857
227,41,-56,-46,-8,-22,290,94,-103,-43,27,87,-9,58,-50,286,-138,-121,-338,207,943,121,-155,-294,538,2270,-284,-247,-263,-221,-407,659858
4,27,40,-44,-25,-20,-27,-122,-67,-8,-305,17,-158,43,-29,76,-44,-8,-97,-12,325,0,-66,-55,69,1356,-48,-79,-90,-53,23,659859
-111,30,99,-8,-15,2,-161,-245,60,-12,-185,-164,-74,-56,-42,-81,9,48,92,-156,-149,-87,-9,103,-251,627,106,49,52,79,225,659860
-125,8,82,-10,-26,-11,-160,-58,126,85,-14,-188,-10,-229,-123,-118,7,46,124,-171,-246,-108,-5,114,-317,438,103,59,75,85,210,659861
-89,10,56,-4,-20,-24,-153,-105,90,-34,-55,-110,32,-294,-61,-90,-1,15,96,-141,-183,-82,-2,84,-257,506,62,29,64,62,113,659862
-80,6,57,11,-15,-16,-150,9,145,-123,140,-18,189,-295,-18,-53,35,60,145,-92,-155,-35,35,108,-208,515,104,80,107,98,140,659863
-102,3,46,3,-22,-33,-129,0,142,-152,-78,-76,164,-56,-105,-62,41,57,151,-94,-179,-40,37,118,-213,458,106,92,110,102,190,659864
-123,14,54,24,-16,-34,-110,-239,99,-107,-17,-106,23,-56,-84,-109,36,62,161,-136,-294,-82,48,141,-287,277,118,91,116,106,286,659865
-126,10,76,36,4,-12,-104,-86,-46,-199,178,-148,40,-186,-42,-149,33,57,177,-176,-406,-110,55,141,-364,109,138,95,119,112,228,659866
-115,-5,42,10,-12,-35,-90,-128,-86,7,-39,-15,-99,-224,-48,-136,-4,22,138,-166,-373,-114,26,93,-328,139,96,60,101,73,200,659867
-37,-6,9,-6,-11,-19,10,-140,-37,64,-50,53,9,-171,-27,-56,-52,-40,18,-82,-120,-73,-22,-13,-135,509,-19,-21,23,-8,2,659868
-1,-2,-1,-6,-6,-10,12,-63,-10,-46,-11,-35,61,-114,-55,-15,-43,-36,-15,-48,-4,-42,-29,-25,-56,682,-29,-34,0,-17,-61,659869
-39,1,11,-10,-14,-4,-60,-228,47,-142,-80,-29,-4,-134,21,-12,20,34,80,-62,-75,-22,36,60,-107,548,53,42,75,54,115,659870
-38,12,36,4,-1,9,-69,-112,3,-50,-35,50,24,-122,-8,5,79,77,132,-34,-88,24,87,110,-109,490,105,93,130,107,150,659871
-4,9,23,6,4,16,-19,154,-6,75,-58,66,38,40,-5,27,76,63,110,6,-7,49,86,96,-26,613,78,77,111,84,47,659872
-14,14,34,16,16,24,-29,-7,48,235,-124,140,27,113,0,-8,35,17,95,-30,-25,9,58,76,-48,595,55,62,90,52,52,659873
-15,6,28,3,7,20,8,-88,-3,121,-117,212,-95,45,46,-8,-3,-4,46,-31,1,-3,26,29,-24,634,12,13,44,19,-35,659874
-115,6,46,17,-4,-5,-53,54,10,-44,-113,23,10,22,50,-93,12,30,84,-126,-231,-71,26,81,-211,287,73,41,71,55,134,659875
-220,11,74,41,-3,-14,-189,-227,27,-6,-2,-208,243,-198,-3,-255,6,28,165,-277,-622,-174,9,150,-508,-298,133,82,114,102,295,659876
-249,-2,96,47,10,16,-307,-220,47,-136,-285,-297,246,-324,-55,-352,10,15,227,-348,-854,-232,19,193,-669,-695,174,119,166,129,377,659877
-184,-21,70,24,12,15,-246,56,220,-148,-116,-114,193,-122,-53,-240,51,53,253,-223,-681,-147,68,202,-491,-513,184,145,195,159,394,659878
-115,-19,34,2,6,10,-110,-15,137,123,-132,-14,119,36,5,-89,82,75,224,-69,-399,-36,92,172,-244,-112,156,146,180,152,181,659879
-43,5,8,5,15,11,15,177,-35,112,-123,103,56,256,84,6,70,66,164,27,-161,24,91,115,-51,221,110,121,145,118,40,659880
-9,6,-3,12,24,9,16,28,-18,-40,-294,-15,-171,99,-11,-13,-10,-17,53,4,-80,-19,23,12,-27,372,8,34,48,25,-153,659881
-21,-9,-1,17,23,10,-67,-243,-97,-45,-226,-55,-146,-24,-100,-83,-55,-63,-5,-75,-155,-84,-39,-42,-107,309,-31,-32,-23,-30,-75,659882
-19,-15,19,-6,22,24,-71,-45,-170,-38,-172,-32,-109,-58,-59,-51,-26,-22,31,-42,-145,-63,-4,11,-96,313,11,-3,16,17,53,659883
1,-10,14,-19,18,33,-40,65,-63,-126,39,-42,-59,-26,-44,-15,13,17,69,-8,-108,-20,40,53,-57,348,40,49,59,45,121,659884
-34,-6,22,9,5,20,-90,16,23,-73,-50,3,-36,-90,-34,-82,16,26,102,-72,-249,-65,46,79,-166,141,59,70,77,53,228,659885
-321,-27,88,49,-22,-28,-400,-72,155,20,-168,-150,60,-181,-79,-383,85,114,330,-375,-1028,-239,106,305,-772,-1047,291,201,244,202,749,659886
-497,-43,142,86,-32,-43,-591,-299,245,121,-77,-315,170,-145,7,-578,174,204,568,-526,-1619,-329,187,523,-1163,-2031,494,363,428,371,1025,659887
-471,-53,119,77,-24,-34,-539,-353,225,54,-42,-113,82,-110,1,-554,179,190,577,-470,-1619,-297,217,510,-1108,-2139,466,374,455,378,814,659888
-147,-34,9,64,15,-13,-130,-148,78,-26,90,132,-113,101,-34,-247,58,23,251,-141,-761,-101,105,179,-417,-924,150,163,235,158,89,659889
53,-5,-41,53,40,14,131,39,16,42,202,197,47,106,57,-22,-35,-68,3,49,-118,29,2,-38,38,63,-53,9,43,-18,-220,659890
53,-10,-46,33,26,1,137,-57,-71,-24,58,125,156,160,18,24,-9,-38,-7,81,9,59,22,-33,105,263,-44,9,30,-12,-141,659891
71,1,-41,25,24,17,174,-50,64,-24,114,154,40,371,54,77,16,-24,-28,126,145,92,58,-41,179,463,-55,5,17,-10,-170,659892
99,8,-48,12,20,9,213,-103,1,83,136,29,-113,151,68,87,-40,-72,-105,127,255,80,2,-119,233,657,-120,-59,-63,-82,-250,659893
55,17,-3,25,28,16,159,-20,-27,129,142,32,-157,115,79,31,-25,-39,-58,60,131,35,-6,-60,124,484,-59,-31,-34,-42,-75,659894
-107,-15,41,19,5,15,-65,-69,11,23,20,29,27,-46,-23,-123,40,49,99,-111,-318,-56,43,110,-227,-195,114,80,83,83,333,659895
-516,-48,142,76,-23,-11,-578,-361,153,-87,-388,-254,30,-166,-146,-611,158,192,507,-577,-1609,-350,175,493,-1187,-2156,466,334,373,327,1152,659896
-615,-59,147,91,-32,-22,-678,-501,164,145,-278,-252,-27,-285,-175,-728,224,230,679,-643,-2024,-406,252,630,-1400,-2883,580,447,527,448,1218,659897
-446,-57,102,90,-5,-8,-501,-265,195,128,-24,-113,-8,-66,-47,-572,174,173,559,-467,-1682,-313,209,490,-1079,-2471,455,375,470,373,764,659898
-59,-11,-6,91,60,41,-59,50,85,-39,249,62,37,-7,27,-167,63,31,203,-67,-659,-70,100,156,-275,-963,130,156,217,146,112,659899
113,-5,-59,39,62,47,148,155,-91,-88,213,124,45,4,30,36,1,-31,-18,108,-61,54,39,-45,148,-29,-51,20,48,-6,-209,659900
89,-5,-56,14,37,25,146,187,-64,86,175,110,-134,31,64,59,-1,-34,-27,118,20,58,37,-52,176,141,-55,18,20,-23,-180,659901
57,-3,-44,5,20,20,47,81,55,82,97,106,-187,58,4,38,25,-1,9,101,-5,41,67,-3,132,104,-12,46,33,2,-32,659902
33,-17,-33,-10,10,17,-73,111,-95,30,-92,-23,-116,42,15,12,18,0,3,55,-54,20,58,8,76,56,-20,39,23,2,-36,659903
40,-22,-27,-12,14,15,-98,179,16,-158,-97,-9,63,122,39,-1,14,-3,-18,44,-55,8,45,-11,57,64,-26,17,3,-12,-45,659904
-39,-30,1,-14,4,18,-126,36,87,-122,-107,-4,42,141,-40,-56,59,45,62,-21,-239,-19,84,82,-90,-203,65,74,59,55,143,659905
-241,-41,54,32,-9,4,-256,72,80,-19,-172,-89,99,-80,-46,-298,87,96,232,-248,-826,-162,113,250,-541,-1108,231,173,174,172,469,659906
-430,-58,86,70,-16,-19,-437,-162,51,136,-147,-231,90,-85,-127,-538,101,115,399,-462,-1435,-304,124,392,-976,-2070,356,268,300,264,782,659907
-494,-57,96,105,-10,-12,-488,-240,166,144,-70,-156,77,-91,-56,-615,136,146,506,-506,-1697,-321,164,479,-1120,-2563,436,338,400,330,916,659908
-119,-34,-19,71,31,20,-57,95,52,290,195,68,-9,54,43,-237,36,-11,200,-94,-724,-82,95,146,-323,-1189,107,138,191,119,28,659909
90,-26,-79,34,49,24,175,163,-59,140,195,129,-64,181,30,-13,-59,-99,-86,105,-22,32,-4,-101,155,-124,-109,-47,-37,-76,-341,659910
69,-8,-58,36,33,15,146,70,-86,-32,42,53,-117,213,51,9,-29,-57,-54,106,8,50,3,-59,139,-83,-64,-19,-24,-48,-237,659911
29,-18,-73,15,7,-7,106,198,-112,-11,58,47,-175,234,43,-11,-22,-41,-37,78,-20,39,11,-57,96,-108,-58,-4,-20,-44,-167,659912
24,-12,-33,30,25,24,86,140,-27,-18,71,-28,-166,119,64,-25,-7,-32,-15,62,-50,33,27,-40,63,-153,-40,14,-13,-29,-49,659913
14,-5,-14,36,24,30,75,68,-27,70,-53,-29,28,21,-37,-68,-16,-32,0,17,-112,9,10,-23,-6,-255,-35,10,-10,-23,-103,659914
0,-8,-20,25,19,18,55,63,-40,137,30,-2,-7,8,28,-88,-44,-52,-42,-11,-141,-18,-16,-47,-37,-273,-55,-24,-25,-53,-156,659915
-242,-44,13,23,-21,-33,-260,-116,-32,161,-143,-43,1,-136,-43,-344,35,39,155,-279,-817,-181,53,172,-556,-1286,168,109,121,85,377,659916
-313,-53,38,50,-31,-39,-344,-164,118,128,-8,-122,5,-296,-53,-423,96,98,314,-356,-1137,-213,123,300,-734,-1813,283,216,247,201,527,659917
-274,-32,53,81,11,-3,-276,-166,58,0,-19,-126,65,-186,9,-389,109,111,361,-292,-1106,-172,141,326,-663,-1823,298,257,295,242,487,659918
-47,-29,-17,56,28,25,18,-51,-18,-3,44,-3,160,-79,11,-161,22,5,152,-50,-473,-53,69,108,-173,-907,83,116,133,89,29,659919
104,-23,-58,24,35,39,189,86,-135,-23,-83,76,-25,-80,72,-6,-57,-93,-78,74,2,14,-3,-96,148,-139,-97,-46,-49,-71,-251,659920
83,-16,-38,16,31,35,148,22,-62,-126,68,108,-226,14,46,16,1,-35,-63,66,-20,27,23,-34,123,-138,-43,-11,-17,-29,-115,659921
73,-15,-24,21,27,35,123,38,-191,-101,99,68,-3,80,21,7,2,-10,-46,48,-36,35,37,-19,99,-155,-28,9,2,-20,-55,659922
82,-7,-29,15,35,35,118,18,-142,-118,40,29,65,174,-6,-20,-47,-62,-90,31,-4,10,-14,-64,105,-85,-73,-31,-40,-65,-153,659923
63,-18,-35,-12,31,33,123,134,-95,54,78,75,13,56,51,-10,-59,-65,-89,29,42,4,-34,-82,129,-1,-87,-42,-56,-75,-194,659924
-50,-34,-15,-20,11,4,-32,-54,-66,109,-32,-67,27,-122,-44,-102,-23,-24,6,-74,-203,-50,-7,14,-69,-359,0,15,-6,-14,2,659925
-171,-40,23,5,-7,-1,-224,-263,77,272,-316,-39,-7,-21,6,-230,66,62,186,-173,-585,-99,86,194,-348,-977,164,147,147,115,322,659926
-240,-32,45,31,-8,3,-291,83,80,208,-307,-93,-22,10,-23,-281,112,115,279,-213,-807,-125,137,282,-496,-1367,262,218,240,198,530,659927
-339,-43,58,60,-15,-13,-360,-51,103,109,-247,-167,161,2,-15,-385,137,147,378,-321,-1142,-191,156,354,-726,-1911,337,277,304,267,688,659928
-171,-30,4,61,7,-6,-108,36,62,18,98,46,-49,105,-14,-229,60,50,209,-135,-705,-92,102,176,-355,-1309,156,163,184,150,204,659929
7,-23,-46,32,21,12,53,246,-113,-133,288,238,-266,54,-18,-53,-21,-38,-20,50,-168,10,31,-31,34,-509,-33,13,21,-3,-143,659930
34,-22,-50,9,15,15,19,296,-58,100,106,246,-268,57,-28,13,-2,-14,-34,118,7,67,43,-34,141,-260,-34,17,16,-6,-148,659931
-15,-28,-42,-6,-2,6,-79,107,-13,-159,4,14,-162,97,-22,-21,10,6,0,75,-75,41,53,-17,57,-380,-3,38,14,9,-35,659932
-1,-33,-38,-15,-4,4,-60,-99,-96,-300,85,-38,61,6,20,-20,12,-7,-9,69,-62,34,51,-29,65,-361,-18,26,0,-6,-52,659933
58,-11,-45,-13,12,12,78,-106,-27,0,179,40,-50,-37,16,65,24,10,-27,144,101,87,47,-35,183,-136,-29,24,8,-3,-97,659934
-26,-8,-31,8,-2,-2,21,-48,-54,7,-51,65,-62,-65,-41,-40,28,33,43,22,-134,15,56,39,-15,-444,41,56,43,31,146,659935
-297,-53,36,27,-29,-28,-341,-253,127,89,-341,-125,-64,205,-103,-341,135,166,352,-263,-962,-148,168,352,-634,-1685,330,264,274,244,676,659936
-326,-51,72,46,-14,-9,-418,-244,132,137,-174,-79,-47,172,-81,-361,198,208,475,-281,-1149,-141,234,444,-716,-2042,418,361,387,330,743,659937
-351,-41,73,77,8,8,-425,-311,81,113,-269,-82,-204,17,-76,-434,179,170,476,-351,-1325,-182,224,434,-824,-2327,400,347,384,321,716,659938
-64,-28,-24,83,35,30,-31,-44,-13,37,-7,-42,-42,89,-22,-182,63,28,174,-74,-598,-45,123,139,-238,-1274,104,145,184,123,85,659939
143,-32,-93,36,25,37,214,37,-157,44,209,127,-50,-102,28,25,-64,-114,-148,122,113,41,-17,-161,249,-146,-179,-75,-72,-115,-412,659940
146,-13,-64,30,30,48,205,56,-87,71,-7,151,75,55,26,34,-59,-100,-159,107,163,47,-21,-141,251,-32,-137,-84,-94,-112,-320,659941
112,-12,-50,13,16,33,192,154,-98,108,190,6,12,154,90,32,-33,-56,-132,78,109,34,-9,-85,192,-80,-90,-47,-68,-75,-227,659942
75,-2,-52,14,12,14,152,-16,-85,95,222,-3,9,26,101,5,-32,-58,-112,39,70,17,-26,-79,136,-124,-84,-36,-67,-72,-180,659943
28,10,-39,25,10,18,58,-31,-7,346,50,27,21,41,110,-19,-8,-19,-55,15,-11,5,2,-16,70,-243,-20,-1,-22,-21,-41,659944
-21,-1,-31,-4,6,24,-68,-92,-7,113,-24,87,25,27,19,-38,7,-1,1,-5,-104,17,21,28,5,-365,26,37,15,23,60,659945
-135,-19,6,-15,-11,16,-259,-166,70,-21,-145,31,-106,-65,30,-151,50,49,116,-111,-413,-46,51,143,-229,-856,131,112,114,95,294,659946
-151,-29,30,-11,-10,16,-250,51,91,-177,-253,85,-53,170,60,-147,141,139,220,-74,-500,-8,147,249,-257,-1050,235,205,211,194,390,659947
-253,-32,70,17,-8,8,-318,-88,23,-126,-199,9,-157,216,-2,-243,189,198,356,-163,-819,-55,196,371,-470,-1557,360,295,316,290,623,659948
-131,-25,22,20,1,20,-83,-134,-38,-12,28,28,36,-91,68,-132,111,103,229,-35,-517,-3,144,220,-216,-1131,211,195,232,192,225,659949
67,9,-28,26,26,36,197,109,-14,142,112,10,50,-19,78,0,-13,-52,-56,106,-10,41,18,-64,144,-332,-72,-16,-11,-32,-208,659950
91,-7,-56,15,21,11,214,83,-36,93,113,24,-101,-96,76,-4,-82,-115,-170,78,81,3,-51,-157,179,-159,-164,-95,-117,-129,-279,659951
85,8,-41,36,30,23,169,-72,-82,-41,102,-8,-45,-58,67,8,-42,-67,-119,78,64,7,-32,-99,150,-197,-94,-69,-68,-75,-150,659952
76,15,-38,30,14,16,166,182,-68,-36,222,-60,-15,-19,19,16,-27,-44,-121,78,83,26,-21,-91,149,-174,-91,-70,-67,-67,-130,659953
71,1,-52,24,9,-11,139,169,-18,49,-51,-120,-92,-28,13,4,-62,-81,-155,57,79,1,-43,-131,139,-139,-127,-92,-107,-113,-133,659954
-21,-21,-26,9,-15,-18,-20,-144,-8,61,-229,-156,-26,52,-27,-85,-42,-55,-59,-47,-137,-55,-25,-52,-50,-453,-52,-38,-52,-65,70,659955
-312,-36,75,39,-26,-7,-387,-262,68,15,-328,-128,206,-132,-61,-396,103,118,317,-337,-1029,-211,111,316,-718,-1861,302,209,233,202,675,659956
-252,-37,62,56,14,19,-292,107,80,39,-219,-12,1,-32,-19,-380,103,102,308,-294,-1030,-195,124,299,-667,-1921,273,208,244,207,543,659957
-218,-46,40,58,7,21,-213,-6,76,0,-224,-7,-57,-85,-29,-348,86,70,241,-256,-923,-154,123,241,-559,-1811,222,184,217,166,442,659958
-60,-27,-10,58,9,19,9,-182,-44,-149,96,120,-199,133,66,-104,58,22,118,-17,-376,12,114,98,-103,-1029,80,118,141,88,-67,659959
100,-19,-70,10,7,5,205,-53,-90,-234,239,136,-281,205,56,108,-8,-61,-92,166,223,115,33,-100,321,-71,-122,-22,-35,-69,-307,659960
42,-2,-41,29,5,10,151,126,-116,-75,123,139,46,-8,102,27,8,-21,-44,77,87,67,31,-38,172,-249,-53,-2,-23,-45,-51,659961
33,-6,-30,16,3,19,150,132,-26,-51,179,144,121,-5,50,-11,-16,-45,-63,45,38,32,1,-47,114,-297,-63,-27,-46,-56,-106,659962
73,-11,-15,-4,20,51,114,-47,20,-54,138,28,-23,53,4,-29,-36,-56,-91,16,13,10,-32,-74,91,-309,-71,-44,-71,-72,-114,659963
56,-17,-22,6,15,28,92,77,-7,-16,-53,45,-124,-87,-78,-58,-53,-67,-99,-27,-43,-25,-52,-74,33,-393,-83,-60,-75,-82,-183,659964
44,19,-21,49,21,24,143,193,46,2,23,-29,-2,-100,-51,-41,-20,-39,-71,-4,-24,3,-9,-50,35,-379,-58,-40,-48,-65,-153,659965
32,5,-61,29,-1,-9,128,-97,-89,147,-124,-11,-61,60,-39,-2,5,-22,-52,27,22,32,11,-39,89,-292,-37,-20,-35,-38,-88,659966
76,7,-67,8,7,5,117,-43,-112,-4,-519,123,-128,-91,-63,45,-17,-45,-87,61,150,51,-4,-73,178,-84,-80,-44,-57,-65,-168,659967
78,-6,-39,-10,13,22,58,-100,-12,-203,-268,-1,-107,-68,-97,14,-45,-61,-94,34,128,24,-39,-91,147,-90,-98,-64,-77,-85,-125,659968
93,2,-19,1,21,32,32,-37,18,-95,-53,-36,-127,-48,6,22,-25,-28,-51,54,93,27,-13,-53,130,-131,-65,-33,-49,-56,-127,659969
77,-1,-19,-22,0,20,37,-30,-37,126,6,53,-88,48,20,48,11,0,-18,73,99,42,18,-27,134,-134,-23,0,-23,-15,-99,659970
52,-11,-4,-23,3,26,48,-198,29,37,67,-4,-45,-49,1,21,21,4,-16,61,48,35,21,-6,106,-214,1,6,-5,-9,-18,659971
30,-4,-1,-11,2,17,50,-83,-24,60,-205,-9,25,-223,26,-10,4,12,-33,33,-7,10,0,-10,58,-292,-11,-15,-13,-23,33,659972
-16,-6,-13,-12,0,5,18,119,38,-165,-199,17,16,-186,25,-43,-5,-2,-17,3,-90,-27,-12,3,-16,-416,-2,-13,-11,-16,4,659973
25,-15,-28,-18,10,14,-16,-129,9,-183,123,-17,27,-32,50,-9,-21,-28,-54,41,-10,-4,-22,-44,52,-279,-46,-44,-34,-44,-166,659974
102,-11,-39,-17,22,16,-18,-24,-22,-69,-92,-66,22,74,40,37,-47,-57,-119,88,159,29,-35,-103,176,-23,-119,-87,-83,-91,-216,659975
116,-2,-25,-19,21,19,25,252,-34,-62,-143,54,58,47,18,94,-30,-38,-119,124,268,74,-34,-100,246,130,-104,-83,-78,-87,-161,659976
127,8,-31,10,10,13,123,284,-71,-98,-17,34,122,134,78,137,-9,-13,-99,173,351,117,-16,-77,300,273,-73,-54,-58,-66,-144,659977
134,12,-46,0,0,-1,152,191,-63,41,68,68,-21,140,106,172,6,1,-90,187,425,148,14,-72,340,384,-56,-39,-44,-57,-152,659978
48,-12,-37,-44,-32,-29,34,-77,-20,92,69,17,-21,151,27,71,1,-5,-81,78,234,73,-11,-51,183,134,-30,-38,-52,-43,-96,659979
-49,-10,-18,-21,-36,-39,-53,-75,-40,38,122,54,18,137,11,-16,20,24,5,-22,-6,9,15,37,1,-230,37,12,5,14,89,659980
-62,-4,-16,-6,-29,-50,-63,84,-52,7,15,36,-84,158,50,-34,13,27,27,-33,-46,8,8,34,-21,-296,34,16,20,28,116,659981
-36,3,-22,17,-22,-55,-2,179,-5,-25,-120,87,4,131,60,-18,19,25,36,-22,-33,27,-6,33,-8,-289,37,19,24,20,68,659982
-35,8,-37,21,-30,-57,63,121,62,145,29,116,85,97,-1,2,37,31,41,0,4,37,15,34,33,-249,39,21,32,26,30,659983
7,19,-27,20,-10,-15,95,-72,3,93,26,90,-14,32,-20,22,33,20,14,27,53,55,22,21,83,-171,28,20,22,26,27,659984
26,6,-27,11,-1,5,85,43,-71,-110,-13,26,-100,-76,30,5,4,-1,-23,9,55,31,-4,-5,69,-171,-1,-15,-7,0,-18,659985
63,7,-21,-5,5,16,88,-79,-51,-134,185,43,-90,-16,63,46,-18,-18,-48,36,148,45,-21,-36,136,-23,-31,-34,-21,-30,-94,659986
101,8,-26,-8,12,17,82,-33,-12,27,183,55,8,-94,100,65,-47,-49,-105,59,239,45,-50,-95,194,147,-103,-79,-84,-77,-205,659987
218,25,-64,-12,21,18,195,-26,-45,-56,92,-26,-54,-4,115,191,-78,-98,-231,190,595,112,-70,-221,452,717,-212,-159,-176,-158,-363,659988
144,29,-24,-4,20,21,97,-95,73,-136,-268,33,-64,53,80,128,-49,-45,-164,116,433,90,-45,-130,303,514,-125,-108,-139,-104,-98,659989
1,1,14,-14,-9,17,-64,-56,27,-128,-148,-60,75,62,-9,-4,7,15,3,-3,33,15,6,18,12,-75,19,0,-18,2,145,659990
23,-6,6,-16,2,34,-13,177,5,-30,29,-58,115,-61,-53,0,-21,-20,-47,8,66,-9,-19,-32,39,-26,-28,-45,-49,-39,-8,659991
33,-1,5,-15,-1,18,19,34,-2,181,-80,74,152,-220,-50,-11,-52,-36,-60,-1,65,-31,-50,-45,39,-29,-41,-58,-59,-51,-70,659992
22,3,-8,-14,-3,3,13,25,-20,232,21,92,42,-64,-71,21,-13,13,-18,30,68,3,-29,5,52,-36,9,-9,-6,-4,-49,659993
15,2,-10,-15,-11,2,-33,168,-57,20,-46,-3,-60,30,-28,22,-17,0,-37,35,76,10,-20,-20,62,-15,-8,-12,-26,-17,-46,659994
83,12,2,-13,11,37,4,297,34,-130,11,59,62,19,38,89,-10,-16,-54,105,226,49,-7,-47,187,200,-33,-25,-51,-37,-70,659995
159,15,-13,-27,14,33,113,175,44,-1,223,65,-42,-152,112,177,-57,-64,-162,177,487,93,-63,-152,377,612,-136,-99,-131,-107,-242,659996
192,20,-36,-36,17,37,183,62,-80,-16,107,18,-36,162,101,229,-85,-93,-224,227,676,129,-96,-208,503,935,-180,-151,-185,-145,-429,659997
345,35,-79,-66,15,28,347,173,-188,-98,186,47,-22,208,81,395,-112,-134,-385,380,1149,228,-108,-367,834,1674,-341,-257,-304,-256,-689,659998
67,25,15,-56,-5,-3,-12,52,-80,-106,-71,-5,-128,-80,22,108,-22,-8,-167,56,409,53,-32,-111,209,596,-89,-110,-141,-94,7,659999
-72,23,59,-20,-10,-7,-179,-65,167,107,-160,-2,58,25,-39,-46,59,86,81,-79,-103,-6,36,115,-132,-207,134,58,62,88,263,660000
-39,-1,21,-31,-18,-8,-147,-182,127,85,-59,-152,118,-18,13,-46,-1,15,44,-75,-60,-15,-12,41,-79,-162,61,21,20,35,137,660001
-51,-18,20,-27,-8,-11,-175,18,96,143,-165,-98,-13,-65,-67,-80,-8,-9,29,-91,-105,-50,-24,31,-108,-241,53,12,12,18,89,660002
-39,-8,23,5,0,-13,-110,223,92,73,-206,-26,41,32,-33,-33,21,31,34,-42,-50,-1,9,37,-60,-184,56,18,32,33,118,660003
-37,-4,6,3,-17,-26,-53,12,8,-63,-34,-15,24,129,-57,-18,1,2,12,-26,-2,5,-11,0,-32,-114,15,-9,6,1,87,660004
29,14,3,17,2,-6,37,-110,16,-99,-165,42,33,136,1,37,-13,-9,-27,29,131,24,-13,-42,79,80,-20,-18,-12,-22,-46,660005
39,3,-8,-2,-2,-5,53,70,8,-234,173,-34,105,18,-31,24,-71,-53,-103,8,177,0,-66,-105,110,182,-91,-73,-92,-81,-94,660006
40,2,8,-1,-2,3,38,-53,37,17,407,-58,65,41,-30,18,-74,-55,-88,-6,147,0,-68,-91,87,158,-74,-75,-85,-67,-160,660007
153,20,-23,-11,11,4,132,119,5,196,255,35,-115,-16,6,133,-89,-94,-180,117,444,67,-85,-170,298,616,-145,-133,-141,-126,-384,660008
95,17,-25,-20,-3,-11,48,-3,-19,141,36,11,-55,114,12,109,-49,-52,-131,87,358,48,-65,-114,220,495,-92,-90,-114,-92,-157,660009
40,22,-3,-2,2,-16,-4,-128,78,48,-115,-32,42,188,36,92,21,34,-20,62,204,42,3,0,119,260,20,1,-19,7,22,660010
20,20,-18,-18,-18,-27,30,-95,-112,-111,-3,-23,-76,15,67,98,21,34,-14,69,197,42,10,-4,121,272,11,-6,-18,8,4,660011
22,22,0,-7,-3,-22,46,-94,34,32,281,124,-145,-57,3,67,18,27,-4,50,146,37,14,8,92,212,19,8,-8,4,18,660012
23,21,10,12,10,-10,26,-19,73,45,4,98,40,158,7,46,-4,18,5,35,104,16,-4,15,60,153,28,10,-8,0,-10,660013
22,18,12,9,1,-9,3,45,80,-88,40,85,36,130,-35,26,-13,2,-1,16,90,10,-11,7,45,137,15,5,-7,-1,7,660014
-12,10,30,4,0,-11,-32,-138,177,26,164,21,73,11,37,10,14,9,6,3,26,1,3,20,5,47,51,15,3,19,63,660015
-21,12,21,-4,-7,-13,-32,-226,129,94,92,10,80,-97,78,17,3,11,2,-7,23,14,-6,9,8,27,35,10,5,14,25,660016
-72,6,20,-4,-17,-15,-78,-202,17,57,-16,7,-30,-157,31,-52,-21,-5,-7,-74,-87,-31,-34,1,-92,-141,22,-20,-11,-3,4,660017
-157,-7,53,1,-14,-20,-196,-73,59,-51,-80,-53,153,-147,16,-156,-1,25,91,-165,-370,-101,-20,98,-302,-584,108,34,66,63,134,660018
-73,-7,21,-1,-10,-24,-132,72,35,77,146,-5,63,-80,2,-81,8,13,95,-75,-205,-38,13,69,-154,-389,81,42,61,50,28,660019
47,21,1,-1,21,-10,-23,152,91,56,-92,31,149,184,47,54,31,20,40,58,94,72,36,21,75,4,44,25,36,29,-10,660020
16,6,-9,-30,1,-18,-120,-10,46,-53,-103,15,-99,182,-21,43,15,22,12,32,65,57,18,21,52,-7,25,15,25,17,-53,660021
0,7,-2,-32,0,1,-209,-143,29,19,-172,92,-196,145,-11,31,11,24,43,22,47,48,25,23,42,-33,30,17,37,27,-30,660022
-29,1,9,-36,-11,-10,-235,-184,28,53,-127,101,122,169,-33,39,18,26,46,17,42,50,40,27,43,-46,48,22,45,30,-6,660023
-18,-16,21,-52,-7,-10,-123,-67,38,-34,-148,49,171,223,-10,76,48,43,56,66,113,86,57,33,101,63,54,36,56,47,69,660024
-11,-16,29,-38,-1,-6,-3,17,57,126,-158,-19,118,253,121,70,47,46,70,57,94,71,47,43,74,31,54,40,58,58,61,660025
-27,15,41,30,19,11,63,199,110,221,-77,-187,81,-45,1,-50,-16,-10,26,-51,-91,-34,-10,8,-80,-206,17,-13,4,4,63,660026
-72,1,15,40,-3,-15,38,-126,41,135,-12,-184,93,-105,-36,-136,-60,-62,0,-134,-209,-97,-52,-25,-185,-374,-18,-56,-36,-43,26,660027
-191,-7,51,53,-13,-30,-120,-288,2,25,-278,-145,230,-86,-52,-238,21,28,143,-231,-541,-151,24,118,-439,-921,123,51,83,71,318,660028
-158,5,37,56,5,-27,-85,-44,-24,116,-183,-84,162,-153,-20,-174,65,58,163,-147,-456,-87,72,134,-315,-847,137,94,131,105,182,660029
-19,-8,0,15,-3,-23,46,-68,8,-40,-185,83,76,-82,39,-10,27,10,43,20,-45,11,56,16,19,-224,21,23,49,11,-79,660030
1,-5,-9,2,-8,-11,31,-26,26,-35,-101,118,51,134,10,16,39,26,46,37,5,27,61,28,40,-126,23,21,36,15,-23,660031
-1,-5,-18,-1,-10,-19,31,249,45,10,153,55,-57,201,-75,21,26,8,35,41,15,30,36,19,43,-87,11,28,16,6,-5,660032
-1,-13,-15,1,-7,-18,10,-33,23,101,-61,95,-146,116,-43,-6,0,-7,6,3,-24,-8,-3,-3,10,-116,14,4,-2,-17,42,660033
-34,1,10,3,-4,-8,-18,46,15,-6,-48,107,-60,49,-50,-20,48,42,86,-11,-108,-5,32,81,-60,-261,90,53,71,53,111,660034
-73,5,0,-3,-11,-20,-25,30,-56,-34,-128,25,-96,-48,-20,-44,48,62,118,-31,-194,-10,45,108,-124,-415,116,80,97,78,175,660035
-412,-26,117,39,-25,-35,-444,-388,94,-124,-392,-231,-54,86,-101,-428,149,199,433,-420,-1205,-234,140,433,-900,-1953,427,296,329,291,929,660036
-650,-81,168,48,-52,-51,-765,-561,277,-80,-384,-214,-1,-115,-126,-698,238,280,728,-646,-1969,-362,237,672,-1404,-3237,648,472,559,484,1248,660037
-575,-64,138,83,-23,-27,-642,-305,186,95,-180,-114,30,-122,-101,-635,228,243,713,-548,-1895,-307,238,633,-1263,-3224,611,474,570,473,991,660038
-233,-36,18,83,19,-8,-195,97,17,254,96,82,54,151,-74,-323,130,103,402,-207,-1065,-122,170,320,-592,-2052,295,274,358,258,323,660039
147,-20,-91,33,48,26,240,212,-44,-4,124,103,-206,91,13,54,-20,-70,-15,163,40,91,46,-91,217,-388,-92,-15,40,-46,-431,660040
159,-8,-69,21,45,33,252,136,71,-37,-25,68,-84,35,-3,72,-30,-76,-70,150,147,83,10,-114,235,-178,-100,-37,-20,-85,-347,660041
109,-2,-50,28,35,30,247,113,132,82,-71,25,20,54,28,64,-20,-51,-62,120,142,78,25,-94,205,-160,-85,-24,-23,-69,-273,660042
64,1,-39,32,19,8,231,-14,25,65,-78,22,-180,-85,63,33,-46,-74,-92,82,122,49,-6,-108,167,-161,-109,-50,-59,-94,-263,660043
29,2,-38,32,3,-11,167,183,47,62,11,10,-158,-103,138,17,-53,-76,-110,49,98,23,-37,-102,132,-149,-101,-67,-68,-91,-183,660044
-39,-19,-10,16,-6,-9,-52,181,-13,-58,-38,35,-62,-143,46,-55,-45,-48,-51,-33,-90,-30,-42,-48,-22,-420,-36,-32,-41,-58,33,660045
-53,-41,12,-40,6,8,-205,92,-24,-155,-124,39,-95,21,-29,-91,10,12,55,-49,-238,-30,13,39,-116,-659,48,34,38,15,109,660046
-56,-37,19,-35,7,10,-178,-89,52,-144,136,31,-70,193,-63,-77,62,67,118,-29,-284,-8,77,109,-141,-779,121,104,110,86,107,660047
-129,-26,36,10,4,3,-165,32,111,1,26,67,124,27,2,-152,99,109,204,-99,-504,-44,107,205,-287,-1141,194,170,185,143,270,660048
-44,-19,-5,25,11,6,21,207,4,90,29,67,83,-22,-19,-67,72,47,103,-5,-269,-2,76,101,-97,-798,86,95,121,71,103,660049
57,-14,-46,12,10,-4,156,123,-43,-141,115,65,-93,-102,47,33,-14,-45,-61,87,68,35,-10,-52,141,-251,-81,-33,-14,-57,-120,660050
81,11,-37,24,20,-2,152,42,-90,-139,-74,73,0,121,64,67,-24,-42,-73,111,158,46,-16,-78,193,-84,-80,-34,-36,-65,-160,660051
36,8,-22,13,21,18,52,73,-66,-239,-40,-89,145,150,20,9,-15,-32,-41,54,24,8,-9,-33,75,-247,-36,-20,-15,-38,-91,660052
69,-19,-17,-19,14,27,33,-72,-132,-168,-81,-27,2,-10,-5,8,-41,-69,-98,58,75,-7,-33,-92,105,-145,-95,-73,-69,-85,-145,660053
47,-22,4,-24,14,17,30,-14,-93,59,-52,22,-16,-121,35,7,-22,-42,-70,53,51,0,-18,-61,81,-185,-52,-43,-44,-62,-21,660054
7,-2,12,-1,2,4,69,-54,-28,55,292,193,15,-48,18,14,22,18,-6,43,-5,6,12,11,39,-268,21,13,17,0,44,660055
-167,-1,40,44,-14,-21,-109,-118,37,-142,151,-39,-91,-99,-25,-189,78,82,150,-157,-532,-117,60,183,-360,-1080,178,121,137,117,393,660056
-228,-13,30,45,-17,-25,-192,-232,24,-120,-62,-163,-63,-184,-139,-311,52,60,177,-274,-799,-189,48,194,-557,-1530,169,124,154,123,500,660057
-226,-20,36,47,1,-16,-194,-228,9,3,-133,-132,-13,-102,-170,-331,53,54,209,-276,-857,-194,62,191,-579,-1670,178,130,163,136,475,660058
-86,-18,22,55,28,16,-60,-9,-24,11,-172,-1,-66,-42,-20,-186,29,13,145,-115,-516,-81,51,108,-289,-1209,89,86,129,83,129,660059
82,-12,-4,28,42,49,85,81,-35,0,-66,-5,-26,-2,39,-18,-36,-60,-40,45,-31,16,-24,-63,74,-465,-70,-41,-19,-49,-262,660060
83,-6,8,34,50,60,110,151,-34,-138,167,90,95,-43,12,-8,-21,-46,-49,38,7,20,-18,-59,76,-394,-49,-37,-25,-52,-208,660061
46,-12,-14,15,23,33,155,48,-18,-107,258,-60,-77,-314,25,-11,-29,-53,-83,26,25,20,-18,-83,70,-348,-79,-58,-55,-66,-143,660062
47,1,-20,24,17,30,172,153,-92,-97,136,-63,-286,-304,37,-5,5,-19,-44,33,11,26,12,-44,61,-364,-56,-32,-27,-28,-65,660063
60,17,-24,32,21,19,144,68,-116,-113,109,-27,-183,-145,45,-5,7,-5,-14,29,3,29,23,-16,51,-376,-29,-10,-10,-13,-132,660064
18,12,-30,21,-1,-15,64,102,-74,155,212,82,36,-63,-5,-44,10,6,9,-4,-92,11,19,10,-23,-511,5,9,7,1,-16,660065
-301,-20,72,46,-37,-52,-321,-179,153,163,-178,28,129,-154,-35,-337,162,164,327,-301,-950,-155,153,343,-676,-1833,319,237,254,227,691,660066
-518,-46,122,63,-42,-51,-567,-265,285,-87,-461,-194,18,-145,-103,-577,224,224,548,-508,-1626,-292,234,542,-1134,-2937,509,376,435,377,1080,660067
-556,-64,144,75,-23,-10,-606,-302,257,-137,-131,-34,-20,-106,-59,-650,244,240,638,-549,-1868,-316,272,603,-1254,-3414,561,437,523,434,1073,660068
-254,-63,28,41,1,3,-231,-5,15,-118,77,-14,-65,-63,23,-329,159,111,380,-197,-1089,-128,207,321,-589,-2321,291,273,361,267,328,660069
156,-22,-87,14,50,38,224,309,-213,118,203,129,-39,-31,-6,80,-33,-97,-99,198,108,89,18,-135,287,-470,-146,-50,-10,-72,-446,660070
179,-20,-82,2,45,47,194,114,-168,11,206,78,-89,17,48,75,-91,-137,-192,170,221,58,-61,-199,314,-222,-211,-121,-122,-154,-434,660071
132,-12,-43,4,33,45,157,-36,-156,48,168,6,-188,106,110,84,-23,-57,-126,153,168,68,-11,-105,247,-288,-108,-61,-52,-87,-263,660072
123,13,-46,17,10,14,211,129,-108,104,178,63,-168,124,60,123,34,-10,-77,195,228,110,50,-51,293,-192,-61,-13,-13,-33,-164,660073
86,-15,-73,-1,-14,-19,187,-124,-87,51,251,92,74,33,75,76,-9,-40,-106,139,175,55,8,-86,229,-224,-102,-64,-63,-74,-157,660074
-40,-34,-28,-10,-29,-21,4,-145,-23,58,-20,-38,-90,-31,17,-95,-30,-27,-51,-47,-182,-74,-34,-22,-93,-733,-42,-40,-33,-51,61,660075
-617,-75,155,50,-66,-53,-728,-321,125,-32,-379,-308,124,-99,-179,-739,184,215,552,-689,-1932,-441,162,573,-1419,-3413,543,364,409,359,1369,660076
-903,-101,224,141,-52,-56,-1054,-322,365,17,-376,-334,152,-279,-171,-1087,326,361,970,-972,-3017,-590,333,941,-2129,-5241,884,651,755,652,1914,660077
-783,-115,162,151,-19,-20,-898,-502,404,88,-530,-179,66,-182,-74,-1006,296,304,934,-819,-2879,-500,339,863,-1896,-5196,808,629,769,632,1530,660078
-263,-87,13,107,33,44,-265,-25,134,134,-205,26,106,15,65,-424,175,116,519,-224,-1452,-129,244,417,-729,-3162,372,381,494,351,334,660079
189,-64,-130,23,44,48,343,426,-172,150,262,177,-144,55,192,102,-29,-114,-90,252,63,134,45,-147,368,-827,-172,-13,18,-76,-559,660080
153,-40,-109,27,28,28,345,278,-222,157,96,195,-151,97,49,84,-31,-92,-159,202,142,101,23,-161,324,-648,-184,-61,-66,-115,-364,660081
163,-8,-88,46,34,27,370,137,-112,77,127,164,-109,64,66,86,-10,-60,-134,186,174,119,27,-122,317,-570,-154,-48,-67,-98,-266,660082
140,-14,-78,21,25,21,291,76,-9,-11,82,157,-127,-62,82,34,-16,-61,-103,129,100,79,24,-100,239,-639,-130,-24,-74,-93,-208,660083
120,-13,-65,10,23,30,207,57,-5,1,166,103,-82,-92,90,12,-22,-59,-115,97,70,48,11,-100,207,-659,-117,-41,-82,-99,-227,660084
60,-32,-70,-20,-3,-4,106,-5,-71,-28,266,80,-144,20,40,-40,-43,-63,-121,46,-6,16,-21,-95,125,-744,-108,-61,-84,-102,-162,660085
-199,-36,18,6,-25,-8,-221,-218,28,18,-23,42,24,56,40,-281,70,71,161,-206,-708,-120,71,199,-427,-1827,181,141,140,117,401,660086
-393,-50,79,49,-19,-15,-446,-162,80,-29,-260,-15,64,-188,30,-474,183,190,451,-379,-1354,-215,186,459,-874,-2878,428,339,372,320,868,660087
-348,-58,44,66,-7,-7,-403,-75,-58,-33,-193,-79,11,-219,22,-473,156,147,427,-349,-1371,-216,174,414,-822,-2952,378,318,366,301,680,660088
-110,-55,-24,43,12,24,-124,-35,-59,-110,31,112,-19,186,59,-233,62,31,184,-90,-754,-74,108,168,-317,-2055,151,151,203,148,115,660089
188,-22,-95,12,35,49,247,164,-42,22,201,224,-122,307,85,84,-51,-98,-142,206,141,99,-3,-142,331,-683,-147,-64,-54,-85,-449,660090
186,-27,-98,-6,14,17,277,284,102,69,245,168,-23,228,38,97,-92,-135,-232,201,271,64,-62,-210,371,-440,-215,-122,-147,-169,-464,660091
144,-35,-103,-21,-1,-2,237,191,87,173,-1,99,78,30,83,75,-88,-129,-246,173,287,41,-77,-212,333,-396,-214,-140,-172,-173,-456,660092
135,-22,-105,-30,-1,-2,220,156,-19,139,172,-15,16,-11,113,119,-59,-81,-213,201,346,80,-35,-185,362,-300,-189,-123,-148,-138,-425,660093
121,-6,-95,-24,4,3,176,186,-194,83,-42,110,-79,-21,89,116,-45,-68,-189,185,323,67,-27,-158,333,-308,-160,-114,-125,-124,-316,660094
164,-3,-82,-17,14,27,186,293,-132,35,-26,89,-44,93,15,130,-56,-85,-198,187,388,86,-33,-175,374,-194,-189,-122,-147,-142,-398,660095
219,-24,-106,-59,-5,8,258,341,-63,25,67,116,-8,42,-24,196,-87,-118,-281,250,615,117,-59,-262,525,185,-270,-186,-218,-208,-537,660096
280,0,-112,-67,6,2,340,130,-150,86,176,122,85,180,91,281,-91,-115,-336,312,820,159,-82,-295,664,543,-302,-215,-261,-232,-539,660097
345,2,-133,-65,6,9,424,186,-103,56,325,83,-43,215,98,363,-117,-157,-418,380,1082,208,-122,-382,845,991,-382,-263,-336,-289,-608,660098
169,8,-61,-45,0,16,212,120,80,-44,212,-24,-38,40,20,171,-97,-109,-304,164,649,81,-116,-251,464,418,-239,-199,-260,-208,-219,660099
-45,-4,8,-11,-19,-10,-21,-137,104,-219,88,-70,-187,-77,-37,-55,-32,-5,-53,-53,3,-56,-42,-18,-10,-550,-24,-41,-81,-38,172,660100
-44,-2,-3,5,-20,-27,1,18,-26,-31,105,-66,-164,-31,39,-49,-5,-6,-2,-34,-27,-42,-8,5,-5,-641,-9,-1,-40,-9,62,660101
-45,-7,-9,-7,-24,-44,20,-105,-135,12,49,15,21,0,33,-37,-1,-5,-19,-16,-28,-33,-18,1,16,-644,12,-9,-38,-14,46,660102
-35,-14,-38,-25,-42,-45,53,-288,-103,45,77,-13,-6,11,-70,-18,-29,-19,-65,8,20,-25,-47,-34,53,-554,-18,-44,-66,-26,-15,660103
-20,-14,-49,-16,-31,-31,54,-144,-138,12,-3,26,-42,-50,-27,4,-30,-26,-76,21,84,-8,-41,-50,96,-479,-48,-44,-73,-42,-106,660104
25,0,-39,-21,-8,-4,73,-38,-119,-138,102,22,-109,116,-23,56,-29,-27,-89,76,201,36,-26,-75,197,-293,-78,-55,-71,-51,-180,660105
242,21,-119,-30,-1,2,313,105,-246,-231,215,214,-130,351,98,313,-86,-118,-318,328,877,176,-94,-291,709,752,-280,-190,-227,-184,-592,660106
362,43,-137,-51,1,18,444,235,-153,-53,312,275,-196,353,98,481,-109,-129,-446,470,1310,269,-134,-405,997,1471,-372,-271,-326,-262,-697,660107
442,44,-142,-107,8,25,483,329,-51,158,358,154,-221,272,64,536,-158,-169,-524,493,1509,295,-181,-469,1094,1865,-433,-334,-407,-331,-895,660108
289,25,-88,-106,-11,-7,248,99,25,-29,67,97,-10,131,24,346,-128,-105,-378,277,1061,164,-163,-311,695,1278,-284,-250,-327,-244,-442,660109
20,23,7,-45,-14,-16,-62,10,59,-53,128,-60,-64,105,21,82,2,55,-47,15,271,32,-45,15,98,57,49,-24,-67,10,147,660110
29,16,-18,-44,-20,-26,-5,121,-13,-45,-31,-79,-34,57,21,112,21,50,-19,83,280,68,-24,13,156,52,46,2,-19,29,32,660111
-1,5,-9,-39,-36,-32,-52,-119,9,-77,-236,-23,42,-159,24,35,-13,11,-67,5,161,-3,-55,-24,52,-109,-18,-48,-64,-31,61,660112
-45,18,10,-14,-29,-17,-90,93,69,-15,25,-22,135,-187,31,-21,-10,10,-26,-45,18,-26,-45,3,-53,-346,-6,-21,-40,-12,56,660113
-12,12,2,-9,-20,-5,-36,28,1,-54,32,-59,29,-2,-20,-7,-23,-12,-52,-21,57,-16,-50,-28,-3,-296,-31,-37,-48,-26,-16,660114
118,4,-22,-17,9,22,96,112,-6,71,60,-9,-1,7,5,117,-62,-69,-158,110,370,58,-83,-140,255,196,-131,-111,-126,-100,-262,660115
560,25,-159,-94,38,51,627,521,-218,133,222,328,-72,-60,78,599,-249,-292,-642,595,1734,333,-258,-619,1279,2305,-600,-439,-493,-434,-1245,660116
762,62,-180,-130,37,68,863,645,-351,-156,420,343,-86,119,141,865,-318,-340,-897,796,2496,457,-340,-829,1773,3603,-778,-602,-702,-602,-1538,660117
651,74,-132,-136,12,45,689,447,-279,-114,335,206,-18,178,69,769,-281,-270,-827,651,2310,381,-325,-723,1525,3432,-683,-548,-669,-544,-1246,660118
240,50,-11,-111,-33,11,177,12,-105,-221,-63,-35,81,-272,-9,323,-176,-121,-470,178,1186,107,-247,-360,615,1832,-324,-336,-435,-310,-314,660119
-120,21,67,-49,-63,-32,-230,-13,-25,4,25,-126,275,-314,-99,-47,-28,29,-70,-169,85,-104,-122,15,-169,171,37,-63,-111,-16,349,660120
-139,10,57,-45,-56,-34,-266,-329,67,119,-45,-107,274,-225,-19,-50,20,74,30,-155,-66,-79,-54,89,-210,-120,101,8,-5,68,375,660121
-108,-15,41,-63,-47,-42,-320,-268,41,-1,17,-121,213,-23,-5,-41,27,65,78,-117,-70,-59,-35,97,-174,-198,104,36,35,80,302,660122
-49,-5,33,-62,-29,-18,-310,-42,72,5,15,-49,192,237,-30,4,30,56,73,-61,13,-26,-21,81,-86,-108,95,35,50,82,223,660123
-22,-15,24,-64,-20,-18,-236,-267,0,-53,30,37,128,285,-7,24,8,38,16,-25,74,-2,-34,37,-26,-20,54,5,19,42,126,660124
39,-7,3,-67,-11,-8,-40,-296,-14,99,-30,27,33,41,14,88,-6,7,-34,41,235,34,-38,-23,97,215,-7,-28,-23,-2,-69,660125
189,16,-18,-44,19,29,216,-20,-68,152,-33,-81,76,-304,-17,178,-120,-120,-256,133,614,59,-159,-240,353,811,-215,-197,-207,-174,-400,660126
248,27,-27,-35,22,47,269,324,-116,235,-2,-99,66,-258,16,190,-188,-179,-374,127,759,53,-235,-343,438,1112,-323,-293,-314,-273,-500,660127
252,22,-52,-48,-8,5,263,239,-25,11,-40,-55,-36,-21,25,254,-186,-181,-392,184,919,90,-227,-370,545,1414,-342,-301,-347,-274,-512,660128
83,33,-7,-24,-21,-23,53,-75,170,-10,-67,-55,-61,-24,-5,133,-114,-70,-196,42,534,19,-155,-176,213,835,-151,-164,-202,-134,-162,660129
-115,8,39,-19,-50,-39,-170,-55,87,96,-123,-152,42,-130,-34,-53,3,53,48,-132,-53,-76,-31,61,-205,-81,79,17,9,48,234,660130
-79,8,31,-18,-37,-46,-94,-90,148,236,-13,-89,43,-176,-77,10,50,75,73,-63,-1,-14,19,94,-118,-36,105,47,71,88,172,660131
-27,9,16,-13,-34,-40,-38,-98,35,94,-65,-24,-169,41,-55,48,4,25,15,-21,116,6,-12,28,-4,148,41,7,17,33,80,660132
-10,24,21,-4,-9,-1,-23,-19,52,14,-109,-14,31,71,-13,29,-22,-6,-10,-39,96,-16,-38,5,-10,134,13,-12,-9,-3,58,660133
43,46,18,2,15,24,54,99,123,-23,102,-67,-17,154,-59,79,-22,-10,-34,11,204,15,-43,-17,71,282,-16,-33,-29,-10,-84,660134
32,25,8,-12,-3,-1,25,0,-56,-80,3,-82,-155,26,-28,74,-9,3,-22,7,188,18,-13,-18,56,264,-6,-31,-26,-5,-6,660135
70,20,12,-16,4,-5,62,-54,-11,107,-52,13,82,91,61,120,-5,21,-21,73,290,65,-21,-31,155,413,-13,-27,-22,1,-128,660136
116,27,5,-30,1,2,120,179,46,131,-234,74,91,201,87,186,-36,-16,-84,127,476,98,-59,-89,293,715,-62,-63,-70,-37,-276,660137
35,24,15,-24,-17,-8,68,243,62,-109,-147,42,208,8,96,110,-30,-13,-64,41,317,43,-40,-55,140,481,-41,-54,-63,-36,-130,660138
-41,30,27,-7,-19,-18,0,-78,56,-112,-103,-43,15,57,38,24,3,24,3,-41,101,-14,-12,5,-31,139,14,-7,-18,1,58,660139
-17,21,3,-6,-21,-25,14,-307,8,123,-158,12,29,72,-68,41,5,13,-4,-4,127,10,-22,-4,8,159,10,-5,-4,13,-19,660140
1,7,-6,-33,-29,-13,-16,-149,5,72,-54,-75,-11,122,-42,68,-10,19,-28,16,188,20,-32,-10,51,241,-5,-23,-8,6,19,660141
5,12,25,-26,-8,6,-102,56,-9,-10,55,17,3,235,-45,70,34,66,44,15,130,34,22,50,18,135,62,41,43,61,105,660142
1,-6,20,-41,-13,-7,-168,50,27,-60,36,-40,137,201,44,68,30,46,32,8,111,30,18,29,5,103,52,30,38,50,52,660143
-2,-3,30,-42,-16,-8,-202,-169,43,-27,-26,-63,39,0,-36,55,37,56,47,3,72,20,23,46,-21,44,55,41,50,49,87,660144
20,-1,36,-27,-6,10,-172,129,34,138,-118,-112,-32,62,5,101,62,72,67,53,149,68,44,59,52,129,70,62,73,72,60,660145
104,-14,-18,-60,-14,0,6,153,4,-64,57,-91,2,168,8,204,5,24,-13,156,440,136,1,-38,272,571,-25,-8,-6,3,-171,660146
139,-5,-13,-51,5,2,83,82,-44,84,79,11,99,219,60,234,0,16,-62,184,536,149,-11,-73,338,743,-54,-36,-38,-16,-247,660147
136,12,-20,-35,6,-9,122,126,-66,-21,-88,44,-6,63,-5,225,-41,-39,-152,178,598,120,-50,-154,362,901,-125,-112,-123,-89,-293,660148
29,39,40,16,20,19,51,108,-25,-21,-96,-27,-53,-46,-53,38,-75,-59,-101,-21,236,-18,-92,-94,54,405,-92,-106,-121,-86,-101,660149
-25,29,48,41,10,15,10,-184,15,-30,-135,-192,-117,-175,-49,-80,-89,-70,-69,-138,-38,-109,-113,-68,-135,24,-70,-99,-98,-83,-62,660150
-8,32,33,31,3,0,44,-115,11,-107,-62,-28,-33,-205,18,-34,-55,-34,-50,-85,22,-63,-66,-56,-71,122,-41,-73,-65,-39,-5,660151
1,24,28,15,14,1,19,9,-11,-163,190,73,44,-53,-8,7,-21,-2,12,-63,36,-22,-14,-5,-43,125,8,-18,-10,10,41,660152
-43,-3,25,-7,-6,-23,-53,8,-30,-152,64,-15,-157,-166,-77,-46,-55,-23,-4,-118,-63,-64,-52,-20,-120,-5,4,-32,-29,-12,33,660153
-53,3,31,0,-4,-16,-43,68,42,12,-91,-110,-184,-133,-39,-37,-22,7,30,-106,-82,-40,-21,28,-116,-60,39,5,6,25,75,660154
-25,12,8,5,0,-16,21,-22,112,-161,-1,-66,33,42,-37,-7,-17,5,6,-60,-4,-26,-16,3,-37,45,12,-4,4,11,41,660155
-5,29,-6,14,0,-4,55,-120,11,-72,18,-103,-19,133,-95,7,-36,-23,-36,-41,57,-30,-37,-38,-5,139,-26,-49,-24,-26,-50,660156
-1,27,20,18,9,12,34,-251,27,-77,-22,-87,-63,6,-151,-8,-27,-11,-20,-50,33,-32,-21,-23,-30,89,-7,-44,-18,-17,-60,660157
-34,1,26,-1,6,1,-24,-223,-33,5,-47,-131,-105,-138,-66,-40,-31,-14,-12,-85,-69,-65,-41,-6,-115,-70,9,-43,-16,3,39,660158
-69,16,37,15,4,2,-53,-116,-60,29,-59,-102,-175,71,3,-70,-2,15,33,-100,-185,-71,-18,49,-196,-266,58,-6,26,49,115,660159
4,32,16,21,7,-2,36,-43,19,10,65,-60,10,173,56,2,3,4,-1,-2,9,5,2,7,-33,-19,16,-19,20,21,2,660160
24,17,6,8,4,11,31,112,93,-17,138,-26,-60,-39,-6,20,-26,-17,-29,13,74,12,-24,-26,16,92,-22,-42,-5,-17,-45,660161
-1,7,1,2,2,12,38,-4,62,-90,-16,-18,-117,-111,-20,19,-21,-2,5,12,56,11,-14,-5,-12,50,-4,-13,13,3,-57,660162
23,30,15,11,19,15,103,146,8,79,-2,-38,-13,22,36,44,5,12,24,40,100,35,-2,4,30,102,12,-2,31,23,-58,660163
27,40,16,17,29,20,128,267,29,-48,-84,-47,36,0,-58,51,22,22,33,50,85,31,17,22,18,80,37,16,39,40,13,660164
10,31,16,33,29,14,59,59,16,-76,-40,-43,-16,109,-31,34,27,26,40,19,36,27,24,26,-18,5,31,22,26,40,15,660165
64,22,-25,23,18,-13,73,-59,-90,77,-32,-40,-228,7,-30,91,-3,-5,-30,70,195,54,19,-49,118,269,-52,-25,-23,-18,-146,660166
49,25,-39,21,-6,-25,89,-36,7,-84,100,-36,-22,-42,-10,70,-27,-23,-57,53,190,37,-6,-52,102,291,-58,-52,-44,-36,-168,660167
14,36,0,36,-2,-7,78,-101,66,-129,108,-2,152,133,12,70,17,32,4,47,143,50,16,14,65,199,16,-1,12,19,75,660168
-26,6,21,3,-12,-10,-31,-210,-60,35,47,-80,-91,-15,-13,16,26,34,51,-3,32,22,23,41,-9,41,39,30,33,36,112,660169
-7,1,24,-17,-4,14,-62,-88,-52,-46,-101,0,-57,-91,-28,-2,-5,-7,16,-10,33,3,-3,5,-3,73,-7,-3,-6,7,7,660170
39,10,9,-6,18,37,-20,12,9,-38,72,42,-152,-13,-35,53,-9,1,-18,19,148,41,-16,-12,98,249,-29,-23,-22,7,-42,660171
40,17,5,-8,3,18,-4,16,-46,-68,112,-19,-50,-10,0,77,11,26,-8,29,185,59,13,-1,123,298,0,-14,0,38,36,660172
11,16,28,3,-1,6,-47,-100,66,38,-127,39,-5,-16,13,49,68,57,49,13,116,64,59,59,68,181,67,32,47,88,156,660173
22,2,19,-10,-14,-4,-44,94,131,-51,-57,38,73,9,45,76,49,41,13,39,159,76,29,34,115,269,40,16,21,73,73,660174
74,19,-2,-20,0,3,69,89,38,-65,106,124,-26,-6,26,138,-19,-30,-92,87,366,77,-41,-73,256,594,-69,-67,-74,-16,-192,660175
93,50,5,12,11,25,101,-40,66,-64,92,83,-158,-42,96,139,-19,-25,-97,88,381,73,-29,-81,246,629,-68,-71,-76,-26,-100,660176
52,29,-13,-1,0,1,48,-50,105,2,-238,-30,-18,-101,12,101,-9,-13,-65,66,282,55,-8,-58,165,491,-41,-52,-46,-5,-14,660177
57,25,-20,1,-6,-7,71,-102,-109,-15,-241,65,9,-24,-52,120,0,9,-34,103,300,72,4,-24,183,507,-19,-33,-19,27,-33,660178
33,15,-24,-9,-18,-22,73,23,-77,-24,-81,71,-76,-8,-5,128,12,33,-19,111,276,72,13,-2,162,473,-1,-18,-11,35,-13,660179
37,23,-6,-11,2,2,61,185,13,23,43,-69,-34,-50,22,130,2,13,-22,113,297,83,14,-18,172,517,-21,-36,-34,13,-35,660180
67,33,3,-2,16,16,63,103,29,50,37,-38,194,-94,-27,110,-29,-24,-72,111,307,64,-27,-75,172,573,-49,-75,-67,-11,-126,660181
76,34,-10,-1,6,15,111,59,18,30,-100,-37,158,-192,-88,92,-48,-48,-109,97,315,40,-48,-93,166,603,-92,-99,-91,-36,-234,660182
80,29,8,11,8,30,137,209,70,-58,50,21,-14,-142,0,83,-51,-48,-107,85,298,30,-57,-97,139,595,-105,-96,-102,-51,-195,660183
70,28,23,24,8,35,117,267,61,-33,32,-53,32,58,8,56,-57,-55,-96,52,228,5,-72,-91,93,507,-89,-97,-100,-55,-87,660184
28,27,11,25,-10,6,80,60,176,-116,-55,-84,67,-216,-90,-15,-86,-80,-111,-14,118,-57,-92,-103,4,369,-90,-119,-121,-65,-54,660185
86,37,-5,13,-10,-2,172,185,60,88,199,79,48,-60,-57,129,-65,-61,-134,110,386,43,-57,-121,222,753,-126,-122,-120,-68,-159,660186
128,37,-19,-5,-6,-14,193,-46,-98,-44,100,99,-55,4,-53,234,-47,-40,-144,209,614,115,-43,-132,388,1102,-137,-109,-124,-79,-267,660187
118,38,-25,-20,-13,-29,173,36,-162,9,36,19,-136,21,-13,259,-41,-37,-166,220,697,128,-50,-147,448,1242,-142,-118,-141,-85,-271,660188
59,32,19,-34,-19,-4,48,87,-84,-36,77,-88,-22,9,13,203,12,23,-88,131,497,94,-10,-61,294,949,-39,-53,-77,-12,-71,660189
-14,14,40,-35,-16,-5,-85,14,37,-86,-119,-49,33,-7,-41,88,65,79,57,25,178,46,40,65,66,474,75,34,16,80,116,660190
19,23,44,-20,0,9,-71,-50,-55,23,-9,20,-90,18,-34,77,22,35,37,6,176,20,13,30,84,481,23,-1,-19,48,44,660191
45,34,41,-11,18,15,-19,85,-41,81,-64,26,60,138,-27,96,7,24,13,18,212,31,-5,0,114,540,14,-14,-24,39,9,660192
74,28,13,-16,28,17,32,-24,-93,-30,-7,-25,37,-58,16,110,-33,-5,-69,31,298,24,-47,-69,176,683,-56,-71,-71,-13,-97,660193
69,21,15,-3,24,11,25,-182,-59,-13,-60,35,58,-181,48,99,-36,-14,-92,16,296,14,-56,-86,156,696,-66,-80,-92,-43,-151,660194
37,18,-4,-18,-18,-22,12,-185,-74,8,84,-33,103,57,0,114,-9,5,-72,28,323,39,-30,-67,160,722,-38,-53,-76,-22,-126,660195
98,35,-33,-28,-23,-21,95,1,-82,7,307,37,-22,173,61,225,5,7,-95,138,542,121,-8,-87,333,1043,-71,-52,-82,-34,-278,660196
209,54,-65,-40,-7,-23,246,-21,-161,47,388,104,-68,263,67,367,-38,-44,-222,283,923,195,-42,-215,603,1635,-199,-134,-184,-120,-471,660197
235,62,-51,-48,-8,-27,263,0,-72,9,327,90,17,261,50,405,-22,-16,-220,329,1020,228,-43,-197,673,1828,-171,-123,-178,-106,-366,660198
120,36,-20,-70,-32,-33,88,-120,-118,-24,161,-21,59,130,-36,234,-41,-17,-170,157,669,100,-63,-136,375,1377,-121,-111,-163,-95,-113,660199
-31,27,34,-36,-22,-28,-119,-162,-11,-118,-216,-62,44,91,-68,32,-11,25,-27,-28,170,-27,-32,-8,-18,606,-1,-36,-63,-9,113,660200
-6,28,54,-14,-8,-12,-89,44,-10,-181,-188,-37,-54,19,-80,28,-13,9,-18,-10,129,-18,-28,-18,-18,553,-13,-35,-47,-4,-6,660201
14,29,61,5,12,16,-22,-36,36,-70,-215,-97,-13,-60,-35,36,-27,-17,-46,-19,131,-30,-47,-44,-6,566,-34,-56,-61,-15,5,660202
-32,14,51,11,-4,-7,-24,-96,-20,18,-38,-103,55,-207,-27,-35,-42,-27,-42,-80,-5,-90,-73,-39,-114,372,-23,-66,-69,-21,79,660203
-41,16,35,21,-16,-11,-5,-18,51,90,171,-113,78,-265,-23,-49,-50,-39,-31,-84,-22,-101,-65,-42,-125,330,-28,-55,-60,-21,68,660204
-18,16,35,13,-7,-3,-5,-29,142,-110,103,-40,38,-156,-74,-39,-68,-43,-32,-64,1,-86,-70,-42,-86,377,-42,-56,-59,-22,-2,660205
108,31,22,-7,25,39,84,67,70,-213,24,19,14,18,41,117,-61,-64,-101,87,336,19,-75,-103,194,873,-104,-96,-95,-60,-225,660206
222,20,-19,-57,17,25,178,59,32,-141,189,102,-23,-42,27,266,-94,-100,-242,218,730,108,-110,-230,474,1490,-221,-181,-197,-137,-468,660207
255,30,-20,-49,15,13,200,-43,-16,-3,268,74,-78,-108,-9,293,-100,-94,-283,229,826,126,-112,-255,517,1671,-239,-202,-226,-167,-497,660208
80,12,14,-58,-15,-19,-5,-50,-90,106,152,-13,117,-316,-2,142,-34,-7,-133,65,431,43,-64,-98,200,1110,-79,-89,-110,-65,-145,660209
-104,7,49,-36,-27,-43,-193,-64,-1,45,42,-9,241,-57,27,-20,33,68,65,-99,-43,-33,11,90,-145,369,94,49,30,75,227,660210
-79,14,56,-17,-13,-20,-140,-63,-91,4,-12,-55,203,-167,76,-22,-5,23,26,-95,-20,-41,-10,42,-124,355,35,17,-12,31,135,660211
-68,10,62,-4,-6,-7,-136,-120,83,14,-122,-148,175,-208,-9,-49,-10,18,26,-112,-94,-62,-25,33,-167,241,15,9,-6,19,73,660212
-21,4,31,-10,-17,-12,-65,-11,20,-66,-40,-69,1,151,-49,5,-19,0,8,-49,31,-31,-33,-4,-60,416,-24,-15,-24,-5,-81,660213
-19,-1,25,-20,-16,-15,-61,-33,10,17,-71,0,50,71,-27,16,-16,12,-8,-29,67,-20,-27,-3,-34,454,-17,-21,-21,-5,22,660214
38,15,20,-14,1,2,8,-84,-112,74,-52,48,161,-31,-6,92,-9,-5,-31,48,225,40,-23,-26,98,689,-43,-23,-38,-17,-112,660215
365,39,-79,-51,27,21,409,291,-295,-103,95,195,-66,44,58,461,-120,-154,-348,409,1207,255,-113,-358,848,2196,-348,-229,-278,-233,-818,660216
586,72,-134,-90,34,19,637,459,-297,78,421,247,-56,63,119,707,-195,-216,-622,623,1925,375,-198,-591,1327,3378,-570,-392,-483,-412,-1058,660217
517,80,-91,-95,20,0,472,323,-119,114,292,160,-163,83,102,642,-156,-151,-586,512,1779,315,-198,-514,1143,3257,-493,-363,-461,-386,-828,660218
217,43,-8,-85,-22,-31,51,241,49,-110,15,-39,-10,25,-29,336,-91,-53,-323,181,1014,126,-157,-257,514,2181,-228,-211,-296,-219,-254,660219
-141,9,108,-54,-40,-31,-389,26,-29,-95,-154,-185,42,-237,-80,-48,32,98,73,-189,-56,-93,-41,115,-280,545,124,37,-2,53,291,660220
-141,1,90,-51,-32,-33,-318,25,-26,50,-142,-89,-89,-46,3,-60,35,82,92,-156,-133,-83,-15,118,-284,376,131,49,46,83,260,660221
-100,8,65,-23,-26,-29,-156,36,14,-35,-76,-54,78,64,30,-16,14,44,41,-104,-43,-48,-41,66,-170,489,83,12,26,68,167,660222
-81,30,70,25,0,-10,-56,-76,-43,-233,-164,-61,19,-55,-92,-32,-12,26,27,-117,-59,-57,-39,41,-176,462,41,-1,9,40,192,660223
-67,32,53,43,-3,-19,-6,-13,39,-62,-82,-34,21,24,-66,-17,14,35,55,-93,-47,-28,-8,56,-143,447,47,15,31,48,205,660224
-52,38,37,31,-13,-27,32,-101,57,56,61,-18,-111,-7,7,37,68,77,89,-31,11,25,41,101,-86,495,90,56,81,93,192,660225
86,52,7,19,1,-11,194,87,4,-54,-152,114,-108,174,54,190,50,41,-16,131,389,125,26,-12,219,1053,-13,16,13,31,-75,660226
155,60,-12,-6,6,-4,226,116,-114,-160,-222,-3,-88,230,79,252,-20,-12,-131,164,609,127,-39,-126,362,1423,-125,-70,-107,-69,-146,660227
106,36,-2,-37,2,-10,87,21,-69,-144,4,-55,15,-63,23,154,-62,-45,-131,45,443,38,-80,-128,212,1230,-132,-92,-133,-92,-111,660228
7,6,21,-28,-8,-14,-73,107,-50,-124,-117,-73,147,-79,-12,54,-34,-12,-68,-56,169,-20,-62,-46,-17,839,-46,-49,-78,-38,146,660229
-135,-3,72,-15,-19,-17,-247,147,22,-12,-72,-15,58,-13,-45,-62,41,70,119,-150,-216,-74,26,131,-292,219,123,76,72,95,358,660230
-94,-4,77,-7,-10,-3,-168,-41,45,33,-25,0,137,101,-11,-35,54,54,128,-88,-160,-41,46,115,-206,266,96,77,88,82,183,660231
-86,-6,65,9,-9,-1,-114,25,69,80,-25,-84,-138,150,-7,-57,28,23,79,-100,-188,-77,24,74,-227,248,55,44,41,36,96,660232
-94,2,55,14,-9,2,-80,-241,-10,79,5,-90,54,93,-23,-61,10,28,71,-110,-240,-92,5,80,-264,168,59,46,45,32,117,660233
-82,15,52,19,3,7,-63,-203,3,-25,-2,-46,133,93,-27,-52,22,36,109,-103,-244,-85,12,91,-250,139,64,65,66,45,219,660234
-20,20,36,16,11,12,-12,86,-14,130,-34,-39,14,-51,-3,7,27,29,67,-30,-114,-24,31,48,-122,336,33,42,51,20,87,660235
238,23,-27,-10,36,26,252,125,-127,123,103,29,71,-3,7,273,-63,-77,-206,225,625,135,-56,-206,430,1437,-216,-125,-150,-150,-527,660236
345,43,-34,-21,44,43,353,383,-82,2,267,147,135,23,79,389,-100,-113,-332,318,999,187,-106,-312,659,2033,-317,-213,-254,-234,-632,660237
320,58,-36,-24,27,32,346,315,-77,-93,266,111,21,13,45,375,-127,-134,-377,290,1065,167,-133,-345,653,2181,-346,-255,-301,-278,-662,660238
124,39,32,-5,10,7,104,25,60,28,162,36,155,-277,-24,163,-72,-48,-189,58,550,52,-97,-156,229,1418,-152,-134,-169,-151,-109,660239
-103,6,89,4,-12,0,-132,-284,61,17,-115,29,26,-309,-93,-62,20,58,86,-165,-117,-60,-6,96,-257,401,85,50,31,49,339,660240
-131,4,77,3,-13,-15,-134,-136,52,-15,4,6,43,-160,-69,-81,53,78,156,-175,-224,-62,49,134,-307,192,109,100,76,83,320,660241
-130,5,67,2,-16,-24,-183,212,143,-5,133,-22,-29,-86,6,-101,38,61,128,-182,-256,-77,30,107,-312,129,85,76,65,55,317,660242
-120,-9,58,-6,-11,-16,-223,98,75,-74,-95,-55,-94,-146,-22,-80,37,59,129,-163,-254,-59,33,116,-281,101,100,92,84,70,303,660243
-96,-8,66,4,0,-2,-225,-126,-16,-69,-146,-20,-50,-256,-16,-92,31,50,139,-174,-272,-54,43,102,-287,58,102,87,89,81,247,660244
-70,-1,61,15,-7,4,-159,-21,-102,79,-85,48,111,-83,45,-59,51,66,134,-127,-219,-21,59,109,-227,112,102,84,111,85,264,660245
48,10,7,-1,6,-8,10,-64,3,87,215,92,103,131,9,83,10,12,-1,34,161,62,19,-19,86,668,-11,3,19,9,-67,660246
225,30,-27,-31,32,21,202,72,-132,60,367,189,-51,113,57,271,-65,-81,-213,211,712,155,-56,-210,486,1542,-204,-133,-145,-139,-437,660247
246,13,-30,-69,23,33,210,288,-120,115,96,161,14,57,12,276,-133,-135,-288,200,816,118,-133,-281,518,1781,-268,-211,-238,-212,-478,660248
78,20,11,-43,4,0,89,52,31,82,131,140,-68,32,-36,125,-63,-49,-145,35,393,25,-76,-115,174,1202,-108,-113,-128,-103,-47,660249
-163,27,80,23,-5,-29,-117,-249,106,175,48,-31,12,-30,-33,-106,59,87,124,-200,-326,-107,43,154,-362,92,146,81,91,89,398,660250
-168,19,73,42,-8,-22,-116,-407,88,102,-150,-157,114,-11,-46,-155,46,70,141,-215,-463,-133,36,155,-443,-128,139,88,115,82,339,660251
-160,3,63,24,-6,-9,-133,-248,60,9,47,-89,193,-112,-45,-141,30,53,135,-189,-463,-132,20,154,-423,-158,124,94,109,77,285,660252
-121,-3,54,22,-3,-11,-93,-4,-30,-82,63,-13,1,-48,-23,-74,41,51,142,-127,-360,-96,44,140,-328,-39,112,97,113,78,232,660253
-19,6,15,12,10,-11,11,-237,-48,-133,-70,32,-97,169,-26,34,42,35,104,-1,-109,-13,65,86,-115,323,57,75,87,52,19,660254
7,24,25,20,16,0,10,-110,86,18,-127,-21,11,95,10,31,45,54,94,14,-85,-7,64,92,-106,353,62,77,82,52,89,660255
-98,-7,39,9,2,-17,-113,3,137,14,-164,-27,57,-94,40,-80,54,76,155,-104,-351,-73,64,156,-310,-62,119,102,124,89,232,660256
0,-5,7,-13,4,3,4,196,66,-49,19,-48,-138,-34,47,26,18,17,58,-7,-44,-1,21,50,-72,367,22,35,43,9,-15,660257
-41,-5,28,-9,3,21,-59,146,62,-108,178,-16,-74,-83,24,-42,6,3,48,-82,-138,-35,7,30,-162,232,5,16,15,-17,45,660258
-65,-5,58,-3,27,37,-120,72,25,-51,-51,-49,143,-70,20,-74,24,22,67,-120,-233,-50,21,52,-228,76,43,33,54,16,72,660259
-51,-10,39,-6,17,19,-67,-69,62,-111,81,13,246,-64,-20,-66,16,23,60,-116,-218,-42,22,48,-202,84,40,42,59,13,64,660260
-73,-4,23,4,2,0,-28,-4,-10,-68,-96,-18,222,-129,-44,-96,-5,4,59,-145,-264,-73,3,48,-226,2,29,24,45,-4,198,660261
-50,-5,10,13,2,-9,-12,111,-106,135,-98,20,94,111,-18,-64,-4,-2,57,-91,-169,-34,15,27,-149,131,6,18,36,-5,115,660262
-67,7,29,9,14,1,-99,-157,-30,50,-124,-20,75,22,42,-61,48,38,128,-85,-188,-4,68,90,-157,70,76,80,98,53,156,660263
-105,-13,28,-1,10,-3,-194,-99,4,45,-174,-28,116,-140,-46,-123,24,25,106,-143,-310,-49,33,90,-245,-97,75,59,85,47,149,660264
-99,-5,33,23,17,-4,-130,-86,-5,-5,-114,-26,37,195,-12,-96,28,39,117,-120,-299,-34,43,103,-222,-104,84,72,103,69,101,660265
-168,-11,35,39,-10,-30,-160,-52,30,18,-48,-70,35,179,14,-182,34,59,169,-199,-488,-90,48,147,-369,-411,143,107,139,93,222,660266
-198,-5,48,57,-3,-22,-237,-45,46,75,-27,-57,35,-17,-5,-239,55,60,224,-251,-663,-123,65,187,-476,-684,181,151,183,120,274,660267
-161,-9,53,33,2,14,-245,-46,-90,9,-44,-20,166,102,-1,-205,87,92,241,-198,-628,-99,93,205,-444,-681,201,174,213,141,315,660268
-125,-31,41,16,-1,12,-221,-40,67,-55,-97,-52,142,196,-48,-173,90,96,219,-161,-588,-82,106,194,-402,-649,179,149,205,127,338,660269
-69,-30,7,17,2,11,-51,-231,35,-45,-155,56,116,25,-93,-85,63,53,135,-60,-357,-37,80,114,-215,-305,92,99,153,76,189,660270
-32,-12,-33,35,-3,-6,70,11,118,-127,-84,55,66,34,-74,-40,21,4,49,-12,-203,-21,20,37,-120,-55,26,38,82,20,8,660271
-59,-13,-30,31,-12,-16,1,64,21,-112,81,77,18,-36,-35,-71,6,-13,46,-46,-250,-55,4,51,-171,-123,33,31,62,-1,46,660272
-51,-3,6,30,2,-7,3,50,-11,-65,177,27,76,52,11,-41,45,27,98,-16,-234,-20,54,102,-142,-109,76,81,97,54,122,660273
-72,2,14,25,9,-5,23,204,22,135,144,-15,-45,-38,24,-52,54,45,109,-38,-283,-30,72,103,-177,-188,91,100,111,64,136,660274
-77,0,3,27,6,-6,18,243,132,-21,-194,-63,-121,-163,-23,-81,32,36,86,-67,-340,-63,42,85,-235,-268,69,77,92,33,155,660275
-217,-4,65,62,13,-1,-174,-132,132,37,-148,-149,-17,-93,-88,-264,72,79,209,-252,-797,-173,68,221,-602,-978,193,151,188,107,518,660276
-346,-35,106,94,11,13,-380,-379,109,19,-110,-161,47,-181,-130,-451,108,111,374,-417,-1285,-265,102,365,-928,-1761,319,247,310,203,670,660277
-316,-51,80,86,25,29,-321,-213,33,-35,-158,-145,203,-308,-78,-438,96,88,368,-373,-1252,-232,100,332,-847,-1784,293,233,298,207,537,660278
-158,-31,39,97,43,30,-79,-105,41,-36,-289,8,150,-149,42,-265,77,42,246,-178,-815,-115,98,200,-486,-1186,169,164,227,139,234,660279
31,-6,-26,60,44,30,166,-41,64,62,80,140,-50,52,90,-42,16,-32,45,43,-191,33,72,11,-11,-253,-12,42,83,2,-51,660280
31,-10,-27,34,24,19,135,-58,60,29,70,40,-119,157,96,-19,15,-27,15,34,-97,42,56,-4,23,-109,-26,34,50,-14,-66,660281
-44,-5,12,26,14,9,4,-166,19,51,59,55,45,7,57,-81,43,22,79,-43,-258,8,79,74,-116,-355,40,71,89,28,66,660282
-54,-17,5,11,13,7,-14,-216,39,296,-36,96,132,42,31,-71,54,35,113,-26,-245,32,93,97,-102,-350,63,95,115,54,31,660283
-33,-27,-2,2,21,19,4,49,-39,247,-198,50,-99,178,0,-42,45,29,86,-17,-184,39,67,74,-53,-257,48,86,97,40,-18,660284
-62,-31,-4,-2,26,13,-73,49,-55,176,-134,-37,147,-75,23,-134,-3,-22,49,-107,-309,-52,19,30,-168,-422,20,44,50,-8,47,660285
-168,-44,27,24,21,10,-227,-184,54,157,-102,-117,234,-345,-28,-304,19,26,146,-279,-733,-154,49,130,-514,-1068,118,102,129,69,404,660286
-328,-57,92,71,13,2,-368,-242,160,194,-343,-151,252,-286,-67,-489,126,134,388,-420,-1297,-238,147,376,-903,-1980,343,266,324,249,773,660287
-399,-36,116,103,10,10,-347,-339,213,81,-262,-174,177,-162,-30,-538,188,187,521,-442,-1529,-248,212,486,-1019,-2423,451,360,434,335,844,660288
-240,-10,57,130,36,29,-115,-219,159,53,-136,-6,53,47,14,-383,120,84,375,-266,-1147,-174,168,320,-673,-1901,267,259,320,225,393,660289
49,-10,-46,77,39,29,207,56,-71,-7,167,27,-14,133,62,-74,-24,-74,4,41,-250,-23,19,-44,-11,-521,-76,3,40,-34,-218,660290
27,-12,-35,41,36,28,112,193,-5,52,155,33,-90,123,22,-42,9,-28,8,34,-214,-26,40,-14,-22,-442,-19,31,46,-17,-47,660291
23,-23,-43,13,25,24,59,126,-111,44,-151,73,-33,63,11,-29,27,2,22,36,-189,-21,58,9,-12,-389,7,47,52,-9,38,660292
48,-29,-41,18,34,24,23,197,35,-7,-61,58,47,-60,-56,-41,18,-8,0,28,-203,-28,34,3,-39,-382,-4,24,34,-17,27,660293
57,-17,-12,28,39,50,4,115,15,24,-109,-7,4,12,-39,-62,-2,-29,-10,4,-235,-46,12,-3,-82,-421,-10,12,9,-35,-45,660294
62,-18,-13,31,36,47,16,43,12,-13,-23,65,-54,1,-12,-56,-18,-40,-18,12,-180,-57,-1,-22,-53,-362,-20,-5,-3,-35,-80,660295
-261,-56,73,39,-10,7,-344,-34,211,102,-153,-68,111,-45,-73,-394,69,88,250,-334,-1043,-246,81,266,-734,-1664,249,172,197,149,661,660296
-570,-77,156,89,-31,-10,-673,-509,247,79,-514,-209,141,-175,-137,-735,193,214,610,-650,-2011,-408,212,588,-1411,-3216,555,399,473,388,1148,660297
-546,-86,122,110,-18,-14,-569,-482,222,219,-534,-143,209,-182,-99,-690,203,199,638,-569,-1995,-351,241,577,-1306,-3293,547,426,526,403,1010,660298
-292,-53,38,103,13,17,-209,-178,83,418,-161,-32,16,-21,-62,-436,153,114,429,-294,-1343,-175,205,368,-763,-2418,330,305,401,268,459,660299
76,-15,-61,80,55,49,228,57,41,198,141,145,-31,151,81,-60,29,-32,37,81,-273,46,91,5,35,-832,-19,67,120,11,-165,660300
132,-5,-61,74,58,59,220,-44,-12,73,235,155,91,84,83,-3,6,-61,-55,116,-40,68,49,-74,159,-448,-77,-4,21,-58,-250,660301
105,-13,-56,51,47,56,138,51,-93,-7,38,97,-132,69,-3,-15,8,-37,-48,88,-38,57,51,-48,125,-432,-54,6,22,-53,-154,660302
96,-28,-66,11,23,26,105,243,-101,38,110,93,21,179,44,17,18,-20,-33,115,27,87,56,-32,174,-299,-33,14,29,-35,-166,660303
65,-32,-52,-16,10,25,93,-74,-15,72,221,67,55,326,142,22,32,-4,-16,114,57,94,50,-17,174,-253,-19,29,35,-8,-143,660304
14,-41,-22,-17,9,33,6,-309,-19,69,-15,5,184,-149,-3,-52,7,-24,-2,22,-97,16,33,-6,30,-452,-15,18,13,-11,-68,660305
-209,-55,56,24,6,36,-271,-379,63,95,-155,-174,158,-254,-60,-313,59,52,208,-251,-802,-165,66,204,-512,-1486,185,142,149,108,403,660306
-439,-75,114,66,-7,16,-509,-296,226,29,-201,-247,136,-231,-102,-590,156,168,494,-505,-1610,-306,174,463,-1079,-2762,438,326,385,301,878,660307
-463,-78,95,101,-11,2,-476,-318,131,109,-220,-133,43,-12,-82,-634,176,166,519,-506,-1763,-317,205,490,-1138,-3106,446,350,440,337,837,660308
-264,-54,26,104,16,0,-185,-221,85,130,-103,-75,-67,162,-32,-396,143,95,376,-236,-1198,-163,173,327,-660,-2357,289,269,338,240,268,660309
132,-10,-80,57,56,32,265,224,34,27,142,39,-149,199,84,31,17,-58,-14,181,-49,81,60,-56,204,-629,-77,17,39,-22,-432,660310
160,-9,-81,16,41,18,236,236,-31,-48,68,47,-100,113,71,88,-7,-55,-99,214,152,97,23,-101,298,-266,-115,-39,-33,-57,-332,660311
101,-7,-60,4,25,4,147,81,-26,-136,-55,119,50,10,63,54,19,-14,-27,158,57,88,33,-31,200,-381,-41,8,14,-13,-139,660312
114,-4,-64,-7,26,15,117,206,25,94,-151,167,87,71,69,75,7,-24,-45,176,139,97,27,-42,240,-238,-57,-1,-6,-41,-150,660313
79,-27,-41,-5,23,36,-1,230,-19,132,97,74,60,-177,59,8,-28,-57,-77,95,46,38,-20,-60,130,-347,-70,-29,-36,-62,-199,660314
70,-38,-38,-26,25,36,-72,44,-94,-25,135,28,45,-104,24,-17,-72,-86,-119,54,31,0,-59,-95,91,-352,-99,-63,-87,-89,-192,660315
-157,-31,29,7,0,12,-302,-95,30,-8,56,-20,40,77,22,-232,49,69,157,-167,-617,-117,55,177,-389,-1346,172,135,126,106,417,660316
-298,-58,29,23,-27,-37,-329,-146,62,6,-200,-38,-75,129,-56,-361,126,135,328,-269,-1005,-152,138,325,-640,-1983,306,256,268,231,628,660317
-270,-58,17,57,-19,-25,-216,-211,78,-62,-96,-71,-101,138,-58,-351,118,104,322,-242,-982,-137,154,288,-589,-2006,275,244,258,219,497,660318
-94,-37,-22,54,0,9,4,-159,135,-75,138,-18,52,231,-53,-171,76,40,167,-48,-521,-35,123,136,-207,-1347,116,141,150,113,124,660319
113,-17,-70,37,20,31,185,183,23,120,-156,79,-24,278,53,40,12,-41,-38,157,66,87,44,-55,238,-457,-68,-3,1,-22,-236,660320
139,-10,-67,32,34,51,170,-51,28,-120,-143,62,-149,145,88,99,18,-21,-62,188,197,123,43,-68,309,-211,-54,-3,-20,-35,-217,660321
103,-5,-49,26,43,39,127,-140,5,-211,86,11,-68,-76,24,54,24,-7,-51,143,116,87,34,-37,224,-309,-25,8,-3,-21,-123,660322
76,-11,-42,30,25,28,120,-93,0,-91,383,4,-142,65,-49,11,-3,-19,-83,86,41,39,11,-55,159,-391,-38,-25,-32,-43,-95,660323
50,-5,-41,12,4,8,128,77,46,-100,232,61,-123,147,43,21,26,-3,-44,98,46,49,43,-30,150,-392,-25,1,-9,-31,-44,660324
54,-11,-28,7,16,21,113,48,-21,-96,151,49,-126,-12,76,22,26,-4,-25,104,60,51,31,-35,147,-371,-24,13,-17,-36,-30,660325
-42,-10,13,9,7,23,6,39,-65,-128,-207,-27,-70,-172,14,-76,46,36,52,-11,-224,-25,48,63,-80,-793,56,61,49,19,150,660326
-164,-31,20,27,-17,0,-115,-8,25,-158,-315,-63,-10,-54,-41,-212,94,92,185,-136,-596,-88,103,180,-358,-1387,172,136,147,121,410,660327
-163,-35,-3,48,-3,-10,-83,-95,131,-32,42,-13,-51,-67,-87,-199,114,97,219,-115,-609,-58,136,202,-344,-1441,184,172,189,153,353,660328
-79,-27,-17,51,4,6,14,98,31,-153,19,-37,-39,-50,34,-126,54,38,133,-35,-385,-27,77,106,-180,-1140,91,110,119,80,83,660329
119,-10,-65,27,29,37,164,215,-56,-104,171,68,-24,106,97,49,-37,-67,-71,136,119,61,-11,-91,189,-354,-100,-36,-50,-69,-269,660330
117,-15,-54,-5,22,38,89,106,-150,-8,254,107,51,195,88,81,-3,-17,-41,135,168,79,30,-53,197,-268,-61,-5,-26,-42,-188,660331
88,-6,-30,10,28,33,74,76,-82,125,142,90,-62,133,82,40,23,11,10,85,75,74,53,-6,108,-398,0,32,0,4,-120,660332
88,-16,-47,-1,16,28,96,-65,44,-24,43,38,46,-12,29,13,-39,-54,-72,55,105,40,-15,-79,110,-324,-79,-43,-62,-56,-264,660333
61,-18,-43,-10,-7,4,108,-76,1,-31,73,-41,97,-34,17,22,-42,-42,-85,56,143,40,-38,-69,123,-253,-77,-48,-75,-56,-173,660334
78,-1,-32,4,4,9,160,-54,18,33,220,91,-156,131,83,76,2,-5,-48,117,237,101,13,-24,214,-125,-35,-18,-37,-10,-78,660335
70,8,-39,8,2,-4,150,-40,-7,50,170,79,-117,142,54,87,19,16,-31,124,242,106,13,-3,239,-105,-6,5,-16,16,-56,660336
22,-10,-47,-4,-9,-24,93,-59,-46,-69,-44,-41,-62,31,11,42,-7,-2,-53,83,155,67,-23,-26,173,-203,-24,-19,-31,6,-88,660337
3,-11,-44,-7,-17,-31,37,38,-71,-74,135,-11,-148,76,-40,19,-13,-2,-38,61,88,41,-20,-15,126,-278,-21,-11,-15,4,-26,660338
-41,-19,-37,-13,-23,-37,-25,-44,-106,-34,215,88,-362,27,-17,-33,-4,-2,7,9,-44,9,6,28,29,-452,4,23,-1,16,103,660339
23,-11,-5,-1,19,16,-48,-87,-39,66,103,-26,-207,128,24,-21,8,1,14,25,-44,16,9,36,39,-443,6,22,-3,13,27,660340
89,-20,-7,-12,37,45,-61,41,-6,-7,37,-24,-125,109,-47,17,-19,-21,-43,52,73,10,-17,-32,117,-257,-36,-34,-47,-26,-150,660341
71,-30,-29,-35,11,22,-83,-93,131,-13,136,20,-62,176,-37,25,-19,-26,-44,65,97,7,-9,-44,130,-226,-40,-34,-51,-36,-138,660342
76,-7,-28,-22,-1,16,-17,-9,96,64,-62,67,95,159,-2,78,2,-6,-71,124,194,48,3,-53,222,-78,-48,-37,-52,-42,-139,660343
81,-3,-17,-24,-10,5,51,40,21,0,-36,27,-8,-8,23,113,30,25,-43,159,241,86,40,-11,250,-4,-11,-9,-18,-18,-90,660344
67,-8,-26,-19,-12,-15,109,271,-136,-124,33,25,-24,-11,34,105,30,16,-48,157,246,84,26,-18,243,13,-18,-11,-26,-24,-59,660345
162,19,-62,-4,11,3,282,279,-35,109,275,101,-69,39,29,213,-6,-30,-151,259,555,148,-7,-125,470,515,-141,-88,-114,-109,-300,660346
217,30,-82,-30,7,8,341,23,-31,187,295,73,-283,101,34,279,-65,-74,-256,292,756,167,-49,-229,571,861,-231,-165,-202,-194,-429,660347
248,26,-77,-47,27,17,292,138,-55,53,-64,74,-216,-98,101,291,-83,-90,-283,278,818,158,-78,-243,587,984,-253,-181,-230,-204,-455,660348
172,-7,-53,-65,10,11,84,28,-53,-30,-94,87,-39,-191,26,189,-96,-87,-255,162,630,90,-130,-207,396,742,-202,-167,-224,-184,-254,660349
32,-27,4,-53,-13,9,-120,57,79,-17,-34,-20,-39,-165,-51,9,-63,-45,-123,-29,192,-22,-100,-77,42,75,-67,-85,-135,-94,-27,660350
55,-23,6,-45,-4,15,-31,69,-13,-28,3,-46,-37,-178,-51,47,-16,-9,-64,9,236,36,-29,-48,102,101,-43,-43,-89,-44,-75,660351
70,-5,11,-30,9,17,25,-151,66,-5,126,-37,-141,-78,-4,57,-3,7,-47,24,234,52,-8,-36,96,88,-37,-39,-64,-11,-50,660352
6,-3,5,7,-8,-18,20,-167,65,35,-31,-68,-238,-83,43,8,-4,6,-14,-30,117,10,-15,-16,3,-102,-14,-23,-51,10,14,660353
-37,2,-9,17,-18,-38,26,-226,-51,-67,23,-57,16,131,1,-25,-6,15,24,-51,51,-3,-2,12,-37,-219,13,-6,-37,41,73,660354
0,12,-3,19,-1,-15,71,-18,-38,19,39,28,92,212,37,-3,-8,4,2,-37,93,13,-28,-8,14,-147,-4,-23,-31,33,-89,660355
246,19,-61,-19,25,22,312,105,-126,3,-73,79,-25,91,17,219,-134,-140,-270,198,727,122,-165,-280,520,874,-275,-208,-242,-163,-612,660356
361,35,-98,-50,29,23,412,181,-98,110,238,178,-103,-75,140,380,-181,-191,-455,347,1168,192,-227,-414,839,1625,-388,-321,-368,-275,-784,660357
323,40,-90,-83,1,-2,348,244,17,174,64,118,-134,182,169,392,-161,-156,-446,339,1206,194,-203,-371,834,1748,-350,-299,-350,-256,-670,660358
164,13,-42,-106,-19,-8,97,156,21,13,-89,-34,-57,107,45,216,-144,-103,-315,149,766,67,-199,-239,480,1179,-220,-227,-272,-181,-368,660359
-67,-7,21,-60,-41,-34,-145,5,69,107,-201,-149,12,-56,-26,-34,-53,-7,-58,-78,61,-72,-140,1,-22,144,14,-72,-62,-13,44,660360
-77,-2,9,-34,-50,-44,-78,-34,4,251,-160,-119,84,-46,7,-18,-6,40,24,-29,-20,-25,-82,70,-23,4,72,9,28,55,157,660361
-53,-2,2,-11,-46,-45,-11,86,9,122,-176,-37,34,97,29,6,4,23,26,9,4,5,-55,59,14,21,51,6,29,38,128,660362
-34,13,3,-3,-25,-40,-16,48,-49,-119,-85,-29,-112,-55,8,-25,-4,9,11,-19,-41,-54,-21,28,-61,-66,16,-19,-9,-8,96,660363
-5,29,9,21,-7,-26,-53,3,-63,-90,-122,-24,22,-235,-4,-21,6,5,-9,-13,-33,-56,12,6,-57,-46,-13,-41,-36,-46,98,660364
-1,32,1,21,-15,-30,-80,149,18,-92,-95,73,-202,77,38,53,57,63,24,56,52,30,53,58,15,48,35,7,10,2,91,660365
203,21,-85,-51,-12,-43,121,237,-73,-170,181,265,-125,464,76,333,14,-15,-170,345,757,214,-14,-140,573,1090,-155,-106,-125,-116,-453,660366
421,27,-133,-99,-1,-25,306,406,-152,-117,315,373,53,516,128,615,-59,-85,-389,579,1527,370,-78,-356,1100,2272,-343,-232,-308,-273,-828,660367
457,42,-115,-108,3,-24,385,398,-30,-69,254,337,56,439,97,682,-46,-61,-401,601,1725,396,-65,-364,1181,2631,-340,-233,-332,-276,-759,660368
285,44,-57,-88,-20,-28,308,253,-87,21,165,142,112,99,12,436,-53,-43,-332,330,1236,232,-80,-281,740,2001,-271,-216,-299,-237,-379,660369
-71,24,61,-22,-38,-20,-90,-83,3,-4,-153,-148,54,-355,-72,-34,-13,45,-20,-141,101,-55,-32,7,-149,298,11,-32,-84,-37,265,660370
-64,20,72,5,-13,14,-117,-65,48,83,-228,-110,76,-308,-87,-95,-57,-16,-6,-197,-23,-86,-73,-24,-217,55,-25,-42,-78,-41,65,660371
-72,1,57,9,-15,3,-159,-60,135,222,93,-174,110,-153,-132,-118,-59,-25,4,-221,-80,-103,-85,-40,-265,-104,-33,-52,-80,-34,46,660372
-73,-1,66,2,-5,1,-151,-55,31,115,164,-116,54,17,-9,-94,-8,18,56,-197,-72,-58,-29,3,-234,-168,22,-10,-24,32,129,660373
-70,7,52,18,-1,-13,-113,-20,119,10,31,61,-28,-22,43,-68,38,54,115,-166,-82,-21,27,53,-199,-217,75,50,42,90,128,660374
-50,4,19,11,-7,-32,-26,-18,55,-6,106,48,-18,-75,52,-54,17,30,81,-138,-21,-7,1,18,-125,-109,30,29,28,70,53,660375
100,28,-12,24,14,4,152,-92,33,-90,240,40,9,-77,33,89,-26,-32,-32,25,353,69,-13,-96,173,480,-91,-49,-68,-12,-261,660376
306,58,-39,10,53,50,328,127,-43,-119,457,111,-73,93,73,299,-93,-109,-258,228,903,154,-82,-295,583,1390,-260,-193,-221,-168,-527,660377
301,50,-19,-28,48,42,269,220,-7,-25,325,98,-124,187,39,303,-98,-104,-288,207,913,132,-108,-288,563,1498,-253,-214,-248,-189,-501,660378
74,25,26,-12,5,-7,39,224,-63,-194,52,32,27,84,70,105,-45,-24,-114,1,357,-6,-66,-102,128,762,-65,-103,-135,-84,-109,660379
-198,4,77,22,-36,-38,-212,-143,-30,-211,-65,-120,117,-166,-70,-142,38,73,137,-230,-384,-162,28,149,-406,-327,157,71,53,75,379,660380
-234,0,73,23,-22,-47,-206,-46,113,-43,10,-162,61,-189,-83,-198,33,67,192,-249,-566,-189,45,191,-493,-600,164,101,100,89,367,660381
-218,-14,68,32,-16,-39,-176,-139,65,73,98,-116,196,-98,-71,-221,33,52,175,-261,-649,-204,40,190,-516,-729,150,100,101,66,290,660382
-186,-10,81,51,5,-9,-161,-131,152,129,-137,-77,63,-75,-45,-227,30,42,192,-260,-693,-200,19,198,-529,-821,146,108,118,60,285,660383
-178,-17,66,44,3,-3,-170,-138,61,65,-244,-142,89,-152,-166,-239,-17,15,143,-273,-734,-224,-27,159,-551,-878,114,87,91,15,200,660384
-150,-8,64,50,5,7,-148,29,196,64,-178,-153,70,44,-102,-234,-23,5,104,-254,-697,-220,-24,128,-517,-865,87,73,86,-11,133,660385
36,-7,23,26,21,29,46,243,107,172,-28,-11,-92,-77,45,-65,-57,-65,-51,-79,-238,-110,-37,-41,-163,-210,-56,-28,-14,-118,-172,660386
240,22,-34,20,52,54,320,375,-94,215,258,128,-79,45,45,160,-152,-170,-298,131,436,18,-141,-280,319,794,-290,-192,-216,-293,-547,660387
280,34,-49,-3,39,51,373,199,-124,-2,145,44,-129,-22,62,211,-197,-208,-405,170,691,59,-196,-384,450,1229,-389,-279,-332,-381,-700,660388
126,35,-5,-12,16,36,141,67,-105,83,45,78,31,-190,-13,81,-137,-113,-255,-6,348,-10,-125,-228,148,719,-222,-175,-220,-264,-279,660389
-206,-6,77,-3,-27,-17,-296,-207,25,99,-169,-32,190,-109,-121,-233,18,70,130,-330,-557,-153,21,136,-554,-747,145,83,74,21,451,660390
-158,-11,32,6,-7,-29,-239,-66,176,48,-206,-25,-58,19,-56,-214,20,54,148,-279,-507,-92,33,99,-483,-804,130,95,103,44,292,660391
-126,-13,18,13,3,-10,-171,52,68,-55,-274,-35,-32,-150,-46,-151,44,69,136,-208,-363,-28,50,69,-357,-696,96,103,113,55,226,660392
-103,-1,27,23,4,1,-119,-39,-28,-2,-93,-34,57,-155,-46,-113,62,94,155,-160,-305,22,75,82,-287,-662,113,126,144,95,221,660393
-91,-1,18,12,7,6,-97,12,7,-80,-8,53,63,-121,-41,-117,49,77,129,-165,-289,17,56,54,-267,-667,87,97,114,81,189,660394
-117,2,45,22,12,14,-113,23,52,-47,-65,21,107,-11,-43,-131,68,90,161,-181,-359,2,80,86,-305,-787,121,125,144,102,228,660395
171,15,-53,-3,28,23,248,168,-42,-88,5,140,42,-16,66,205,-20,-45,-100,182,510,184,14,-191,399,555,-149,-65,-44,-84,-544,660396
709,75,-186,-68,79,59,844,714,-208,-124,160,405,-10,233,203,819,-190,-252,-638,774,2150,502,-138,-682,1623,3173,-640,-403,-459,-445,-1498,660397
773,96,-190,-112,53,42,894,563,-414,-86,201,426,-87,179,221,938,-236,-262,-788,840,2529,523,-223,-757,1806,3948,-713,-491,-589,-542,-1424,660398
415,70,-105,-126,-17,-25,448,111,-273,-52,64,131,-312,-8,71,577,-170,-149,-562,432,1648,277,-222,-479,1042,2831,-431,-364,-453,-392,-575,660399
-252,17,79,-56,-81,-78,-340,-365,-21,-232,-430,-207,-162,-149,-155,-151,41,105,101,-278,-341,-180,-38,186,-461,-109,189,57,18,59,611,660400
-285,1,92,-6,-58,-63,-363,-244,-26,-119,-346,-188,136,-165,-93,-253,61,97,198,-296,-656,-234,-13,258,-607,-649,222,102,118,121,532,660401
-203,14,81,16,-30,-19,-239,-49,-50,-59,-425,-133,17,-214,20,-171,54,76,172,-188,-540,-177,-10,221,-450,-497,192,98,127,114,354,660402
-192,1,45,14,-38,-34,-173,-83,2,-16,-358,-119,10,-132,6,-133,36,65,165,-139,-485,-143,-4,197,-383,-427,177,109,128,110,283,660403
-141,5,41,13,-14,-17,-103,-169,99,72,-68,-39,-19,46,30,-83,37,54,132,-75,-386,-113,16,169,-279,-306,148,94,115,97,212,660404
-56,14,35,-3,8,10,-67,-94,148,73,-85,2,50,-29,11,-63,-9,9,50,-66,-298,-125,-10,107,-203,-166,75,20,48,38,43,660405
258,34,-39,-8,45,41,283,231,-70,-109,44,81,-140,58,37,220,-138,-136,-221,226,534,52,-121,-201,420,1079,-203,-174,-169,-156,-594,660406
501,53,-122,-46,47,39,619,412,-184,-129,244,182,-186,-110,102,526,-226,-249,-550,506,1437,231,-231,-503,1055,2508,-497,-372,-418,-388,-1094,660407
534,62,-134,-72,21,22,645,408,-144,-61,142,119,-6,-1,85,594,-256,-268,-680,537,1725,275,-288,-605,1183,3023,-576,-460,-536,-473,-1094,660408
366,55,-66,-92,-4,-8,384,183,-83,197,66,-1,-13,-19,49,472,-169,-150,-506,371,1390,225,-213,-436,858,2557,-385,-341,-420,-336,-555,660409
-95,32,64,-56,-37,-51,-228,-215,61,100,-312,-145,120,-98,30,11,58,121,60,-97,103,25,0,90,-144,540,134,38,11,61,430,660410
-143,23,61,-23,-28,-58,-304,-139,140,19,-201,-45,48,-53,11,-68,68,125,158,-144,-120,32,17,141,-272,78,172,83,99,136,380,660411
-133,12,72,-27,-21,-40,-307,-36,39,20,-180,-91,3,89,5,-91,37,68,111,-164,-120,31,2,70,-252,3,114,52,62,98,284,660412
-128,2,99,-21,-1,14,-294,-17,96,69,-94,-53,19,50,-53,-121,64,87,166,-176,-198,37,37,94,-291,-175,149,99,108,128,328,660413
-117,-11,82,-16,-3,18,-221,-121,77,164,-16,14,8,-24,-99,-120,67,85,192,-166,-228,35,50,103,-290,-256,151,112,137,144,292,660414
-68,-16,37,-19,-14,-6,-119,-106,-82,17,-192,-151,205,-133,-90,-81,19,7,101,-120,-107,38,0,0,-177,-75,48,39,66,67,94,660415
325,29,-65,-29,40,17,364,393,-133,-137,150,68,-85,153,35,364,-66,-114,-248,320,988,278,-54,-336,694,1604,-285,-178,-178,-154,-718,660416
622,67,-149,-93,39,29,704,590,-144,-107,284,265,108,260,79,744,-157,-207,-590,658,1992,455,-132,-614,1414,3262,-566,-389,-444,-381,-1191,660417
464,68,-88,-101,13,13,489,261,-157,-8,-70,148,27,-88,19,600,-112,-131,-476,496,1652,322,-119,-462,1092,2918,-417,-323,-400,-307,-737,660418
237,66,-14,-61,-8,-7,198,-170,47,8,-104,-61,295,-153,51,350,-37,-14,-244,248,978,146,-61,-204,557,1982,-172,-173,-216,-134,-181,660419
-61,39,35,-33,-51,-54,-73,111,13,-44,104,-130,189,-157,18,83,33,75,15,-1,219,-36,5,48,0,876,66,-11,-31,29,221,660420
-147,27,38,-26,-65,-85,-115,-76,-15,29,123,-11,31,6,-30,8,46,78,107,-59,-43,-85,41,119,-162,477,130,36,32,92,350,660421
-102,28,53,-11,-29,-40,-85,-199,-130,-55,71,-125,19,-197,-58,6,36,59,100,-44,-81,-94,18,112,-157,441,126,32,45,90,261,660422
-60,14,42,-19,-23,-17,-66,9,-129,-145,200,-154,-118,-126,-30,-18,-28,13,36,-39,-76,-113,-62,63,-129,479,65,-14,2,49,106,660423
-27,21,16,-13,-9,-14,-14,50,-31,93,268,-18,-88,18,0,8,-50,-11,11,2,-3,-91,-93,22,-52,585,35,-21,-7,41,16,660424
-58,8,1,-23,-16,-39,-24,-185,37,160,75,-69,-65,80,-60,29,-21,18,73,11,-14,-58,-48,71,-54,540,70,30,49,77,91,660425
11,28,11,-14,-7,-30,71,-72,32,46,11,-58,2,24,-65,107,1,13,61,86,165,12,-1,43,81,762,37,28,40,68,-1,660426
75,38,5,-19,-4,-16,157,19,-49,-71,57,-109,224,-44,4,139,-41,-35,-45,127,350,31,-48,-63,205,1042,-60,-45,-58,-4,-223,660427
62,32,25,-19,-1,2,114,-20,-69,81,166,-61,112,-168,3,105,-76,-43,-82,85,314,20,-91,-95,148,999,-70,-85,-87,-31,-106,660428
-10,11,40,-18,-4,9,-19,-51,-15,-36,-7,-99,26,87,-41,45,-24,4,17,9,136,6,-45,-10,1,693,15,-18,-14,34,78,660429
-59,23,56,10,-5,1,-73,-42,16,51,-91,-34,97,149,-20,18,37,60,97,-18,13,25,10,67,-77,467,98,52,66,109,98,660430
-57,16,36,9,-29,-23,-24,-123,-65,23,40,-57,116,96,1,31,40,61,76,-2,63,53,7,30,-35,493,72,40,47,99,119,660431
-60,28,31,18,-24,-16,8,-60,-87,-52,-20,-52,130,56,17,35,43,60,83,-14,94,69,19,18,-13,499,82,55,52,100,119,660432
-51,19,25,-14,-22,-13,-20,-114,-36,-50,-207,28,74,21,-57,18,22,39,61,-33,69,53,8,5,-31,449,61,38,41,74,98,660433
24,12,12,-43,-7,2,-30,140,36,-77,-280,-71,-8,66,-36,77,8,18,13,17,206,91,-6,-58,92,648,-6,6,13,28,20,660434
48,7,4,-55,-11,-2,-52,201,95,-77,-207,-74,-1,72,-22,125,30,35,21,63,302,124,28,-49,169,784,2,17,14,31,36,660435
-156,-10,49,-39,-48,-37,-264,-115,60,-52,-171,-167,96,9,-71,-83,85,95,184,-135,-228,-4,86,128,-228,-7,169,126,123,142,448,660436
-257,-13,95,8,-37,-32,-369,-156,42,10,-109,-201,70,37,-70,-246,95,120,318,-263,-669,-122,105,247,-537,-687,270,202,216,234,588,660437
-211,-17,94,15,-10,5,-322,-81,48,-30,-64,-101,128,-79,-49,-244,63,82,284,-239,-678,-146,75,212,-513,-731,223,160,196,203,357,660438
-88,-13,59,7,5,8,-144,44,32,56,-38,18,116,-3,-4,-102,35,36,187,-76,-338,-61,59,126,-228,-254,130,109,133,141,149,660439
70,0,-7,-24,1,7,76,155,6,-99,149,110,153,97,3,105,-21,-29,-7,135,212,58,21,-51,186,598,-43,-5,-8,17,-54,660440
102,10,-13,-16,11,15,84,190,-53,-120,218,156,13,16,-2,136,-34,-39,-55,145,329,56,2,-82,239,816,-72,-52,-56,-20,-127,660441
73,16,-1,-18,8,11,4,71,51,-50,44,58,-53,-63,-29,112,-17,-14,3,108,259,31,2,-33,167,735,-15,-19,-31,21,-92,660442
73,9,-3,-27,4,21,-33,-41,-20,-98,44,34,117,-14,-53,145,4,8,10,131,277,52,-4,-1,201,775,13,-9,-5,52,-61,660443
48,-16,-7,-55,-2,5,-70,44,-59,-233,75,60,11,14,17,139,-12,11,-10,134,277,54,-28,4,191,782,26,-12,5,57,-39,660444
67,-8,26,-43,11,37,-32,19,-17,-6,154,143,-64,54,51,148,17,34,23,159,298,90,0,25,215,811,43,21,19,82,-52,660445
-59,2,47,3,-2,38,-83,-193,-12,69,85,-28,-38,-204,9,-23,15,44,102,-30,-71,-30,19,92,-82,288,100,52,52,112,185,660446
-136,6,33,32,-20,4,-92,-210,68,-58,-95,-127,2,-261,-84,-163,-5,6,117,-157,-370,-124,4,103,-311,-168,104,38,68,122,214,660447
-78,16,2,37,-18,-10,-19,-123,64,61,133,-90,-167,-64,-16,-90,-10,-11,64,-73,-204,-65,-14,50,-153,39,55,13,34,85,47,660448
-64,19,4,24,-5,-13,-42,-207,132,21,153,-73,-245,123,19,-31,26,38,103,-14,-122,-7,18,76,-62,120,104,61,75,128,27,660449
51,12,-27,-17,-1,-8,121,-169,-1,-157,5,-3,-184,252,80,132,12,2,6,146,286,106,-1,-16,262,724,10,6,15,63,-138,660450
70,1,-21,-42,-10,0,188,-35,-52,-105,-133,5,-2,138,85,160,-8,-26,-44,149,382,104,-15,-74,325,914,-43,-32,-45,11,-160,660451
127,28,-15,-25,7,21,226,-14,-35,-120,-95,83,23,87,67,172,-46,-55,-130,159,494,118,-46,-138,399,1130,-98,-90,-111,-45,-237,660452
84,32,-24,-16,-4,-4,118,65,-48,-115,-149,-67,-147,-77,41,92,-69,-73,-139,82,380,59,-77,-140,276,991,-105,-109,-128,-67,-211,660453
78,38,-13,-2,2,8,90,137,-12,-42,-151,-119,79,-87,13,102,-74,-74,-129,83,399,60,-74,-151,282,1028,-115,-110,-128,-72,-211,660454
78,23,-9,-10,-4,9,75,-32,-7,-145,279,-3,-32,87,-21,136,-39,-29,-89,113,411,86,-31,-93,288,1052,-67,-63,-89,-34,-110,660455
-126,-14,27,-14,-44,-37,-187,-61,-63,-114,19,-53,-21,-83,-103,-85,45,71,128,-121,-221,-54,19,136,-198,91,145,90,78,125,418,660456
-138,-20,26,-10,-43,-37,-188,-184,-82,60,-131,-170,-2,-175,-105,-154,12,30,125,-172,-359,-101,-11,105,-270,-138,110,69,70,99,239,660457
-120,-31,36,-4,-31,-10,-180,-194,170,-88,82,-200,117,-107,-101,-175,-9,-1,108,-176,-389,-126,-16,87,-277,-208,89,48,51,77,188,660458
6,-12,16,2,4,29,-54,-35,55,-51,176,-23,72,-186,-95,-41,-24,-18,40,-22,-79,-40,-11,9,-20,207,-6,10,13,41,-86,660459
167,19,-3,-3,37,59,148,325,-37,-33,205,114,88,-48,0,176,-34,-38,-106,180,445,99,-34,-127,379,989,-117,-71,-73,-35,-342,660460
154,23,-11,-3,19,47,145,279,-98,-51,114,97,19,96,60,199,-16,-15,-97,170,479,118,-17,-106,380,1061,-77,-51,-70,-11,-172,660461
94,22,-3,-15,-11,13,92,28,52,12,190,-29,-38,94,37,138,-14,-11,-58,103,341,74,-18,-69,257,882,-43,-37,-62,14,-25,660462
129,27,-6,-21,2,24,128,19,-32,19,73,31,113,83,9,152,-35,-30,-98,116,412,63,-32,-118,301,1005,-80,-76,-88,-17,-120,660463
112,29,-1,0,8,26,118,13,-40,-116,-70,72,207,123,-18,118,-38,-36,-89,75,375,47,-40,-112,250,951,-80,-79,-98,-20,-110,660464
92,32,-4,7,-2,10,113,-89,-102,-122,182,128,71,78,5,106,-34,-41,-81,66,349,37,-57,-105,233,938,-81,-82,-96,-14,-29,660465
-46,15,9,-14,-30,-22,-83,-129,-22,-93,194,-21,163,93,-58,0,17,23,40,-43,35,-5,-12,26,-11,460,50,4,-9,81,175,660466
-192,-13,51,-15,-41,-36,-315,-235,134,-89,-255,-111,70,132,-58,-138,92,116,227,-176,-415,-79,81,209,-325,-256,231,145,158,230,444,660467
-212,-10,77,16,-19,-11,-328,-80,36,-91,-107,-48,195,99,-111,-166,131,154,335,-187,-567,-87,136,286,-391,-541,303,220,251,299,536,660468
-127,1,41,37,-11,-3,-183,88,76,-53,28,-20,-25,99,17,-99,110,102,269,-101,-408,-34,108,217,-221,-313,217,161,195,236,288,660469
133,8,-65,-4,-8,6,191,214,-20,-177,195,112,-144,40,50,164,-32,-65,-68,181,395,105,-24,-102,388,912,-109,-64,-63,-12,-368,660470
160,22,-36,0,2,18,226,-21,-205,-238,278,153,-84,95,35,192,-28,-55,-116,193,493,110,-28,-115,434,1125,-111,-90,-95,-51,-266,660471
114,15,-42,-25,-23,-10,205,101,-39,7,285,34,-34,208,35,179,-39,-52,-128,173,472,87,-35,-105,381,1147,-109,-100,-105,-56,-218,660472
44,18,-30,-32,-30,-31,145,0,-20,36,95,36,103,99,96,136,-7,-21,-72,133,354,67,-12,-43,294,985,-49,-65,-59,-29,-105,660473
4,21,2,-15,-30,-34,90,-32,-77,67,303,38,-54,113,97,125,19,7,-39,119,277,62,3,6,246,900,2,-28,-23,2,-3,660474
-21,17,24,-10,-25,-18,-15,-86,-58,83,224,102,69,-8,39,81,19,12,-18,89,181,39,8,23,172,786,2,-20,-14,10,33,660475
-384,-32,115,10,-58,-30,-487,-281,113,27,-109,-153,218,-241,-52,-367,58,89,237,-389,-891,-253,32,273,-700,-856,247,128,152,153,745,660476
-908,-90,237,81,-90,-73,-1086,-812,317,59,-365,-345,117,-267,-199,-946,284,348,881,-936,-2570,-556,236,865,-1914,-3563,830,557,638,594,1767,660477
-841,-92,200,120,-48,-60,-985,-654,402,54,-530,-278,-123,-32,-158,-908,386,410,1035,-835,-2712,-466,377,966,-1876,-4006,908,690,814,726,1619,660478
-484,-62,77,129,-3,-33,-528,-123,244,184,-49,-76,-100,85,-65,-564,294,260,754,-457,-1844,-240,333,632,-1148,-2879,589,507,628,530,802,660479
146,-3,-79,74,70,40,227,82,-8,222,329,190,-59,221,96,78,49,-41,81,170,-32,132,124,-43,223,-193,-47,64,131,59,-441,660480
219,-1,-70,14,61,62,296,-68,-85,49,47,113,-59,76,83,191,-2,-58,-83,220,366,173,49,-155,433,457,-137,-24,-14,-44,-473,660481
130,-24,-57,-15,21,34,179,80,-21,124,-198,154,-62,78,-23,122,-11,-40,-83,124,283,114,28,-132,309,348,-119,-24,-41,-39,-284,660482
122,-4,-31,-3,36,37,107,283,124,96,-4,161,-92,41,23,100,-14,-50,-91,82,278,100,30,-141,270,347,-130,-46,-69,-45,-245,660483
132,-1,-36,-11,18,26,41,316,71,21,72,36,-5,59,31,95,-22,-64,-117,65,318,99,4,-164,265,434,-154,-84,-94,-73,-308,660484
51,-27,-37,-27,-12,-7,-84,87,-26,-54,-73,-47,59,-12,-9,30,-26,-50,-97,-4,177,51,-2,-126,147,245,-104,-65,-71,-45,-163,660485
-211,-58,29,-20,-39,-30,-395,-355,31,-46,-103,-54,142,5,18,-222,67,73,143,-255,-539,-91,60,137,-384,-821,159,110,118,141,483,660486
-499,-71,150,46,-31,-20,-675,-446,125,38,-437,-119,128,106,-66,-550,200,234,537,-545,-1510,-261,182,505,-1078,-2355,514,366,423,405,1154,660487
-595,-80,152,88,-27,-23,-666,-282,109,-113,-483,-117,2,-223,-104,-701,208,228,659,-658,-1945,-359,226,590,-1332,-3096,566,425,515,462,1093,660488
-366,-51,61,105,5,0,-337,-241,-39,-247,-257,16,19,-187,-84,-499,136,112,454,-402,-1449,-245,180,393,-859,-2398,361,295,394,323,522,660489
153,-19,-94,56,50,34,295,199,-167,-7,265,144,-52,-94,-55,38,-66,-139,-128,149,26,27,-7,-154,295,-95,-175,-88,-32,-81,-470,660490
227,3,-81,36,63,55,340,242,-121,-178,154,57,71,-25,-39,141,-86,-160,-251,227,320,43,-43,-214,466,479,-236,-156,-129,-169,-498,660491
193,-2,-81,12,35,41,300,172,-85,-98,214,117,-130,-71,-28,135,-93,-143,-221,214,290,15,-70,-164,426,549,-199,-145,-123,-163,-427,660492
178,12,-57,22,33,29,289,119,-24,13,420,57,-58,68,23,142,-78,-113,-203,209,295,9,-60,-123,415,620,-172,-136,-110,-156,-345,660493
105,10,-51,29,10,8,180,-7,-29,-165,230,-37,-150,60,27,79,-58,-86,-172,151,137,-44,-45,-73,273,431,-124,-106,-91,-143,-213,660494
67,16,-23,30,22,17,102,-1,-94,-71,162,52,51,38,27,15,-47,-75,-147,90,12,-75,-40,-55,151,259,-102,-94,-80,-122,-99,660495
-441,-48,124,38,-28,-6,-525,-407,46,108,-265,-100,190,-313,-96,-541,98,132,344,-495,-1426,-383,90,417,-1004,-1944,374,215,259,195,1012,660496
-993,-91,285,143,-39,-17,-1143,-719,331,96,-686,-313,120,-401,-188,-1163,326,390,1023,-1070,-3208,-683,319,1022,-2290,-4871,966,673,793,678,2120,660497
-902,-97,222,203,-7,0,-958,-570,275,193,-171,-374,236,-243,-152,-1121,296,314,989,-973,-3153,-608,326,932,-2139,-5049,872,656,815,660,1731,660498
-543,-87,85,160,24,17,-511,-100,112,62,-79,-158,-53,-15,-123,-742,183,146,667,-577,-2173,-349,251,561,-1334,-3758,515,443,577,436,785,660499
83,-56,-92,70,65,48,134,141,-58,71,204,188,-216,144,61,-78,-9,-81,53,67,-364,54,81,-50,19,-1124,-56,58,125,29,-437,660500
196,-36,-98,34,62,50,198,293,12,82,194,193,-98,249,61,64,-43,-100,-124,152,126,143,27,-184,303,-370,-176,-38,-22,-101,-498,660501
161,-33,-82,16,42,37,187,263,-67,62,154,189,68,346,179,85,-12,-58,-109,134,208,165,56,-161,304,-268,-147,-18,-22,-80,-372,660502
116,-25,-64,19,33,23,237,-52,-31,165,141,163,81,194,100,62,28,-35,-69,98,176,165,80,-127,238,-315,-99,15,-25,-52,-223,660503
107,-12,-55,50,34,29,326,-90,-78,-64,172,67,-34,-193,38,24,-4,-68,-106,41,158,118,46,-162,197,-314,-133,-35,-86,-91,-194,660504
74,2,-50,62,31,31,307,128,-72,-53,180,-14,12,-135,-62,-41,-48,-90,-141,-28,86,48,-6,-186,113,-398,-147,-78,-120,-119,-195,660505
-194,-47,6,50,-3,-7,-78,87,44,-172,-375,-72,12,-170,-85,-294,15,-1,83,-296,-615,-129,33,56,-422,-1416,81,58,39,31,341,660506
-511,-70,111,89,-17,-20,-538,-256,117,-81,-483,-196,-127,-172,-125,-617,169,178,501,-582,-1621,-296,196,457,-1117,-2977,442,332,366,318,1055,660507
-519,-81,92,84,-22,-28,-602,-291,87,78,-291,-210,-5,53,-100,-632,240,219,596,-548,-1808,-283,276,549,-1155,-3329,524,426,491,419,1092,660508
-262,-59,14,73,6,-13,-261,-14,39,36,-136,-115,132,30,44,-370,181,130,394,-230,-1209,-126,225,366,-618,-2459,339,310,384,293,468,660509
153,-27,-97,39,53,19,249,246,-106,-11,285,136,-68,155,81,68,9,-78,-45,204,-23,77,68,-70,302,-580,-105,3,37,-43,-323,660510
222,-25,-119,23,53,33,301,340,-168,123,370,169,-172,165,87,132,-93,-159,-222,253,269,51,-36,-182,474,20,-220,-125,-114,-188,-492,660511
141,-25,-87,14,30,28,194,162,-39,-101,111,118,-5,108,57,66,-63,-104,-159,198,107,-9,-12,-76,321,-111,-127,-82,-74,-151,-302,660512
148,-15,-90,13,21,22,218,104,-86,-94,229,73,-60,151,25,106,-58,-112,-180,226,174,-5,-5,-87,375,70,-146,-88,-94,-167,-341,660513
137,-20,-85,-11,6,14,208,-23,-98,5,193,166,-83,54,28,85,-72,-120,-225,199,161,-43,-47,-103,333,131,-154,-133,-131,-187,-368,660514
98,-12,-76,-9,3,6,158,-22,-125,29,-59,53,-162,-66,-37,41,-55,-86,-187,150,58,-58,-40,-57,216,-19,-106,-110,-108,-157,-203,660515
-193,-17,33,43,-7,3,-199,-93,112,272,-263,-61,-78,-60,-42,-268,62,79,147,-186,-779,-208,77,254,-473,-1336,204,115,136,61,514,660516
-505,-46,112,91,-27,-25,-528,-307,223,235,-178,-155,-22,-310,-33,-586,184,214,506,-488,-1682,-339,209,556,-1144,-2846,504,344,412,313,1004,660517
-519,-67,94,89,-36,-32,-515,-228,169,144,-188,-152,78,-194,19,-593,201,208,555,-478,-1741,-290,243,542,-1147,-3119,501,381,464,357,1007,660518
-321,-50,71,90,16,31,-302,-108,145,87,-237,-82,106,150,30,-420,175,151,437,-296,-1304,-138,223,396,-775,-2618,367,330,400,283,570,660519
78,-30,-55,58,55,57,180,-64,-52,117,59,108,-178,231,123,-41,40,-22,54,88,-188,103,88,0,61,-1023,-3,69,112,29,-294,660520
142,-24,-106,27,30,22,271,-141,-70,182,-69,157,-190,99,64,32,-39,-93,-145,119,138,108,-11,-175,234,-521,-161,-67,-64,-115,-463,660521
118,-16,-106,30,23,9,253,-102,-152,153,-34,115,-129,27,22,25,-49,-89,-182,87,187,103,-17,-197,223,-450,-186,-91,-97,-149,-388,660522
80,-10,-82,21,12,2,201,141,-74,122,183,99,-9,-23,34,5,-49,-85,-157,36,151,87,-20,-171,163,-504,-167,-74,-95,-125,-285,660523
80,-3,-61,7,13,12,182,41,-28,108,119,120,-45,-13,34,-1,-21,-54,-97,38,126,93,2,-138,152,-546,-123,-34,-69,-80,-225,660524
54,0,-60,16,17,6,179,47,-113,-10,-7,34,-16,-190,-19,-4,-26,-66,-106,29,122,70,-3,-145,129,-521,-126,-46,-80,-79,-184,660525
-46,-11,-5,24,14,7,14,-1,-26,-50,-226,-57,-15,-146,-77,-116,14,-2,-33,-88,-200,-8,12,-34,-119,-977,-17,13,3,-12,104,660526
-216,-27,51,38,2,3,-257,-141,103,-19,-113,-74,62,-204,-40,-295,89,92,175,-252,-741,-106,75,186,-492,-1801,197,149,168,138,479,660527
-274,-41,74,45,8,9,-371,-196,216,100,-205,-86,104,29,-12,-366,109,107,287,-300,-996,-161,120,284,-632,-2210,287,214,266,217,608,660528
-167,-38,55,56,29,26,-226,16,114,89,-116,-30,156,111,22,-272,87,53,214,-167,-780,-114,122,200,-415,-1866,182,173,215,150,279,660529
107,-12,-26,48,57,52,109,206,45,262,141,130,51,84,108,23,18,-44,-39,133,-46,38,81,-29,171,-701,-55,16,34,-29,-235,660530
135,-7,-83,15,29,22,157,287,100,303,313,166,-129,40,57,106,-10,-71,-148,210,181,47,26,-79,325,-245,-120,-60,-46,-102,-307,660531
66,2,-40,29,31,20,59,123,59,181,161,119,-131,-89,62,45,17,-20,-75,145,-20,-14,29,24,172,-444,-39,-7,4,-64,-97,660532
69,-11,-29,15,24,33,53,182,-88,145,-30,123,-100,-2,3,54,15,-19,-69,144,-47,-34,3,32,158,-415,-27,-15,1,-62,-97,660533
42,-32,-40,-2,14,18,23,162,-66,89,-143,28,-77,126,-39,5,-10,-39,-89,104,-107,-76,-1,26,82,-469,-30,-38,-18,-85,-53,660534
33,-12,-23,8,15,22,35,207,114,262,-218,-16,-195,-2,72,5,13,-12,-37,91,-125,-58,31,53,69,-521,-1,-4,19,-60,-20,660535
33,0,-23,-4,17,24,83,112,103,76,-266,-13,-122,153,149,55,43,15,-25,145,-18,10,55,54,134,-426,18,17,25,-44,-44,660536
-147,-17,23,20,-4,7,-137,-51,48,-116,-402,-93,92,19,-15,-144,77,75,128,-57,-481,-76,81,190,-263,-1196,156,107,125,68,316,660537
-173,-25,8,29,-3,-5,-152,-1,-101,144,-265,-61,72,37,-40,-175,55,51,125,-97,-516,-58,69,149,-299,-1326,135,107,118,73,274,660538
-141,-22,-9,48,3,-15,-78,-47,-60,146,-166,-7,54,80,28,-143,66,37,92,-72,-416,-17,73,110,-235,-1266,107,94,103,53,226,660539
10,1,-50,45,14,-10,103,12,0,153,-54,-24,-162,86,23,-29,6,-28,-25,43,-64,53,24,-29,17,-800,-34,7,-7,-39,-101,660540
59,-5,-66,17,10,-6,156,89,88,68,113,-65,-270,-55,-13,-8,-43,-79,-125,45,98,56,-41,-135,101,-560,-134,-78,-97,-112,-242,660541
51,-2,-60,9,22,10,133,95,42,-168,39,39,-146,-74,-14,-17,-32,-60,-132,37,127,63,-40,-131,101,-534,-117,-78,-93,-107,-185,660542
27,-13,-60,3,8,-5,69,149,47,-145,-209,-26,-182,-103,17,-20,-6,-41,-71,19,103,70,-16,-85,74,-605,-72,-30,-60,-69,-73,660543
40,-23,-52,-18,9,4,22,35,-6,35,-211,-33,-120,40,29,20,15,-3,-41,50,129,93,11,-55,103,-586,-40,-1,-25,-28,-10,660544
47,-1,-30,-8,23,17,-16,-19,10,0,-118,7,-69,182,73,42,47,42,-7,71,134,106,40,-13,114,-591,-3,30,13,14,-45,660545
-14,11,-6,16,20,17,-61,10,53,127,-18,24,-253,164,20,-16,64,55,51,18,-26,58,72,41,7,-816,49,64,53,40,21,660546
-101,-4,6,7,-9,-4,-164,-94,87,180,85,33,-112,107,-20,-116,89,79,110,-66,-279,-7,82,115,-174,-1163,115,108,97,79,206,660547
-145,-27,3,9,-19,-11,-210,-323,85,-122,-115,-5,39,154,50,-180,72,72,128,-116,-448,-60,75,137,-272,-1399,136,116,123,84,238,660548
-112,-24,-18,16,-9,-10,-92,-192,59,-2,-73,43,-19,123,0,-158,37,29,94,-75,-385,-68,57,90,-193,-1265,72,87,100,52,87,660549
-26,-4,-30,18,3,13,36,22,-2,82,33,51,-136,121,46,-59,36,11,17,26,-190,-22,41,51,-23,-939,37,53,68,25,-75,660550
37,2,-39,7,11,24,85,10,102,144,-21,18,-66,2,82,9,18,-6,-56,101,-28,2,22,-1,112,-619,-28,12,3,-31,-142,660551
35,-3,-22,-4,20,35,15,2,-43,61,-77,25,11,-48,21,-36,-16,-39,-104,59,-94,-65,-14,-28,71,-628,-63,-41,-29,-84,-68,660552
51,-10,-23,1,29,44,-34,-39,-34,45,6,7,2,-106,8,-59,-50,-71,-144,35,-114,-93,-50,-57,33,-620,-97,-80,-77,-115,-89,660553
75,-11,-42,4,24,34,21,-82,-6,-58,-107,-8,-18,-168,14,-17,-42,-69,-126,79,-15,-54,-29,-60,101,-467,-101,-79,-76,-119,-98,660554
121,3,-55,7,21,7,178,-144,-10,-16,10,38,-280,-56,-24,72,-44,-68,-161,153,178,-2,-42,-83,236,-169,-111,-87,-92,-140,-251,660555
266,39,-84,7,29,18,375,71,-60,4,342,133,-212,159,34,248,-70,-93,-278,332,636,128,-74,-201,572,497,-214,-154,-178,-207,-582,660556
432,45,-134,-48,36,15,523,215,-110,-19,423,136,-50,263,120,434,-133,-173,-477,478,1203,242,-129,-407,933,1374,-419,-296,-343,-345,-820,660557
398,49,-119,-43,20,1,473,273,-239,-90,323,160,83,81,99,424,-129,-150,-464,436,1245,236,-133,-400,897,1459,-403,-288,-369,-331,-729,660558
246,22,-76,-49,-7,0,281,6,-189,-101,119,105,135,-84,7,284,-94,-84,-340,261,921,147,-119,-277,606,1000,-279,-211,-294,-246,-423,660559
4,6,0,-35,-26,-11,-28,-16,-31,-115,-129,-54,74,-277,-67,38,10,50,-64,1,205,29,-19,3,64,-83,-7,-18,-72,-29,96,660560
-13,17,6,-14,-11,-1,-35,-207,-27,-166,99,-48,147,-141,-9,35,39,66,19,11,114,43,15,52,25,-262,57,44,1,40,125,660561
3,29,6,-4,-3,-6,-1,-30,4,3,182,59,84,-37,-42,19,3,23,-9,-3,108,23,-18,1,29,-293,5,9,-27,-1,20,660562
-21,10,-10,-11,-18,-25,-34,-247,-101,-79,80,34,29,-47,-32,-27,-30,-5,-55,-54,28,-37,-59,-38,-36,-401,-49,-34,-57,-35,-33,660563
-44,0,-7,-2,-23,-24,-35,-39,-62,57,147,-13,67,158,-27,-24,-13,11,-31,-40,13,-27,-36,-10,-29,-438,-21,-7,-36,-6,1,660564
-23,12,19,6,-13,-1,6,-33,-24,-9,144,-35,25,167,25,-11,-7,22,4,-29,21,-8,-18,5,-6,-430,-8,12,-22,3,-17,660565
54,28,-6,4,1,10,112,-86,-59,-16,261,8,26,90,32,38,-52,-36,-82,37,196,-7,-62,-87,128,-147,-95,-58,-95,-76,-175,660566
146,33,-50,-22,2,25,175,30,-18,108,254,28,150,-220,93,139,-67,-69,-187,140,482,52,-88,-176,351,315,-179,-123,-149,-130,-368,660567
233,30,-51,-43,18,30,214,65,-122,91,135,58,27,-57,113,251,-61,-63,-229,250,746,141,-73,-208,545,753,-207,-134,-174,-150,-427,660568
159,11,-9,-42,9,15,66,46,8,86,130,107,56,-143,44,157,-61,-41,-165,135,518,65,-74,-144,343,459,-162,-104,-158,-128,-213,660569
-47,-14,31,-26,-17,2,-173,-78,98,-69,-29,-41,183,-104,-10,-62,-12,23,4,-66,-63,-64,-32,34,-98,-406,22,-5,-26,-7,150,660570
-33,-6,21,-20,-28,-7,-120,-139,9,95,63,53,-108,-136,-35,-45,-1,21,20,-9,-55,-43,-11,31,-56,-418,19,14,5,4,100,660571
-4,7,11,-12,-24,-19,-58,-106,-53,115,13,19,1,46,26,18,26,34,-6,59,63,12,17,6,36,-260,6,11,3,-16,92,660572
-38,3,-4,-24,-33,-36,-53,35,63,84,-97,89,-19,-37,45,19,52,60,39,78,43,28,43,52,29,-319,45,53,40,15,139,660573
6,24,8,-1,-8,-15,4,50,53,106,51,113,54,21,23,51,42,50,26,114,123,62,44,39,84,-221,22,37,25,9,63,660574
20,4,-22,-19,-14,-8,-3,52,3,-5,59,4,32,-18,40,38,-26,-14,-73,86,173,25,-35,-54,105,-102,-73,-54,-63,-70,-87,660575
205,22,-58,-28,10,18,209,128,10,-114,63,14,-159,94,77,214,-95,-110,-258,257,664,118,-103,-232,491,650,-264,-182,-194,-192,-519,660576
499,50,-126,-71,23,44,536,364,-157,-52,422,150,-174,180,101,538,-177,-216,-536,551,1558,303,-188,-503,1138,2063,-515,-362,-410,-380,-1005,660577
465,66,-109,-78,12,36,480,229,-182,-93,229,196,-149,68,59,514,-178,-186,-530,474,1535,261,-210,-477,1070,2146,-469,-353,-431,-371,-901,660578
274,48,-54,-82,-14,9,249,-93,-81,-136,180,42,-207,-93,-18,324,-145,-124,-396,246,1068,122,-194,-339,680,1531,-324,-268,-348,-279,-437,660579
-54,21,26,-59,-49,-23,-116,-247,-41,-190,-255,-101,-35,-156,-50,14,-13,22,-48,-80,181,-49,-59,-16,6,196,-24,-41,-92,-46,198,660580
-76,17,33,-33,-37,-24,-130,-212,-33,-178,-348,-78,99,-141,-30,-28,27,54,74,-108,-6,-59,-2,68,-101,-120,52,35,-4,39,247,660581
-63,14,34,-15,-30,-29,-132,-162,95,-114,-57,-43,-15,11,-83,-31,37,59,113,-105,-87,-64,12,99,-120,-247,90,71,36,63,194,660582
-31,29,41,-2,-21,-8,-94,-155,45,-101,-50,-70,-140,-7,-46,10,45,81,72,-52,-11,-32,-2,92,-41,-151,90,57,50,74,176,660583
-40,32,42,-10,-15,-6,-126,-82,107,64,30,-23,4,54,-25,24,66,97,64,-40,-13,-21,10,88,-29,-170,85,63,73,85,135,660584
-19,10,19,-23,-13,-14,-133,58,5,-50,-64,-15,-72,9,30,18,56,70,58,-35,-30,-18,14,70,-35,-197,52,51,54,65,111,660585
150,22,-35,-34,2,3,84,-12,-63,51,241,46,-6,163,71,173,-14,-14,-94,128,409,75,-36,-89,309,460,-94,-41,-62,-48,-239,660586
238,24,-69,-64,-1,-2,230,-75,-128,53,408,8,36,239,84,265,-89,-85,-257,210,743,115,-107,-239,526,1014,-229,-149,-192,-167,-516,660587
230,46,-57,-49,4,-2,257,158,-16,102,285,74,-62,-9,51,276,-101,-94,-284,217,823,122,-120,-251,541,1170,-254,-182,-237,-207,-489,660588
78,24,-17,-53,-18,-8,57,86,-74,-31,249,-49,-53,-160,-50,131,-70,-52,-190,65,485,29,-101,-153,261,686,-156,-131,-176,-147,-98,660589
-81,14,46,-34,-26,-17,-183,-170,19,-142,28,-72,112,-102,-87,-51,-2,39,5,-90,-23,-43,-29,30,-123,-127,40,9,-11,2,239,660590
-91,17,61,-11,-8,-12,-166,-85,19,24,-147,-105,-13,-72,-1,-46,59,76,85,-45,-84,-6,37,92,-127,-290,93,64,70,67,212,660591
-31,7,11,-41,-24,-25,-65,-118,-25,93,-66,-45,28,-95,6,38,33,35,5,53,129,57,16,5,57,-2,10,8,23,15,40,660592
-47,4,21,-44,-23,-21,-63,-261,80,-28,-32,33,24,5,-9,41,64,66,58,74,98,74,32,53,40,-76,55,44,67,54,114,660593
-50,9,42,-25,-16,-13,-78,-14,11,54,37,36,179,-2,52,29,92,104,127,68,60,88,62,101,24,-178,98,94,113,96,152,660594
-8,7,26,-10,-7,-10,-44,189,-79,3,-139,18,275,12,33,35,25,33,30,70,140,71,8,12,83,-44,5,27,38,21,14,660595
110,15,-19,-14,8,3,92,44,-113,-26,142,-35,41,-52,-39,103,-84,-91,-169,130,429,65,-101,-185,305,472,-182,-122,-121,-120,-300,660596
305,29,-75,-37,16,22,330,246,-169,-45,56,77,-35,177,46,322,-138,-157,-363,306,970,174,-153,-360,723,1375,-350,-247,-271,-256,-641,660597
314,40,-70,-44,12,20,352,285,-130,-112,-160,138,-23,107,46,352,-141,-152,-405,306,1066,158,-162,-372,749,1594,-363,-273,-309,-278,-614,660598
223,41,-52,-50,-3,-4,237,234,-71,-150,2,5,-58,-5,82,272,-124,-116,-343,186,891,97,-156,-301,568,1395,-295,-252,-291,-235,-391,660599
-50,13,37,-37,-32,-30,-116,-131,102,-173,37,-1,123,90,4,3,-15,19,-51,-110,125,-69,-61,-11,-17,276,-9,-50,-72,-38,154,660600
-55,14,65,-22,-10,-6,-170,125,42,-100,122,4,64,99,18,-4,37,64,45,-96,7,-67,4,76,-61,68,67,30,26,50,261,660601
-75,3,55,-28,-16,-11,-208,42,-15,-54,-150,-159,-100,-73,40,-21,56,79,95,-112,-112,-62,24,135,-123,-122,123,78,72,103,247,660602
-50,18,39,-22,-4,-6,-171,-79,117,-83,-10,-92,-209,143,51,36,81,102,130,-40,-21,-10,67,131,-25,2,125,91,94,112,143,660603
-55,10,28,-23,-15,-21,-190,-230,-3,-60,-16,-27,-266,177,-32,44,82,95,120,-37,-23,-3,78,139,-19,10,120,98,105,109,158,660604
-62,-11,17,-42,-35,-30,-194,-60,36,67,-7,34,-20,23,-25,-3,38,54,63,-72,-75,-40,23,99,-59,-54,72,54,62,62,109,660605
121,18,-4,-28,3,7,65,244,-72,68,198,100,183,-72,62,151,-7,-1,-60,98,332,71,-2,-41,257,544,-61,-30,-33,-31,-181,660606
305,42,-74,-26,18,14,375,388,-112,-120,263,138,-91,-30,18,334,-118,-124,-305,275,900,163,-106,-286,653,1449,-295,-208,-243,-218,-545,660607
303,42,-94,-36,0,-15,422,354,-115,-128,31,72,-98,-42,-62,357,-128,-153,-381,282,1039,159,-144,-352,701,1717,-352,-269,-322,-268,-645,660608
197,41,-46,-40,-13,-9,253,137,-30,-33,-17,-24,-211,-141,-8,275,-83,-79,-298,186,837,117,-114,-251,497,1410,-238,-215,-252,-195,-288,660609
-70,11,40,-28,-41,-30,-106,-143,53,15,-154,-111,-237,-84,-33,-14,-8,39,-3,-75,86,-33,-42,27,-76,260,17,-21,-42,-8,290,660610
-121,10,50,-8,-31,-41,-157,-139,-61,-47,-100,-96,153,57,-26,-66,28,58,103,-101,-128,-38,19,97,-186,-130,87,47,51,61,289,660611
-33,13,21,-6,-27,-33,-45,-157,47,-109,-66,-112,188,139,-2,17,12,23,20,8,87,34,20,-8,-22,123,9,-10,4,13,90,660612
-83,17,57,16,-19,-21,-83,12,143,-113,-167,-92,254,98,40,-50,18,43,68,-46,-66,-1,9,49,-141,-151,58,27,47,58,136,660613
-48,7,22,1,-14,-22,-38,25,49,-50,-23,17,171,28,53,-44,-32,-18,13,-33,-1,-1,-62,-26,-69,-48,-18,-11,-5,2,-20,660614
-12,5,1,-14,-5,-22,-12,-145,-2,-16,89,-32,101,36,37,-17,-62,-45,-63,0,98,10,-80,-86,25,122,-68,-51,-52,-39,-135,660615
92,8,-6,-26,2,-5,71,45,-38,-48,286,53,200,-100,-35,102,-66,-59,-121,90,354,62,-73,-143,223,519,-127,-88,-94,-77,-230,660616
224,20,-36,-47,14,13,213,220,-129,15,247,158,129,-10,32,247,-102,-90,-246,204,727,122,-110,-241,510,1141,-243,-170,-188,-162,-492,660617
229,27,-26,-61,9,15,208,45,61,-182,248,67,-81,10,36,263,-104,-87,-265,191,762,97,-126,-242,521,1281,-245,-185,-212,-180,-411,660618
147,25,8,-59,-5,12,99,131,97,64,-77,42,-12,-105,19,174,-79,-47,-170,86,518,45,-101,-144,316,986,-146,-125,-164,-129,-121,660619
-37,-2,49,-38,-19,-12,-109,78,148,72,-125,-70,188,-81,-1,-19,-32,12,-11,-100,8,-75,-59,34,-66,250,23,-23,-29,-5,221,660620
-45,10,57,-6,-5,-1,-86,37,33,221,-148,-43,203,58,-8,-22,-18,16,10,-93,-35,-69,-38,41,-56,178,27,-5,-11,15,101,660621
-48,4,60,-17,-13,-1,-91,-80,26,92,46,-71,266,-28,63,-30,-7,15,17,-104,-101,-69,-28,47,-94,99,32,1,2,27,104,660622
-35,-6,48,-25,-15,-1,-46,-95,-43,161,-18,-36,144,-96,-10,-15,-14,12,7,-73,-66,-54,-31,31,-59,156,27,-4,-2,21,54,660623
-33,6,36,-13,-9,-12,21,10,-18,-1,-258,-41,92,-97,-30,-20,-20,-4,13,-86,-67,-59,-28,37,-67,164,22,-3,-2,-2,74,660624
-46,5,15,-9,-23,-26,60,79,25,-92,-145,-25,130,-97,-67,-3,5,18,37,-74,-71,-33,4,57,-65,143,54,25,23,31,156,660625
27,16,-4,-6,-10,-8,90,131,-28,-98,-226,-70,91,-53,0,63,1,6,-8,6,112,12,-6,6,72,386,-6,0,-8,8,8,660626
98,15,-17,-4,0,-11,113,55,-56,-53,-186,24,-125,47,-8,119,-43,-42,-91,63,296,26,-35,-80,202,669,-98,-54,-77,-67,-186,660627
153,37,-21,-12,10,-3,150,287,0,4,211,107,-46,74,-13,186,-45,-41,-130,124,452,78,-48,-114,304,898,-117,-84,-102,-85,-262,660628
94,35,4,-13,15,3,49,116,39,34,-125,34,-5,129,-24,158,0,9,-71,92,360,82,-12,-53,218,744,-33,-38,-51,-24,-66,660629
-29,39,37,-4,1,-6,-68,-62,2,75,-223,-58,-34,132,2,28,28,49,39,-20,61,17,25,27,-23,264,43,27,21,34,161,660630
-75,19,31,-4,-18,-21,-109,-159,25,-109,-335,-126,163,-13,-73,-48,8,28,52,-79,-75,-20,-8,26,-121,7,39,19,27,35,182,660631
-23,11,29,6,-6,-16,-48,-35,100,-7,-76,-60,73,-188,-12,-9,-9,2,42,-22,34,18,-22,3,-27,125,12,7,11,24,11,660632
18,19,32,18,3,-17,14,99,-89,34,114,12,-28,-63,-2,36,-4,-5,27,15,130,44,7,-38,36,249,-8,-1,-2,7,-61,660633
14,16,13,-7,-3,-17,-8,77,-113,138,-137,40,18,27,-55,52,8,-1,-22,32,162,48,14,-68,69,309,-24,-14,-9,-7,-64,660634
42,14,9,-24,-11,-19,-45,192,-27,-82,73,-14,-7,230,43,92,13,14,-36,73,245,80,20,-60,144,429,-47,-24,-12,6,-70,660635
-5,8,26,-31,-13,-19,-139,-29,-62,-139,-104,41,-67,128,26,68,49,61,40,36,137,62,55,21,68,276,32,36,39,63,129,660636
48,-6,-15,-54,-17,-25,-55,36,-18,22,-52,20,-86,104,-20,132,-16,-7,-64,94,346,79,-16,-85,244,643,-62,-37,-54,-29,-115,660637
60,-10,5,-60,-6,2,5,83,-36,27,5,45,-147,24,-41,142,-13,-9,-72,86,369,81,-26,-70,249,727,-64,-48,-51,-36,-121,660638
39,14,22,-26,6,11,52,31,-35,-44,-49,-26,1,57,-8,70,-9,-4,-44,14,186,20,-19,-37,99,502,-30,-33,-35,-25,-10,660639
14,19,30,1,0,3,22,168,-15,67,30,-70,44,24,-1,-14,-42,-32,-47,-66,20,-51,-47,-38,-29,287,-35,-45,-59,-38,119,660640
3,5,24,-11,-8,-3,7,421,64,15,-60,-141,9,-93,-12,-30,-75,-71,-105,-87,15,-77,-90,-91,-30,312,-88,-103,-102,-81,-66,660641
11,5,28,-9,13,38,-16,74,30,-126,-136,-154,-25,3,2,-37,-92,-75,-119,-91,24,-84,-110,-103,-36,346,-93,-110,-107,-84,-72,660642
11,1,36,-6,20,43,-42,101,-21,-18,-289,-211,42,53,-30,-61,-79,-57,-45,-113,-58,-74,-76,-46,-88,224,-37,-56,-64,-45,48,660643
12,19,29,23,29,23,7,137,59,47,-99,-38,15,-172,-18,-37,-43,-34,-2,-91,-64,-55,-40,-6,-82,201,12,-26,-21,-9,89,660644
1,29,24,31,8,-15,31,-49,141,88,37,28,60,-156,37,0,2,11,39,-43,-39,-13,-3,47,-47,218,57,26,27,28,107,660645
41,29,6,7,4,-16,74,41,107,41,34,43,82,54,5,91,24,16,14,49,148,65,11,15,109,484,18,14,22,21,-68,660646
78,29,16,-10,22,22,86,389,-18,-34,86,53,51,115,-38,127,-14,-25,-44,75,281,86,-15,-44,194,673,-35,-34,-36,-30,-188,660647
47,2,-1,-31,-4,16,82,-18,-41,-30,115,-61,-35,-41,-8,107,-63,-58,-115,58,292,41,-80,-110,185,721,-87,-93,-92,-77,-189,660648
-14,18,-3,-11,-15,-14,82,-63,29,-98,-52,-29,-35,152,40,70,-47,-33,-65,15,198,27,-68,-67,98,582,-40,-68,-62,-38,-82,660649
-102,11,20,6,-25,-35,-7,23,40,-173,-215,-94,86,-72,17,4,4,17,31,-54,-13,-15,-15,27,-71,235,53,1,9,38,73,660650
-58,11,21,-3,-14,-22,-13,108,44,-285,-108,-46,9,23,-32,42,30,46,53,-23,32,32,12,42,-16,250,63,29,34,60,42,660651
-29,13,37,4,10,4,-66,116,38,-246,-2,67,-160,93,-51,13,37,59,90,-50,-49,11,18,72,-78,97,88,60,65,86,137,660652
31,8,6,-5,11,12,-34,50,-71,-132,-113,-61,-18,-5,-38,10,-9,8,15,-44,9,-3,-17,-9,-30,193,9,-4,5,14,35,660653
31,22,20,9,26,32,-17,70,63,-152,-51,-131,-215,-178,21,10,0,8,18,-49,0,-10,-3,-7,-37,175,15,1,7,17,59,660654
14,20,34,15,24,28,-9,77,100,-42,72,-47,-158,-125,-21,2,-1,8,49,-53,-36,-20,8,5,-56,109,35,27,28,34,96,660655
125,30,-23,-8,17,13,155,146,39,7,186,90,-10,87,-19,148,-35,-44,-86,93,354,77,-33,-125,250,719,-87,-64,-72,-55,-264,660656
226,47,-29,-9,26,17,285,133,58,35,283,125,-53,85,-19,256,-52,-59,-177,193,656,137,-48,-196,458,1197,-159,-108,-134,-114,-425,660657
247,55,-26,-5,37,15,304,-134,91,38,296,60,38,93,-54,279,-64,-64,-212,198,738,149,-69,-219,490,1380,-181,-142,-169,-140,-375,660658
169,44,-22,-19,9,2,214,-13,-7,120,-38,-52,122,71,10,220,-65,-56,-202,133,628,107,-77,-175,369,1254,-154,-142,-161,-124,-359,660659
-27,34,41,-5,-3,-8,-19,46,-21,167,105,-96,64,40,-49,24,-8,28,-26,-55,113,-6,-22,9,-22,498,15,-23,-36,-1,46,660660
-73,31,51,15,-6,-5,-53,-52,-72,69,213,-107,-107,31,-59,-7,29,54,65,-72,-47,-3,9,80,-109,248,84,31,55,56,130,660661
-32,33,33,22,2,-2,10,-14,-8,-40,58,12,-35,-50,-34,31,34,57,61,-4,42,38,27,66,-24,379,62,27,51,53,50,660662
-69,20,17,14,-22,-27,-15,-39,31,-172,-90,39,253,-18,-3,-14,32,48,95,-47,-67,10,44,78,-97,221,75,45,66,60,73,660663
-64,22,27,14,-15,-24,-5,100,-22,-83,-34,-15,165,-72,50,-26,23,27,84,-48,-79,3,32,66,-99,191,57,30,39,39,97,660664
-46,9,28,-3,-4,-11,-41,-61,-21,85,-106,-80,-73,122,-11,8,28,43,70,-34,-40,11,29,57,-63,231,66,24,48,52,44,660665
56,-11,-2,-31,2,0,46,89,23,142,-25,46,-144,45,-36,123,-3,-1,-24,97,264,75,-1,-51,174,669,-34,-35,-10,-13,-204,660666
332,25,-51,-50,34,41,360,224,-68,-44,167,72,-1,0,47,393,-113,-136,-323,362,1056,224,-109,-338,749,1906,-311,-246,-243,-219,-676,660667
335,34,-40,-53,22,47,370,139,-163,-282,228,45,71,42,33,375,-161,-165,-400,313,1125,183,-168,-393,741,2100,-363,-311,-331,-290,-617,660668
244,39,-24,-53,0,19,280,88,-145,-116,172,49,65,158,2,269,-158,-140,-349,187,905,102,-186,-328,542,1833,-313,-267,-297,-252,-448,660669
25,29,53,-25,-3,12,3,68,13,94,31,-103,16,-78,-74,29,-52,-17,-85,-75,214,-36,-103,-55,-2,788,-39,-93,-106,-52,78,660670
-22,27,76,-1,-2,13,-35,-4,137,-90,48,-96,140,-41,-45,-27,-20,26,3,-126,-18,-57,-72,3,-143,419,34,-34,-28,7,100,660671
-93,25,73,19,2,6,-76,75,-50,8,-63,-97,-10,-62,-101,-73,-4,46,56,-168,-190,-91,-27,54,-255,123,76,16,18,46,200,660672
-54,30,37,29,6,2,-72,74,-23,-103,-3,-155,-158,-78,-90,-51,-25,11,6,-139,-116,-94,-17,4,-183,214,17,-17,-22,11,100,660673
-53,28,39,29,7,8,-62,-165,44,30,-66,-144,-116,-67,-106,-46,-22,18,14,-149,-139,-98,-32,11,-193,170,26,-14,-8,22,148,660674
-23,28,28,19,-1,4,38,-189,40,-146,-60,-3,-19,-89,-89,25,26,61,86,-69,-43,-30,16,45,-105,272,74,37,48,66,163,660675
121,37,-22,5,6,9,229,108,-37,-104,-39,56,31,-10,36,202,-2,16,-35,105,390,92,-7,-67,224,926,-42,-33,-34,-13,-175,660676
220,56,-32,-2,20,17,288,191,-63,-205,145,73,-64,-17,73,277,-57,-50,-183,191,699,142,-71,-188,419,1422,-159,-120,-153,-113,-364,660677
220,50,-19,-33,11,3,202,144,-63,-158,107,110,9,84,48,285,-49,-45,-195,199,749,151,-74,-181,439,1548,-142,-130,-154,-123,-291,660678
113,33,14,-44,-8,-10,48,-12,-123,-122,139,56,19,58,-51,190,-22,-6,-125,112,513,87,-56,-105,243,1222,-63,-84,-95,-71,-63,660679
-61,28,47,-13,-20,-13,-128,2,-112,39,-244,-52,-24,-43,-102,-8,20,33,30,-76,-4,-26,-20,39,-140,472,57,11,15,18,194,660680
-93,9,34,-5,-21,-7,-135,-149,26,-12,-321,-14,-4,-9,-19,-71,0,18,56,-113,-148,-55,-24,46,-233,252,65,13,33,27,184,660681
-35,19,48,16,4,2,-53,36,65,97,-20,-5,121,56,-37,-32,1,8,44,-58,-58,-20,-1,22,-141,369,33,-4,29,12,169,660682
-59,11,44,20,-10,-4,-50,-5,-19,40,60,-1,155,-52,-52,-55,6,6,37,-80,-110,-41,-9,46,-183,272,41,-8,34,21,179,660683
-41,14,32,9,-6,-7,-37,94,22,46,-153,-25,244,-152,-4,-63,-24,-13,0,-71,-86,-45,-38,6,-164,288,21,-31,4,2,52,660684
-39,10,40,14,4,12,-46,-29,76,206,-368,-33,81,-53,59,-73,-35,-21,9,-80,-106,-52,-33,-5,-167,265,9,-36,0,-11,83,660685
-98,3,45,29,-1,-4,-89,-237,55,114,-156,-131,-10,37,21,-115,-10,4,59,-128,-235,-73,-6,50,-257,58,60,7,51,27,170,660686
-163,-2,57,24,-10,-23,-145,-252,9,201,-93,-174,3,-26,-6,-151,43,51,145,-163,-375,-83,37,128,-352,-178,136,77,120,95,277,660687
-139,3,73,32,3,4,-146,-143,31,158,42,-91,66,-54,10,-117,78,89,192,-130,-353,-52,87,168,-308,-205,174,130,167,125,307,660688
-131,-12,67,35,3,9,-160,-126,-28,42,104,-114,151,-129,-33,-143,52,63,169,-165,-434,-84,63,146,-357,-327,153,112,145,110,259,660689
-33,-11,35,31,18,22,-56,-172,-67,46,-8,21,196,4,-19,-51,30,31,74,-92,-229,-40,46,63,-188,-44,77,56,82,59,31,660690
43,-5,24,19,29,40,16,-121,36,193,-23,89,-44,-78,38,-4,5,7,27,-61,-88,-44,20,4,-99,167,24,28,31,16,-69,660691
-11,-8,23,23,16,21,-10,-60,-19,45,-93,-13,-61,35,-67,-73,2,-1,42,-143,-190,-108,-4,15,-191,14,40,28,27,17,-10,660692
-21,-13,-4,1,-6,-1,18,-74,3,66,7,-106,-2,-7,-38,-38,-12,-10,23,-126,-138,-90,-5,0,-140,113,24,16,16,7,-2,660693
6,-12,0,0,-11,3,62,13,8,-22,-48,-95,-23,13,16,9,-7,-6,14,-80,-46,-50,4,-4,-67,227,21,16,12,24,-63,660694
46,11,17,23,19,31,123,128,-6,75,-58,33,-26,-64,-6,50,5,-10,-16,-35,56,-19,1,-21,-8,367,12,-6,-15,5,-91,660695
-84,-2,33,32,-5,-3,-14,82,-6,208,-108,-80,-21,-68,-56,-97,17,24,46,-172,-286,-99,20,47,-290,-117,88,22,40,38,193,660696
-171,-8,54,48,-11,-10,-118,-24,6,77,-246,-138,-150,-80,-82,-194,42,46,135,-236,-558,-141,49,131,-484,-546,160,82,112,102,339,660697
-158,-11,29,38,-19,-10,-139,22,-44,162,-326,-106,-232,46,27,-197,2,11,117,-210,-535,-131,14,101,-442,-547,126,67,95,80,190,660698
-105,-8,30,26,-4,-4,-147,-178,-62,39,44,-20,-26,65,55,-135,21,32,120,-118,-389,-64,30,95,-304,-371,109,68,114,85,139,660699
-25,0,25,16,13,8,-67,-47,-33,47,204,-29,65,-103,13,-22,35,32,68,2,-138,28,42,45,-103,-26,67,45,94,54,-4,660700
19,-2,6,8,8,0,-13,-143,93,-151,199,8,42,-58,32,31,27,14,41,61,-2,65,32,31,-12,191,40,34,64,24,74,660701
-3,-3,-5,3,-6,-21,-11,-28,-30,72,193,32,38,98,4,16,26,8,49,52,-6,60,42,39,-18,197,50,36,67,18,45,660702
-1,-1,8,15,10,-13,-10,162,-49,130,315,10,-100,49,35,0,6,-5,-6,35,-3,40,28,2,-34,221,9,0,38,-17,-7,660703
-34,-17,-2,10,-6,-1,-74,-127,18,-29,273,-86,-202,-34,32,-59,-36,-29,-20,-18,-86,-15,-17,-30,-103,104,-20,-29,8,-32,-82,660704
-41,-11,13,21,6,20,-109,-42,26,-64,-22,-54,28,-46,-41,-106,-48,-54,1,-56,-160,-49,-31,-20,-161,12,-14,-31,9,-43,-37,660705
-88,-6,38,29,3,12,-144,-2,-3,-193,106,-8,-80,-177,-33,-146,-15,5,86,-106,-333,-69,4,75,-283,-257,81,37,75,31,210,660706
-220,-20,67,39,-21,-22,-268,-228,43,-102,-163,-22,238,-132,38,-230,120,144,296,-205,-714,-88,119,287,-544,-886,275,204,254,210,577,660707
-275,-45,66,29,-21,-34,-325,-234,0,122,-409,-94,152,-248,0,-282,144,163,362,-252,-887,-119,154,330,-648,-1208,327,260,304,257,589,660708
-208,-47,46,26,-12,-18,-265,-54,53,80,-69,-62,22,-146,-14,-269,96,104,290,-223,-816,-121,129,265,-574,-1141,258,215,253,193,453,660709
-33,-32,-1,7,5,-1,-56,35,-19,-72,126,32,-101,-3,8,-94,40,35,147,-60,-366,-29,76,111,-204,-477,105,120,148,91,112,660710
2,-27,-31,1,2,-5,39,61,-54,-72,85,32,-170,145,70,-4,12,8,58,-15,-127,-2,44,31,-45,-113,30,60,69,42,-22,660711
-18,-20,-47,2,-20,-31,64,59,-11,-33,-34,27,-47,155,93,27,27,33,45,-17,-71,6,57,30,-16,-11,46,60,61,44,-23,660712
-40,-11,-38,3,-22,-35,33,3,-15,47,-118,20,-39,151,58,28,43,61,68,-26,-98,13,57,65,-47,-59,84,81,81,82,43,660713
-7,-10,-27,6,-6,-13,37,107,66,56,21,-6,-13,78,-30,-13,-23,-4,14,-73,-98,-20,-8,-9,-80,-62,10,10,2,4,-37,660714
8,-9,3,11,23,27,69,-37,-7,56,56,27,164,2,-51,-38,-28,-7,16,-87,-129,-35,-9,-5,-100,-119,19,20,1,7,-54,660715
-102,-21,31,-4,5,18,-26,-129,-22,42,-52,-190,101,7,-33,-138,0,18,90,-177,-392,-101,13,73,-306,-513,97,65,68,57,180,660716
-272,-28,66,24,-8,4,-285,-181,-1,-44,69,-228,75,-200,-41,-316,80,92,269,-326,-908,-179,89,262,-696,-1329,260,176,220,178,531,660717
-275,-31,37,44,-10,-21,-386,-40,-65,-162,64,-237,144,-104,-29,-340,93,100,292,-296,-971,-165,116,276,-712,-1488,266,196,249,196,495,660718
-172,-27,18,23,-6,-10,-336,22,18,-22,5,18,44,123,-47,-207,103,78,260,-120,-678,-50,127,227,-435,-1089,218,183,236,177,247,660719
-3,-21,-1,-8,28,27,-103,-137,107,-6,58,144,30,239,63,11,78,42,138,111,-140,93,106,104,-15,-310,110,124,166,101,-152,660720
42,-22,-14,-2,31,22,55,-77,95,16,154,176,-33,128,48,56,46,23,60,158,46,118,83,34,95,-19,36,61,90,33,-41,660721
23,-18,-21,23,11,1,71,46,21,-81,185,88,-121,-29,1,-24,-10,-39,-24,72,-37,36,27,-36,-2,-103,-37,-19,10,-41,-18,660722
45,-4,-24,39,23,12,89,170,19,129,347,36,-47,-75,29,-32,-61,-82,-89,67,7,14,-31,-86,13,1,-98,-82,-42,-94,-122,660723
-6,-23,-17,5,4,9,29,39,54,-101,147,-82,7,87,-29,-28,-24,-36,-39,57,-30,22,1,-31,-13,-39,-52,-38,-7,-58,-84,660724
-18,-12,-3,7,7,14,23,38,38,-140,323,-114,-64,11,-7,-17,26,0,23,70,-29,45,50,13,-4,-45,-10,13,30,-17,-26,660725
-46,-13,-4,11,2,1,-22,-167,7,-21,40,-50,-34,-51,-12,-77,-16,-35,-6,-7,-120,-19,1,-17,-80,-166,-23,-20,-1,-43,-9,660726
-63,-7,2,14,5,-5,-71,-103,-42,11,-9,70,-117,5,4,-110,6,14,54,-59,-266,-50,9,51,-190,-380,50,32,56,16,201,660727
-67,5,10,34,19,-22,-105,-29,-9,19,-61,61,-63,240,-2,-126,79,90,178,-66,-402,-30,100,179,-278,-644,160,138,163,118,295,660728
-45,0,-4,39,17,-24,-83,-81,19,219,-243,46,-72,-35,-11,-89,108,89,185,-30,-353,-5,123,181,-224,-621,156,150,172,126,139,660729
32,2,-12,35,22,13,-7,71,58,254,-12,35,35,10,25,-56,31,4,68,-14,-177,-13,39,57,-94,-350,32,64,62,31,-96,660730
56,4,-21,25,14,20,51,175,-39,244,181,96,-66,135,34,-22,-8,-27,-9,-11,-50,-13,0,-11,-12,-139,-21,-1,-8,-10,-71,660731
47,-8,-33,-3,-8,5,79,22,-23,91,90,124,-40,53,77,-2,-30,-40,-41,-31,13,-17,-24,-56,7,-45,-48,-20,-52,-29,-102,660732
-5,-1,-3,4,-7,1,70,55,88,40,62,122,-105,111,12,-11,1,1,18,-55,-70,-10,-2,-4,-54,-172,21,23,-9,23,24,660733
-19,-7,-9,-2,-5,-16,51,9,-50,11,233,108,-174,166,-14,-10,29,19,55,-42,-76,3,20,34,-64,-213,60,51,31,60,-35,660734
19,-16,-22,-24,-1,-6,12,-14,33,139,126,37,-7,139,42,-24,-16,-22,-24,-59,-61,-27,-21,-25,-64,-165,-12,-5,-35,-2,-130,660735
83,-7,-11,-10,27,13,39,-28,27,-37,-83,57,63,-128,90,2,-33,-39,-65,-6,46,-11,-30,-59,10,2,-54,-27,-51,-42,-163,660736
-45,-16,3,6,0,-5,-56,-69,89,-37,-153,14,71,-145,64,-78,24,27,47,-76,-210,-57,19,52,-174,-377,58,45,38,40,77,660737
-88,-18,14,12,-16,-3,-54,95,94,184,163,-63,-8,-2,40,-113,41,36,85,-73,-305,-63,36,91,-234,-532,93,60,71,65,115,660738
-62,-4,38,35,13,27,-15,130,148,17,212,83,-5,33,-16,-123,22,9,82,-65,-319,-59,25,71,-225,-545,76,54,66,47,115,660739
21,-5,-1,28,12,32,46,174,83,-103,-32,63,-54,-29,23,-57,-11,-33,11,27,-142,-12,1,2,-81,-258,-3,-4,16,-15,-45,660740
53,-13,-15,10,12,19,30,61,16,99,-116,-52,61,-50,-22,-21,-22,-44,-56,68,-17,8,-22,-38,9,-67,-40,-40,-15,-50,-154,660741
13,-11,3,-3,10,20,-22,-159,48,276,-121,-39,62,-69,-39,-26,4,-8,-10,56,-60,12,-13,4,-35,-134,16,-4,24,-12,-45,660742
28,-1,16,12,27,38,-21,-14,106,179,-271,39,65,77,-59,-3,24,0,21,84,-27,31,24,21,-10,-91,29,15,32,2,-26,660743
62,-6,6,11,23,44,1,-65,-24,18,8,71,-32,68,-17,3,8,-17,-23,89,3,22,18,-7,20,-13,-5,-12,3,-20,-30,660744
47,-10,-3,7,18,35,-3,-64,-80,-71,357,46,16,-83,40,-14,17,-2,6,75,-36,22,19,23,-9,-82,3,16,19,-13,-3,660745
-21,0,15,30,8,22,-51,37,29,-10,-36,16,59,-75,-41,-66,35,32,80,8,-198,-4,38,90,-143,-330,72,56,66,35,123,660746
-114,-6,28,40,-7,1,-133,-67,75,50,70,3,-17,80,-45,-135,83,79,161,-67,-430,-46,87,175,-310,-722,168,126,153,115,272,660747
-125,-20,13,15,-6,-3,-138,34,162,125,-50,-27,-67,107,16,-144,73,60,154,-89,-450,-52,88,151,-318,-793,140,121,149,98,218,660748
-89,-16,16,8,2,13,-116,-11,36,-55,-126,3,1,76,33,-112,56,50,148,-74,-386,-28,73,132,-254,-713,115,110,126,84,135,660749
-17,-20,-22,4,-1,-2,-15,-41,-33,-99,53,161,-4,-4,-8,-41,10,9,42,-5,-148,-2,19,18,-79,-359,15,45,45,13,-24,660750
26,-14,-20,14,15,11,17,21,-58,-14,-102,87,-18,-61,-67,-11,-19,-12,10,1,-50,2,3,-5,-12,-214,-6,19,6,2,-91,660751
83,-9,-35,2,17,22,73,-69,47,4,-95,33,128,-44,0,25,-52,-55,-36,17,111,21,-41,-67,86,34,-63,-27,-52,-42,-168,660752
85,-3,-29,3,18,17,84,-128,64,-2,77,117,175,4,7,27,-24,-32,-27,6,123,39,-31,-63,84,27,-51,-8,-48,-25,-130,660753
65,5,-23,3,5,-7,72,69,-12,-37,300,114,313,47,21,62,23,18,12,29,121,68,18,-3,90,32,7,27,-6,19,-85,660754
80,6,-61,-7,-14,-34,115,142,-68,54,56,72,38,190,60,110,-3,-13,-57,83,277,93,1,-68,205,286,-51,-19,-48,-36,-215,660755
-95,12,8,24,-9,-39,-100,70,28,-69,-24,88,-81,135,63,-86,57,67,111,-90,-206,-20,44,103,-173,-442,122,100,68,88,199,660756
-146,-3,29,42,-2,-24,-134,-159,112,1,-29,31,129,48,19,-145,92,96,195,-120,-407,-49,87,180,-291,-754,184,145,144,147,337,660757
-159,-9,55,66,16,7,-102,-200,120,64,-55,-49,190,-168,-40,-192,96,90,205,-144,-547,-82,102,191,-371,-954,188,151,162,145,346,660758
-119,-30,31,45,16,19,-44,100,120,113,5,-6,-8,-341,-12,-181,38,22,125,-121,-495,-95,44,115,-325,-861,103,79,100,74,222,660759
10,-30,-17,18,21,31,59,-69,75,31,17,17,-27,-126,-9,-76,-36,-55,-28,10,-165,-48,-27,-26,-71,-344,-36,-41,-18,-30,-54,660760
73,-9,-25,1,18,20,82,121,47,87,148,76,-40,118,-65,18,-50,-59,-74,101,55,-1,-33,-73,96,4,-70,-64,-49,-67,-230,660761
45,2,-14,0,16,17,41,120,22,31,-26,77,-9,19,82,41,-1,8,-22,128,60,31,12,-14,97,9,-6,3,11,-23,-81,660762
25,4,-10,-10,8,8,19,-54,-18,-13,52,83,-39,-15,31,43,22,20,16,130,41,44,22,11,80,-8,21,33,26,-4,-46,660763
39,2,9,2,20,19,21,22,5,-5,206,126,-59,183,13,57,64,52,64,134,14,61,61,63,56,-48,68,68,77,33,85,660764
27,-3,-4,-5,19,10,0,-24,-31,29,20,138,59,165,-28,27,40,32,4,95,-12,24,31,30,14,-80,37,23,40,10,46,660765
3,-7,-18,-18,4,1,5,33,24,-15,-117,109,15,157,31,2,9,6,-34,53,-31,-6,15,-5,-9,-108,5,-15,-4,-23,-10,660766
-88,-6,18,7,3,12,-91,-20,116,-53,-245,57,-61,115,49,-122,33,30,76,-64,-333,-79,26,87,-240,-568,102,43,61,34,144,660767
-76,-11,21,17,12,22,-70,31,52,128,-110,100,-67,51,66,-115,20,20,64,-54,-320,-65,5,73,-223,-551,70,27,58,32,125,660768
-57,-2,22,0,14,30,-32,-76,105,56,27,76,50,-21,32,-72,43,38,89,-8,-244,-20,35,75,-159,-478,77,45,81,49,112,660769
-9,-6,-4,-9,22,24,18,-16,-18,-56,-117,-20,60,-70,-27,-26,23,4,34,28,-76,15,29,-5,-29,-240,10,4,30,6,-41,660770
43,-4,-16,10,41,23,8,-37,-4,-123,-13,-87,-19,-261,-14,1,-9,-27,-42,36,45,34,2,-68,49,-69,-52,-31,-30,-43,-103,660771
102,11,3,11,58,51,42,59,-31,-98,110,-39,32,-237,2,55,-15,-26,-56,72,163,74,-8,-73,131,90,-58,-33,-39,-41,-116,660772
101,19,23,11,48,56,34,45,-45,-56,232,64,61,-100,47,55,10,12,-21,67,162,82,4,-39,119,68,-20,-3,-18,-1,-97,660773
54,13,19,5,32,37,-36,-42,-40,-61,36,90,32,13,80,44,37,52,10,50,119,83,40,9,77,-3,23,29,10,29,50,660774
