-26,32,23,1,-21,-27,19,28,65,-58,-91,-48,51,-34,11,9,-14,11,-15,-60,67,-19,-42,5,-39,-8,4,-16,-45,3,54,683956
-7,45,20,9,-7,-15,12,-196,140,0,99,-68,207,20,-72,0,-38,-14,-40,-54,79,-35,-67,-27,-20,0,-21,-37,-50,-12,24,683957
-4,39,37,-7,4,-7,-53,-338,107,3,148,-16,52,47,-73,17,10,29,7,-27,70,-11,-12,30,-23,-58,34,7,-3,30,24,683958
2,22,29,-31,-5,-9,-77,-26,152,69,158,-54,16,-128,-33,39,27,29,9,-7,81,13,-4,31,6,-45,22,11,7,32,13,683959
4,30,24,-16,-4,-10,-83,94,164,203,84,-106,124,-135,-17,26,1,14,-1,-37,65,8,-7,11,-4,-72,2,-2,-6,13,-4,683960
78,45,-4,-30,3,-7,19,87,33,100,118,44,108,-186,65,117,-26,-28,-81,70,322,62,-31,-79,211,322,-92,-61,-75,-42,-215,683961
247,46,-38,-53,23,18,195,-13,-50,62,187,140,78,-129,35,307,-79,-95,-264,259,841,173,-83,-248,607,1161,-252,-179,-200,-178,-550,683962
336,45,-60,-70,20,13,344,133,-72,99,3,130,72,6,53,419,-131,-130,-394,341,1142,210,-130,-356,803,1700,-343,-268,-292,-264,-659,683963
295,69,-65,-56,-8,-12,402,154,-89,121,89,107,16,123,17,387,-147,-132,-417,299,1120,175,-147,-356,737,1749,-357,-284,-333,-270,-651,683964
15,51,7,-33,-43,-42,53,-225,-102,85,-84,-42,93,-9,-80,84,-73,-34,-160,-11,355,-11,-92,-113,105,627,-107,-145,-177,-106,-47,683965
-107,22,36,-32,-38,-36,-137,-330,18,161,-72,-102,169,-118,-35,-82,-47,-6,-35,-140,-81,-107,-76,-10,-205,-56,4,-74,-70,-21,179,683966
-60,28,37,-41,-20,-17,-88,-53,22,130,-32,-71,221,-89,38,-37,-43,-4,-23,-73,-22,-63,-52,-5,-116,12,-6,-45,-46,-4,97,683967
-13,37,40,-27,-1,-3,-41,196,-35,28,179,-57,131,189,68,36,6,32,-10,-4,46,-14,-5,26,-38,103,12,-10,-5,21,96,683968
12,58,39,-13,4,3,-24,29,-84,61,178,10,360,107,65,52,13,24,-15,34,88,4,-7,22,5,147,6,-13,5,30,17,683969
-9,56,53,-12,18,10,-46,-43,-85,56,67,4,108,-7,-1,29,12,24,16,11,35,-7,-14,27,-18,68,9,2,2,19,-15,683970
102,36,13,-32,23,39,60,-30,-10,-66,21,95,101,-97,57,100,-59,-62,-105,85,297,22,-66,-106,190,496,-105,-87,-100,-82,-230,683971
357,62,-46,-51,39,54,378,104,-225,-46,159,58,-21,-26,74,370,-160,-163,-379,319,1016,168,-165,-362,731,1655,-360,-267,-290,-259,-731,683972
416,72,-70,-69,17,36,484,382,-215,-161,-128,52,-34,-93,49,468,-198,-182,-477,381,1331,209,-206,-446,907,2203,-433,-341,-383,-328,-816,683973
281,79,-38,-59,4,5,342,-4,-72,6,13,49,-36,19,11,349,-143,-116,-355,234,1041,149,-176,-294,636,1800,-286,-243,-306,-233,-509,683974
23,49,28,-45,-25,-25,33,-164,-49,154,-41,-142,-65,-189,-32,84,-54,-7,-115,-30,362,6,-100,-60,89,769,-52,-88,-140,-60,26,683975
-59,31,41,-30,-34,-40,-78,-190,-46,108,-29,-126,-78,-183,-124,-17,-16,26,26,-108,66,-28,-43,24,-111,292,26,-12,-34,23,199,683976
-34,43,21,-27,-27,-28,-46,-161,-127,26,-92,-115,-52,11,-82,-2,-14,26,34,-90,60,-17,-34,16,-85,259,14,-11,-17,19,162,683977
-47,35,33,-29,-23,-27,-71,-62,6,67,-201,-137,113,76,-22,22,17,47,81,-73,28,4,2,60,-85,187,56,36,25,60,133,683978
-55,23,30,-38,-25,-21,-77,46,27,31,-323,-94,165,-19,-4,27,27,53,84,-59,30,24,26,65,-67,162,56,37,23,59,133,683979
-48,23,35,-28,-23,-23,-49,-29,17,23,-78,-66,190,-46,21,-4,5,21,56,-80,17,-3,12,30,-89,140,22,4,-7,23,88,683980
23,43,22,-13,4,-4,79,-41,36,-5,-86,30,-71,6,-13,66,-19,-11,-9,-1,203,25,-12,-38,66,414,-39,-36,-41,-21,-87,683981
252,78,-28,-13,42,36,357,83,-51,78,118,154,-44,73,60,298,-92,-106,-250,225,824,143,-85,-258,542,1402,-252,-189,-207,-168,-519,683982
260,72,-42,-30,18,18,316,171,-110,-68,157,92,-20,59,43,285,-122,-112,-309,195,862,118,-134,-299,530,1521,-288,-232,-259,-223,-510,683983
196,73,-11,-31,-2,8,202,-70,-87,87,118,75,102,51,-42,243,-97,-63,-234,152,748,95,-110,-216,420,1363,-206,-176,-206,-154,-242,683984
-1,34,33,-46,-26,-31,-60,-122,54,37,-27,-87,62,-76,-62,64,-29,22,-28,-28,225,-4,-47,-9,19,592,-4,-33,-51,-9,233,683985
-46,23,45,-31,-23,-21,-129,8,85,-143,-105,-93,14,-67,72,22,27,57,68,-41,31,-18,5,86,-89,272,86,40,43,58,232,683986
-58,40,34,-24,-20,-23,-121,-41,112,-157,-22,-80,95,-49,53,2,39,59,93,-30,-40,-26,20,103,-119,147,96,60,71,75,152,683987
-70,47,29,-26,-26,-35,-130,45,5,5,6,36,21,104,19,13,40,67,104,-14,-47,-23,40,102,-106,132,94,71,72,87,180,683988
-102,30,20,-31,-40,-42,-233,-105,11,156,-106,28,-65,163,-51,-9,41,63,103,-29,-101,-37,50,100,-131,48,86,61,73,77,146,683989
-85,31,39,-29,-34,-31,-320,-15,13,-39,-191,53,-96,19,38,4,61,79,116,-21,-112,-24,57,116,-134,1,109,77,95,92,142,683990
22,26,-4,-47,-23,-35,-174,-17,-8,-159,-131,162,-39,140,26,136,31,44,17,113,230,64,33,20,141,503,9,13,37,28,-98,683991
75,9,-29,-67,-21,-26,44,-4,-6,-16,47,137,-19,155,-11,164,-35,-17,-90,126,411,68,-30,-88,246,810,-87,-66,-61,-64,-220,683992
106,20,-30,-31,-5,-8,222,-13,20,-16,251,117,63,15,-30,152,-70,-53,-140,94,442,45,-77,-146,256,893,-150,-118,-130,-110,-231,683993
77,43,3,-10,7,4,202,6,-16,-133,30,-8,157,-83,-47,117,-60,-48,-99,49,351,31,-72,-106,184,778,-118,-94,-114,-82,-184,683994
-28,30,21,-9,-12,-15,33,-115,-108,-88,-96,-141,56,-222,-77,-16,-55,-35,-30,-83,67,-40,-65,-27,-60,348,-42,-59,-59,-41,-43,683995
-55,30,45,9,5,-8,-35,-143,10,-4,-174,-82,-1,-183,-48,-58,-20,4,42,-117,-93,-48,-33,40,-172,81,29,-10,7,14,142,683996
-45,14,19,-13,-7,-13,-35,-251,91,-136,-214,-55,69,-61,-54,-18,-1,26,61,-82,-42,-6,-2,51,-118,125,27,9,18,28,166,683997
-40,16,18,-12,-7,-18,-38,-137,69,-131,-257,-89,94,-8,-21,2,27,49,98,-61,-23,15,27,73,-96,132,54,46,51,54,164,683998
-21,32,26,-10,0,0,-23,-79,24,-4,-84,26,-249,61,21,15,29,59,95,-49,-5,22,28,84,-74,154,55,61,54,73,118,683999
-21,26,22,-13,-1,-7,-20,-19,3,10,-67,-7,-100,-68,-1,2,20,47,73,-49,-21,7,6,70,-73,136,45,49,51,50,93,684000
-45,27,31,14,-4,-4,5,-62,47,-145,-83,-58,59,-51,15,-35,2,29,74,-82,-92,-28,-8,59,-135,26,43,44,45,50,95,684001
-3,36,25,31,12,7,85,23,8,-32,92,-87,145,-11,-4,-15,-16,-4,14,-46,1,-16,-34,-3,-49,169,-23,-2,0,-1,43,684002
-19,30,7,9,-7,-6,56,47,-42,134,166,-31,41,-248,-45,-29,-45,-31,-29,-65,-10,-40,-64,-32,-64,171,-58,-38,-28,-36,-38,684003
-29,22,-1,-7,-10,-9,2,-181,18,-143,12,-39,129,-107,-49,-26,-24,-13,-6,-50,-22,-35,-45,-1,-76,138,-22,-8,-8,-10,87,684004
-33,21,21,-3,-5,-9,-4,-76,81,50,34,-48,66,24,-21,18,14,24,37,-9,11,2,5,44,-35,182,9,32,25,28,55,684005
-39,2,5,-10,-13,-28,-36,-58,-47,82,-15,-12,-22,-179,48,4,4,13,40,-17,-12,-11,-10,38,-43,156,5,24,23,21,39,684006
-40,1,13,-25,-9,-6,-49,-49,48,-118,-116,-52,-55,-201,9,5,9,21,40,-5,-26,-10,0,41,-61,130,28,29,23,28,22,684007
-34,6,11,-3,-17,-13,-37,54,41,-175,-55,-39,120,-24,-39,15,2,6,37,4,-17,-4,5,30,-45,147,18,20,24,27,5,684008
-20,22,22,18,4,-2,35,45,103,-106,48,-42,45,-5,-59,13,2,12,31,6,8,-3,-2,21,-21,175,4,14,17,19,47,684009
20,14,0,7,5,-4,101,94,-2,-69,-19,10,95,75,-51,53,-5,-3,4,44,86,8,-4,-7,43,299,-9,-5,6,1,-34,684010
82,35,6,9,20,17,157,175,12,-127,-88,-25,52,27,-6,120,13,18,-12,106,212,65,14,-8,148,466,-18,-10,1,3,-40,684011
201,36,-56,-15,6,1,280,188,-84,-67,23,63,11,177,-8,244,-60,-65,-180,229,618,120,-62,-187,444,1113,-192,-133,-130,-127,-353,684012
287,37,-66,-44,21,7,294,222,-84,57,303,153,11,175,24,331,-110,-126,-313,287,917,153,-122,-299,645,1618,-304,-224,-241,-219,-565,684013
255,19,-64,-70,-4,1,256,11,54,-44,135,140,70,28,51,321,-119,-113,-341,247,944,142,-135,-299,624,1711,-316,-244,-272,-235,-392,684014
44,10,-10,-56,-27,-7,25,13,-8,-74,20,-8,41,41,50,124,-29,2,-118,34,388,34,-42,-84,165,901,-79,-89,-113,-83,21,684015
-69,17,33,-17,-30,-17,-111,-151,-61,-50,47,-108,-18,60,-28,-9,49,75,71,-86,-38,-26,26,92,-137,215,85,43,29,56,210,684016
-32,26,33,-14,-16,2,-81,120,-103,-31,-117,-57,-140,-36,-31,10,38,63,75,-43,5,9,31,78,-70,254,68,50,38,58,150,684017
-51,5,18,-23,-24,-10,-112,3,-77,-47,-324,-88,-80,-128,-13,-10,18,39,54,-58,-32,0,25,52,-96,202,49,29,37,43,173,684018
-58,6,8,-18,-30,-25,-66,-124,0,-22,-70,-35,105,20,-87,11,5,22,33,-42,15,4,5,29,-51,273,22,18,17,26,92,684019
-90,20,14,4,-27,-33,-10,-82,69,1,-166,-24,72,136,-67,25,43,51,60,-8,24,11,16,69,-27,256,60,51,54,57,139,684020
34,24,-53,-27,-30,-42,229,-90,-35,69,10,93,-86,171,14,190,-9,-22,-93,167,478,110,-19,-82,335,945,-105,-60,-45,-43,-296,684021
523,54,-175,-101,6,8,813,506,-238,73,563,296,-194,285,123,698,-208,-255,-636,651,1901,372,-204,-616,1427,3212,-612,-424,-447,-417,-1385,684022
864,88,-242,-164,27,47,1083,517,-419,122,562,309,-209,248,156,1027,-361,-432,-1026,913,2914,505,-367,-975,2119,4940,-949,-693,-787,-706,-1923,684023
997,106,-249,-193,32,39,1036,554,-386,-150,499,209,-81,200,153,1140,-412,-470,-1200,961,3354,544,-453,-1106,2330,5821,-1073,-820,-957,-832,-1930,684024
250,71,-7,-148,-52,-20,74,113,-58,4,-179,-107,187,-112,24,388,-160,-84,-510,173,1368,109,-269,-351,657,2919,-326,-352,-487,-328,-196,684025
-257,32,112,-79,-95,-67,-467,-453,77,23,-374,-222,269,-34,-221,-99,93,184,156,-254,-154,-119,-23,248,-431,483,245,88,41,157,654,684026
-181,10,91,-78,-72,-40,-408,-370,61,-48,-292,-164,39,45,-179,-49,73,124,143,-174,-115,-77,-18,175,-318,474,176,64,61,137,455,684027
-126,3,102,-64,-36,-13,-372,-249,35,54,-255,-192,3,-83,-103,-40,59,107,129,-141,-113,-62,-17,141,-265,441,140,48,65,109,332,684028
-56,10,67,-36,-13,-6,-229,-74,28,37,-67,-208,-1,-253,-13,11,16,57,52,-85,27,-36,-32,56,-146,619,60,8,7,38,160,684029
-60,11,67,0,-20,-10,-97,-152,98,135,35,-80,34,-122,9,-3,5,49,55,-89,4,-37,-19,64,-156,554,64,7,9,51,198,684030
125,38,6,18,-6,-17,214,-65,-42,231,302,-7,14,-210,76,201,-23,-10,-93,139,518,96,-51,-89,266,1315,-79,-79,-72,-36,-282,684031
990,101,-269,-103,53,17,1238,590,-357,-27,582,432,-83,134,277,1201,-312,-390,-996,1103,3176,637,-320,-971,2342,5482,-933,-656,-697,-635,-2177,684032
1284,148,-338,-203,44,30,1484,933,-469,-152,462,467,-154,387,227,1610,-456,-514,-1467,1386,4410,814,-502,-1347,3125,7659,-1292,-955,-1090,-960,-2626,684033
1053,140,-255,-249,-19,-1,1102,660,-385,-224,540,349,-149,199,135,1425,-399,-405,-1355,1118,4045,674,-502,-1176,2670,7361,-1111,-888,-1065,-878,-1933,684034
126,56,15,-187,-117,-92,-64,-63,80,-201,111,-122,112,-103,-104,414,-130,-24,-457,75,1429,77,-284,-280,538,3511,-248,-333,-487,-285,103,684035
-305,30,156,-93,-108,-96,-566,-296,190,-78,-212,-443,161,-381,-150,-120,75,182,153,-353,-125,-174,-66,251,-557,1020,247,51,-6,139,800,684036
-216,11,135,-76,-77,-57,-421,-102,20,67,-305,-264,189,-414,-39,-52,78,159,166,-229,-65,-93,-17,204,-400,1015,212,73,52,150,546,684037
-169,6,113,-54,-76,-34,-312,-130,25,77,-323,-164,120,-285,-22,-55,42,107,140,-209,-64,-83,-34,151,-359,970,157,47,41,123,388,684038
-143,16,114,-7,-37,-17,-264,-187,58,-113,-114,-154,153,-193,-79,-94,20,73,128,-223,-145,-116,-39,124,-393,827,142,34,44,104,372,684039
-126,15,99,8,-25,-10,-229,-298,-40,-190,83,-115,123,-7,-157,-101,7,52,100,-223,-197,-129,-58,109,-408,731,114,18,40,82,393,684040
-25,5,56,-2,-18,-8,-132,-43,-111,-1,85,-139,0,1,-102,-6,-20,13,16,-130,11,-79,-79,24,-213,1027,36,-38,-2,21,99,684041
262,38,-26,-22,3,-1,245,163,-73,-174,3,22,-71,-56,0,340,-97,-84,-227,206,888,126,-120,-224,493,2336,-210,-178,-169,-134,-478,684042
487,63,-100,-61,10,-11,530,214,-96,-218,-161,188,-66,-12,95,642,-163,-170,-483,486,1704,293,-188,-462,1099,3646,-443,-330,-358,-301,-999,684043
512,52,-90,-114,-5,-17,516,222,-86,-83,180,193,37,-97,104,735,-167,-152,-558,533,1955,342,-231,-500,1220,4121,-464,-363,-418,-349,-958,684044
73,19,54,-91,-49,-38,-73,38,109,25,147,-30,216,-244,-50,211,-65,4,-180,8,703,30,-143,-113,174,2290,-101,-129,-206,-129,142,684045
-169,21,124,-20,-47,-49,-307,-91,186,68,-149,-179,220,-228,-136,-76,25,95,123,-246,-115,-121,-44,132,-408,1001,131,45,13,81,514,684046
-133,22,105,20,-30,-36,-183,-343,34,-7,-63,-76,70,-175,-103,-42,60,103,158,-188,-111,-79,-5,144,-351,930,151,67,70,118,408,684047
-151,-6,83,18,-38,-35,-170,-437,43,-87,-172,-92,-72,-305,-52,-93,19,59,136,-229,-212,-109,-26,109,-403,757,118,34,48,80,346,684048
-168,-10,88,21,-34,-24,-166,-255,87,-30,51,-70,-108,-50,-41,-132,4,55,162,-258,-316,-133,-19,129,-464,569,140,63,62,88,352,684049
-207,-23,92,13,-39,-38,-218,-278,121,47,-49,-186,7,-79,-60,-139,47,85,207,-256,-398,-136,22,189,-500,387,189,119,118,138,431,684050
-8,12,25,-2,-15,-34,12,45,-35,45,131,1,-155,-64,47,127,34,46,72,24,177,47,14,45,2,1208,38,42,58,63,-69,684051
298,37,-62,-53,1,-9,313,289,5,79,415,149,-159,20,45,462,-77,-101,-282,343,1133,219,-102,-288,731,2719,-280,-191,-203,-181,-638,684052
229,20,-42,-79,-11,-20,146,92,-70,-14,366,130,-143,57,26,395,-69,-67,-273,243,1017,165,-101,-232,581,2624,-227,-181,-219,-170,-441,684053
116,1,-9,-67,-33,-39,38,55,-152,-78,63,-31,-67,45,0,274,-30,-15,-179,122,709,87,-68,-131,325,2211,-123,-125,-154,-107,-220,684054
-55,11,46,-37,-41,-40,-98,-276,36,-103,-72,-28,124,73,-54,78,11,43,-4,-66,214,-33,-41,19,-71,1462,17,-17,-42,1,208,684055
-196,11,83,3,-41,-33,-202,-419,118,-145,-143,-23,72,-50,-50,-65,77,113,174,-181,-215,-97,28,192,-378,762,179,106,103,129,374,684056
-187,0,99,31,-16,-28,-217,-118,44,102,32,-87,-21,-29,-18,-125,62,85,174,-211,-352,-136,15,184,-452,535,175,96,108,126,343,684057
-152,-25,95,17,-16,-14,-230,-36,42,174,158,-93,106,-122,-54,-177,-15,5,87,-245,-385,-182,-45,88,-456,492,80,13,47,49,317,684058
-97,-34,89,-3,0,16,-223,-90,159,140,157,-124,72,-211,-106,-165,-43,-33,32,-232,-351,-198,-73,34,-421,521,43,-23,21,18,194,684059
-64,-29,85,-3,-4,14,-206,-37,53,1,216,-109,148,-319,-62,-108,-17,1,73,-174,-294,-148,-40,62,-355,583,72,19,49,52,149,684060
-61,-31,66,2,-11,4,-214,9,55,-5,41,-122,172,-46,4,-97,11,24,110,-154,-289,-114,-3,97,-332,568,96,50,76,67,183,684061
-44,-26,38,5,-10,-25,-168,-104,15,-40,4,-14,71,22,-32,-48,16,27,94,-104,-196,-71,10,84,-244,674,73,50,80,57,72,684062
-115,-15,54,20,-13,-23,-158,-291,47,-39,43,26,168,23,-16,-54,79,92,172,-105,-280,-48,65,173,-292,510,161,120,146,133,286,684063
-174,-7,87,37,-3,-17,-155,-170,156,-65,-66,97,24,79,73,-119,115,137,266,-162,-480,-72,117,253,-430,155,243,193,207,195,394,684064
-75,1,54,44,8,-3,-15,172,69,95,-5,44,-27,104,-37,-38,75,68,159,-79,-221,-34,81,132,-222,506,118,107,136,107,86,684065
-34,-7,40,39,8,11,-18,117,67,67,68,-88,-43,21,-74,-38,30,22,87,-90,-160,-44,39,56,-178,614,47,49,68,46,81,684066
-24,-23,33,32,10,10,-11,81,43,37,163,-63,-117,0,0,-36,2,1,48,-103,-107,-43,7,22,-147,686,15,30,31,23,81,684067
-52,-30,49,26,17,5,-41,-89,119,-35,44,-29,33,-159,-21,-86,13,12,75,-156,-210,-68,16,53,-234,510,51,44,49,33,147,684068
-24,-25,32,3,20,6,-5,96,44,-164,-15,-58,172,-179,27,-66,-12,-10,34,-126,-143,-70,-8,14,-187,607,13,9,29,0,34,684069
20,-18,18,-1,21,17,84,20,-39,-33,74,-205,217,-106,-53,-13,-42,-44,-23,-72,25,-42,-35,-55,-54,871,-51,-35,-26,-46,-125,684070
-54,-21,49,18,16,35,-19,-78,69,159,65,-195,284,-41,-115,-115,-44,-28,16,-170,-201,-98,-36,-3,-238,538,3,-1,-5,-11,95,684071
-78,-13,75,40,21,29,-85,14,54,157,50,-76,-15,-192,-110,-149,-8,-4,86,-189,-339,-109,11,68,-315,293,56,43,52,48,195,684072
-78,-16,71,33,14,20,-132,-259,58,238,66,-154,61,-85,-77,-139,2,2,102,-163,-340,-95,18,82,-316,270,74,58,70,54,218,684073
-55,-14,59,34,18,23,-138,-58,-9,137,-301,-34,42,-121,-18,-114,22,23,124,-123,-328,-73,47,100,-289,272,95,86,98,75,71,684074
-34,-10,50,20,28,18,-115,116,-32,6,-117,20,190,-95,-2,-69,33,27,99,-77,-249,-56,56,84,-202,382,78,72,91,67,159,684075
-78,-32,28,-6,-7,-3,-170,157,-97,-42,-19,-18,204,49,-30,-101,21,15,89,-98,-299,-89,53,80,-242,310,70,54,81,63,158,684076
-76,-32,20,2,-8,-15,-181,119,-13,-195,-83,-11,36,-45,-17,-84,40,32,87,-71,-285,-84,63,85,-218,324,87,62,98,69,156,684077
-53,-15,33,-6,7,3,-172,110,40,-43,43,80,-76,60,-21,-31,47,44,83,-31,-204,-55,58,81,-141,434,90,71,92,76,99,684078
-62,-24,38,-22,1,0,-197,-5,32,79,28,21,18,212,39,-28,66,54,118,-24,-206,-40,84,104,-140,407,105,93,119,93,108,684079
-53,-31,37,-31,-3,12,-181,-52,88,-10,21,53,145,142,58,-29,44,51,117,-16,-189,-28,73,88,-131,427,90,85,110,84,126,684080
-38,-26,62,5,23,36,-151,-172,102,168,12,-10,187,-78,51,-62,44,57,125,-50,-280,-42,79,107,-189,291,110,97,105,85,160,684081
-206,-28,96,59,11,12,-276,-300,164,172,-20,-136,-27,-146,-111,-281,70,83,249,-262,-780,-166,99,224,-607,-494,222,163,187,153,502,684082
-364,-38,145,94,3,5,-406,-257,225,87,41,-214,117,38,-187,-444,125,147,408,-415,-1245,-256,154,369,-947,-1271,369,263,310,259,805,684083
-437,-46,148,99,11,16,-424,-1,27,193,-17,-214,131,27,-148,-516,139,157,485,-469,-1477,-296,168,436,-1067,-1711,423,318,372,312,789,684084
-93,-30,12,61,35,37,16,20,-86,-21,-110,-16,-109,32,-70,-156,19,-17,176,-105,-542,-80,72,103,-290,-342,89,117,173,95,-14,684085
95,-7,-14,44,63,67,183,44,20,8,175,47,-133,98,80,39,-22,-57,4,59,15,37,48,-44,89,513,-56,11,31,-27,-217,684086
60,-13,-16,38,33,21,124,125,3,24,223,48,25,120,13,-5,-30,-33,2,-6,-28,12,33,-28,20,459,-47,14,6,-30,-79,684087
51,7,-10,45,29,8,125,224,26,82,102,77,101,156,61,5,-10,-6,15,-10,-12,23,41,-3,22,483,-10,26,16,-4,-81,684088
-16,-17,-17,10,-2,-19,24,94,-48,54,-1,26,36,56,2,-22,19,-1,53,-52,-96,15,51,35,-45,371,32,49,49,31,-9,684089
-23,-21,-7,5,6,-10,-40,-78,30,-169,24,62,-119,3,-8,-51,14,-9,36,-69,-127,0,33,17,-81,329,24,39,46,27,13,684090
-190,-44,41,13,-18,-17,-251,-142,54,-2,-103,-31,0,153,-25,-253,24,28,144,-267,-586,-140,33,122,-454,-352,129,97,103,84,323,684091
-467,-38,142,76,-15,1,-520,-361,120,147,-193,-128,38,2,-45,-548,145,173,467,-523,-1452,-291,153,443,-1096,-1756,435,311,342,305,876,684092
-583,-64,147,101,-20,-4,-593,-352,219,49,-373,-169,146,-244,-104,-695,177,199,594,-613,-1882,-362,203,548,-1364,-2498,538,390,464,385,1101,684093
-518,-59,136,125,18,8,-534,-150,154,68,-98,-212,51,-116,-99,-681,169,167,621,-558,-1894,-346,214,524,-1297,-2617,520,405,490,394,935,684094
-111,-39,22,89,56,44,-83,48,-34,-26,-41,18,-212,53,-53,-286,29,-9,238,-139,-858,-119,104,151,-433,-1100,148,154,233,131,30,684095
143,-30,-37,36,68,67,168,58,-98,-9,121,155,-185,63,69,-7,-66,-111,-85,108,-69,7,-3,-120,140,146,-109,-45,-7,-83,-312,684096
101,-21,-29,34,53,42,143,-96,64,99,4,52,130,41,31,4,-16,-66,-48,79,-75,7,23,-62,101,166,-65,-7,0,-50,-151,684097
57,-8,-27,36,47,25,135,-49,11,17,-167,2,-73,-16,-18,1,10,-19,4,71,-115,16,45,1,49,123,-12,27,25,-14,-100,684098
19,-4,-25,42,26,4,129,9,-83,75,5,47,-21,-51,64,-10,30,4,40,60,-128,21,75,36,23,96,21,41,45,9,-57,684099
1,-16,-30,41,15,0,91,-117,-44,-108,-20,106,72,-43,98,-18,29,1,26,52,-114,9,73,19,19,120,22,32,35,-6,-42,684100
-80,-14,10,52,17,2,-74,-16,30,-193,-89,-52,91,-31,-18,-103,69,63,109,-30,-372,-27,96,127,-189,-275,127,112,107,77,261,684101
-382,-51,92,62,-9,-25,-488,-266,147,21,-313,-218,155,58,-38,-434,170,190,447,-361,-1277,-210,170,450,-884,-1696,434,332,347,314,867,684102
-598,-73,173,95,-5,-17,-758,-209,188,61,-400,-232,171,127,-63,-730,260,284,746,-621,-2081,-351,269,705,-1463,-3033,669,512,565,492,1269,684103
-751,-88,205,143,-9,1,-875,-182,207,130,-539,-242,21,59,-102,-946,320,333,939,-796,-2690,-460,360,856,-1869,-4112,811,637,720,616,1536,684104
-182,-47,22,128,62,51,-130,123,-13,-27,-113,30,-260,80,72,-349,168,96,442,-166,-1194,-94,245,334,-593,-1964,290,313,425,291,282,684105
154,-35,-74,65,78,64,256,126,-104,38,195,140,-84,128,160,15,-9,-80,-24,150,-81,82,77,-73,203,-204,-93,21,54,-50,-434,684106
88,-30,-62,41,46,28,197,95,-33,115,162,120,143,64,96,-9,-11,-65,-37,85,-64,48,54,-63,153,-135,-77,11,16,-60,-312,684107
48,-28,-67,34,21,15,159,231,-13,39,158,95,25,12,23,-14,5,-47,-19,55,-68,46,59,-31,119,-119,-46,25,23,-34,-208,684108
-6,-26,-58,21,10,7,67,94,-50,-38,-62,85,-55,139,-28,-43,35,-11,34,23,-166,37,72,21,22,-253,18,53,64,24,-43,684109
2,-19,-45,8,18,18,26,87,8,4,-59,161,-11,136,15,-46,28,-11,20,9,-165,24,57,16,7,-239,17,47,48,9,-51,684110
-132,-45,4,1,7,9,-145,-1,77,-2,-272,-17,91,90,-36,-205,61,40,140,-152,-551,-70,83,130,-310,-816,124,106,110,81,321,684111
-706,-94,167,79,-41,-25,-798,-413,275,-65,-394,-319,207,-127,-180,-859,242,285,739,-769,-2304,-431,259,703,-1668,-3555,682,491,531,470,1495,684112
-797,-98,193,140,-16,-14,-855,-524,307,4,-386,-261,62,-233,-164,-1024,292,314,939,-847,-2823,-501,345,850,-1945,-4526,817,621,729,612,1576,684113
-700,-107,151,143,10,-5,-762,-385,272,243,-359,-173,122,-85,-71,-971,248,232,863,-750,-2715,-477,321,753,-1768,-4503,706,575,691,544,1244,684114
-137,-55,-8,123,67,44,-169,193,48,238,-23,106,73,208,142,-322,143,59,394,-81,-1156,-72,254,281,-467,-2231,247,295,400,245,28,684115
191,-42,-118,56,66,38,144,264,-2,223,40,375,-159,300,153,80,-9,-107,-70,272,22,123,93,-122,376,-373,-136,4,49,-71,-536,684116
110,-43,-106,10,40,13,27,-26,40,56,243,262,-271,271,7,33,-15,-93,-85,188,-29,69,53,-86,258,-372,-98,-13,9,-78,-361,684117
90,-29,-95,11,32,5,113,146,-34,15,353,168,-206,209,59,55,36,-20,-39,199,-17,92,98,-15,249,-340,-34,30,44,-27,-250,684118
96,-14,-96,33,28,7,308,234,-62,94,349,72,-117,221,56,68,22,-19,-47,205,47,103,87,-20,280,-226,-43,27,22,-32,-193,684119
97,11,-71,55,49,29,326,278,-26,185,-57,47,-244,110,19,57,16,-29,-45,182,70,92,79,-27,278,-171,-52,22,4,-41,-224,684120
-17,-20,-34,18,17,12,105,-91,-62,26,-173,39,-181,-15,6,-66,26,-5,39,52,-188,10,82,54,38,-555,14,71,39,5,-7,684121
-208,-55,44,4,8,34,-257,-154,-56,107,-154,-3,-50,-51,83,-287,114,107,243,-168,-834,-121,141,269,-455,-1531,236,212,209,169,420,684122
-355,-72,98,43,7,43,-446,54,133,234,-84,-193,-145,-112,-16,-490,143,139,398,-354,-1357,-235,172,396,-846,-2379,368,298,316,269,723,684123
-403,-64,85,96,13,20,-412,-214,218,56,-66,-218,0,-206,-41,-574,143,124,459,-410,-1561,-273,206,428,-957,-2767,382,314,357,291,795,684124
-118,-25,-22,94,38,24,16,-154,-35,-58,2,6,-30,-52,132,-228,98,34,235,-56,-749,-48,172,189,-270,-1603,162,179,234,157,60,684125
54,-10,-84,41,29,17,226,108,-33,-12,-24,164,-152,186,110,9,39,-23,8,151,-112,95,98,8,193,-622,-13,59,67,8,-250,684126
42,-5,-82,17,12,-5,183,230,52,89,-89,173,-57,300,71,25,21,-37,-48,135,-32,87,73,-5,218,-468,-35,31,21,-26,-208,684127
76,6,-72,2,23,-5,194,166,35,35,101,159,-94,323,-1,55,26,-30,-58,156,88,102,68,-20,279,-273,-48,16,8,-31,-230,684128
35,1,-46,-12,8,-3,137,-53,47,-74,76,127,-40,135,42,23,53,6,-18,103,8,76,82,19,196,-388,-15,43,25,-7,-129,684129
40,-4,-45,0,19,16,120,260,-10,7,87,195,33,124,88,-7,26,-15,-40,78,-14,51,65,-8,163,-397,-44,9,4,-32,-179,684130
-28,-16,-29,33,31,32,-59,45,16,-176,25,-115,11,-71,-30,-156,-15,-46,-31,-77,-307,-73,21,9,-99,-795,-24,-11,-13,-52,65,684131
-307,-49,52,77,11,5,-399,-297,79,-175,-260,-241,112,-151,-66,-491,87,80,287,-400,-1216,-253,112,318,-805,-2228,284,198,220,158,670,684132
-282,-44,41,89,-1,1,-250,-10,94,39,68,-107,-53,-129,-31,-416,131,110,373,-284,-1177,-182,165,363,-698,-2260,316,267,305,233,550,684133
-206,-21,23,84,7,16,-101,-27,131,178,267,10,-153,-84,2,-287,135,110,338,-134,-906,-80,186,319,-453,-1933,266,258,288,225,436,684134
-8,-19,-28,51,26,38,137,100,67,247,85,97,-201,-37,63,-91,62,13,115,68,-351,25,118,106,-13,-1098,70,113,139,88,-41,684135
125,-12,-56,19,45,46,283,166,-20,88,99,60,37,190,34,37,-23,-75,-85,166,50,65,34,-73,254,-433,-108,-27,-23,-56,-318,684136
95,-7,-50,6,38,44,279,41,40,13,46,35,68,125,-1,-14,-55,-93,-107,106,17,21,7,-85,193,-426,-128,-55,-66,-94,-275,684137
90,9,-53,34,38,39,249,235,-4,-46,-126,69,49,-33,28,-9,-25,-71,-96,104,29,21,10,-65,178,-408,-98,-37,-55,-71,-211,684138
69,3,-57,31,14,9,155,183,-140,-67,-68,55,73,63,37,-6,-18,-40,-74,103,2,28,-2,-33,163,-414,-66,-21,-43,-50,-144,684139
40,0,-50,22,3,-6,84,172,-10,248,-136,93,-97,-5,-19,-9,12,-18,-33,91,-33,33,31,10,123,-472,-26,9,-13,-18,-78,684140
-12,6,-42,12,-4,-5,-48,179,-2,161,-12,116,-181,-129,20,-32,36,14,25,50,-132,15,71,56,35,-629,23,57,23,29,32,684141
-137,-18,-19,-3,-22,-13,-266,12,95,4,-134,31,-68,-126,7,-169,56,46,109,-81,-453,-72,90,144,-217,-1124,118,105,82,78,293,684142
-147,-36,-10,-16,-25,-10,-281,-107,22,100,-142,103,-217,-21,78,-172,74,67,143,-69,-497,-58,92,176,-231,-1219,154,130,128,107,293,684143
-150,-47,-13,-5,-16,-15,-199,-144,-66,30,-94,86,-114,22,61,-155,102,88,182,-62,-507,-33,104,215,-243,-1280,184,153,165,150,320,684144
-46,-24,-51,26,8,-1,41,-127,33,44,31,44,162,62,107,-96,31,4,65,-3,-295,-13,50,88,-68,-975,69,59,65,53,66,684145
115,1,-61,30,41,28,241,186,-47,-75,-6,158,243,6,77,28,-56,-92,-136,115,121,46,-32,-104,237,-310,-105,-89,-87,-88,-266,684146
139,14,-46,35,41,59,210,131,13,-45,-156,96,177,-31,38,65,-38,-70,-139,138,206,65,-28,-94,280,-153,-104,-90,-97,-97,-284,684147
87,11,-61,25,24,31,145,287,-86,-13,-21,-26,5,75,12,54,-25,-53,-127,125,185,64,-11,-87,240,-159,-92,-73,-95,-89,-186,684148
100,10,-64,9,13,15,138,90,-34,92,30,2,-54,188,-4,87,-21,-44,-125,142,267,91,1,-89,286,-44,-95,-63,-92,-89,-227,684149
119,10,-58,-4,14,20,142,153,-16,112,-65,141,-135,161,64,142,10,-9,-89,188,343,124,15,-49,345,65,-66,-32,-71,-66,-136,684150
-80,3,5,0,-10,-7,-80,-64,4,-23,-220,100,-124,10,-3,-37,88,84,99,-12,-158,16,87,146,-64,-684,133,89,64,60,330,684151
-555,-22,124,69,-46,-54,-655,-389,211,33,-520,-241,84,4,-43,-580,242,268,577,-525,-1601,-285,222,604,-1177,-2927,571,401,413,391,1232,684152
-559,-44,99,80,-24,-57,-685,-275,80,-100,-557,-265,140,20,-49,-641,248,257,651,-526,-1818,-297,260,630,-1246,-3372,590,438,492,440,1035,684153
-322,-57,46,56,9,-16,-393,-273,47,-168,6,-29,213,86,-22,-385,193,174,457,-248,-1208,-142,232,431,-707,-2531,389,331,390,325,581,684154
-23,-33,-31,44,40,37,72,54,41,39,193,79,135,81,22,-75,67,26,155,64,-363,26,113,126,-31,-1242,91,141,173,114,-82,684155
130,13,-57,52,60,57,364,168,20,62,243,71,-60,30,30,55,-19,-64,-42,165,76,80,20,-58,266,-512,-82,-2,-5,-51,-289,684156
110,19,-64,61,40,37,370,292,-7,92,221,29,-9,20,72,-1,-69,-94,-113,99,51,17,-45,-103,190,-490,-125,-71,-79,-95,-344,684157
103,17,-57,56,30,27,300,273,-92,94,299,26,63,205,42,-20,-81,-104,-154,66,54,-6,-63,-122,170,-442,-144,-100,-104,-111,-313,684158
92,12,-38,36,35,36,184,79,-26,-129,-37,29,13,91,16,-23,-67,-84,-150,58,36,-1,-57,-97,132,-459,-124,-85,-112,-100,-207,684159
84,9,-29,22,47,41,156,197,-19,-1,8,9,-115,190,43,-21,-64,-89,-147,48,31,-18,-61,-89,119,-437,-116,-80,-103,-89,-153,684160
69,11,-42,13,32,22,190,303,-104,-161,29,47,-73,230,-6,-13,-78,-100,-161,44,67,-24,-77,-109,138,-357,-122,-107,-111,-102,-136,684161
53,27,-37,28,18,13,213,281,-38,-241,27,66,23,165,-14,7,-19,-49,-94,62,63,10,-31,-56,141,-377,-75,-58,-80,-55,-36,684162
77,35,-72,19,9,-6,251,133,-75,-224,150,22,-45,51,22,80,-1,-25,-105,130,190,76,-6,-57,244,-180,-73,-57,-71,-49,-149,684163
150,28,-88,-11,2,-4,210,-13,-35,-127,139,58,-156,-39,6,144,-45,-65,-198,186,410,110,-40,-148,388,179,-150,-118,-133,-103,-385,684164
106,6,-34,-25,-3,4,48,-1,-24,-8,299,93,85,106,32,68,-43,-59,-161,108,279,54,-48,-105,258,2,-116,-104,-135,-96,-145,684165
60,-7,-40,-32,-21,-16,6,-47,-124,17,37,92,-167,11,-2,28,-49,-56,-133,62,176,13,-55,-91,173,-141,-90,-95,-112,-80,-75,684166
41,15,-27,-24,9,4,9,-81,-179,15,104,62,-279,57,17,21,-15,-27,-92,55,120,25,-25,-46,123,-245,-47,-65,-68,-51,-92,684167
30,16,-14,-10,9,17,-10,-160,-149,40,-50,13,-55,126,10,26,0,-9,-66,52,76,33,-16,-5,93,-321,-28,-38,-50,-33,-16,684168
76,28,-5,26,31,43,39,65,-29,27,-47,-20,-71,94,26,22,-24,-26,-80,66,115,25,-32,-31,126,-263,-57,-51,-65,-60,-55,684169
30,19,-18,20,13,11,23,28,-67,23,95,-65,-2,199,-53,-13,-19,-25,-50,23,37,1,-12,-14,75,-374,-48,-39,-45,-54,2,684170
151,41,-50,-1,17,12,223,40,-88,28,190,144,-90,106,78,168,-16,-35,-112,204,426,118,10,-80,410,214,-118,-50,-69,-81,-244,684171
269,33,-95,-40,7,-1,341,144,-122,-31,16,187,125,282,112,320,-59,-83,-255,322,833,191,-41,-212,712,893,-233,-128,-176,-166,-403,684172
197,39,-68,-31,4,-11,239,10,-88,-34,-5,37,39,156,74,249,-39,-58,-203,234,665,149,-37,-153,550,704,-182,-115,-154,-138,-311,684173
174,41,-78,-26,-6,-10,256,-10,-96,-129,-155,67,-19,-30,27,219,-68,-72,-254,203,644,120,-82,-176,517,727,-193,-154,-191,-144,-308,684174
50,42,-38,-4,-16,-17,143,-119,-78,-122,-30,-50,89,20,-17,114,-29,-15,-147,94,351,52,-56,-68,268,303,-86,-86,-116,-72,-63,684175
-60,41,4,16,-20,-19,48,129,-15,70,-22,-63,82,22,36,22,41,70,42,7,37,28,37,82,47,-197,76,39,20,55,115,684176
-33,38,15,18,-18,-10,48,327,-68,-36,171,-4,-24,-41,79,37,32,63,48,25,48,29,35,65,68,-192,58,47,33,63,107,684177
-40,5,0,-10,-21,-20,-16,-56,3,17,133,-29,33,55,-9,3,-1,14,13,2,26,-7,2,23,28,-242,11,18,-1,26,64,684178
-37,-13,-2,-30,-18,-7,-86,-9,18,-148,1,1,-135,-30,22,12,-6,4,-1,7,33,-6,-13,7,31,-223,-9,6,-16,9,-5,684179
-24,-10,-3,-35,-20,-3,-66,-110,-56,-88,85,-125,-162,-148,49,13,-14,-11,-32,4,49,-3,-22,-13,30,-194,-31,-22,-33,-2,-13,684180
-20,6,-15,-24,-17,-13,23,-21,22,88,85,6,-26,-170,110,7,-19,-33,-52,3,87,-3,-24,-38,50,-127,-50,-47,-54,-30,-6,684181
10,20,-24,-11,-12,-19,110,19,-42,-22,-185,25,-45,61,109,45,-14,-8,-41,45,173,41,-3,-28,105,-5,-45,-45,-46,-27,1,684182
18,36,-24,1,-14,-17,95,-220,-115,-185,-282,-37,-31,-11,-26,42,-10,-1,-30,33,124,35,-7,-4,71,-76,-25,-22,-21,0,9,684183
13,19,-39,-27,-22,-33,35,-22,-76,-89,-129,16,-4,80,-64,71,-15,-5,-58,66,179,44,-17,-36,113,29,-47,-31,-33,-25,-93,684184
-9,-1,-3,-46,-15,-7,-56,140,-8,4,-16,60,-173,17,-33,84,4,13,-36,71,183,43,-5,-21,108,29,-27,-8,-33,-14,-131,684185
17,0,-1,-29,-6,2,-44,69,-19,-39,89,-12,-224,-138,35,55,-34,-25,-63,40,182,19,-40,-55,92,44,-67,-55,-67,-49,-67,684186
66,23,8,-11,15,16,-4,-11,-31,42,-37,-82,-163,51,42,23,-49,-38,-55,13,139,-3,-56,-51,66,2,-70,-65,-77,-55,-104,684187
53,7,5,-21,7,24,-21,-158,-39,140,-168,43,-87,-72,9,-18,-75,-58,-62,-26,62,-38,-84,-54,14,-91,-74,-72,-93,-70,-100,684188
25,13,11,-6,17,23,-30,-108,40,37,54,62,-91,-228,27,-28,-57,-43,-47,-37,7,-42,-64,-22,-7,-181,-47,-55,-69,-44,-5,684189
50,23,6,18,27,19,-5,-27,-29,15,-58,-93,-92,-279,24,-4,-39,-36,-53,-3,48,-15,-51,-31,41,-121,-43,-55,-48,-43,-5,684190
101,17,-11,4,16,18,69,70,44,26,59,28,-12,-85,46,73,-45,-42,-101,77,228,31,-54,-72,191,138,-89,-68,-68,-68,-154,684191
178,20,-28,-23,11,25,160,196,-1,118,65,87,-174,-124,25,194,-64,-65,-181,180,516,93,-64,-148,412,590,-161,-118,-124,-115,-283,684192
194,22,-20,-33,14,25,153,137,50,109,140,47,-165,-111,42,189,-90,-84,-230,158,571,93,-97,-184,422,721,-197,-153,-175,-149,-325,684193
144,33,-9,-17,20,21,123,-31,-79,27,-101,-36,-74,32,1,117,-94,-79,-207,88,442,44,-114,-175,295,561,-179,-151,-167,-146,-198,684194
13,11,2,-16,-8,-8,-1,-154,-146,-73,154,11,-67,-132,-27,-31,-86,-64,-142,-53,113,-58,-116,-97,13,76,-104,-125,-126,-100,-27,684195
-30,10,2,-2,-13,-19,-26,-4,-65,-85,193,-15,-33,-190,-25,-50,-39,-16,-50,-72,-20,-44,-70,-10,-62,-149,-17,-39,-40,-20,89,684196
14,22,-1,4,-1,-13,37,50,-93,-92,56,26,59,-121,-15,23,2,18,-9,8,107,33,-12,1,52,-5,0,7,1,10,49,684197
25,19,7,-10,1,7,1,-249,-54,36,47,73,-37,-142,4,43,0,16,0,31,136,41,-13,0,71,28,10,5,6,3,61,684198
3,11,13,-36,3,14,-99,-85,-9,-117,-267,69,-83,-15,23,22,-11,1,-27,7,103,8,-15,-27,29,-18,-23,-18,-15,-22,43,684199
19,-11,21,-47,5,24,-123,75,-59,-208,8,35,45,133,-36,-15,-41,-22,-53,-22,72,-19,-44,-67,2,-49,-60,-52,-52,-58,-16,684200
14,-3,34,-15,22,33,-72,80,-1,-52,92,52,9,238,-55,-39,-36,-19,-31,-52,-4,-29,-42,-34,-57,-171,-26,-32,-21,-28,22,684201
-46,2,23,21,-7,-5,-50,-30,-28,-80,98,-30,107,102,-62,-93,-24,-6,26,-99,-158,-59,-24,22,-190,-429,13,-4,10,9,65,684202
28,12,-23,28,-8,-24,56,73,22,-168,155,-29,90,-80,-51,-8,-42,-41,-38,-17,46,-19,-35,-47,2,-102,-61,-46,-36,-36,-106,684203
130,24,-24,9,12,7,92,-28,42,-52,176,-37,-43,-32,5,86,-55,-54,-113,77,283,39,-42,-129,190,292,-112,-85,-94,-89,-272,684204
73,4,-16,-30,-6,-5,-49,-74,44,105,79,-43,-58,0,-60,46,-30,-16,-81,25,170,7,-21,-73,80,152,-64,-62,-59,-56,-97,684205
-19,-5,14,-34,-15,-9,-150,1,-12,25,-64,-51,-10,-114,-10,-27,7,25,15,-47,-77,-40,10,21,-93,-191,27,3,13,33,96,684206
-28,-15,14,-27,-13,7,-124,-12,1,-5,-29,-30,-87,-226,-15,-47,-31,-3,-16,-59,-102,-72,-37,-22,-105,-217,-2,-17,-6,7,74,684207
-28,-17,14,-13,-3,5,-107,-37,-4,-35,109,-32,-44,-238,-41,-49,-29,-11,4,-62,-124,-67,-41,-15,-102,-254,6,0,12,23,51,684208
-2,-14,-6,-9,-7,-15,-58,68,-34,146,13,87,-46,-117,-22,5,-17,-10,-3,-2,-29,-32,-22,-28,-10,-98,-3,-7,9,25,3,684209
-3,-1,-12,0,-16,-32,-51,-98,17,-19,-42,107,108,-37,8,33,0,15,9,27,0,3,3,9,28,-53,22,18,33,50,15,684210
-48,-5,-1,-16,-32,-38,-105,17,-12,-119,93,52,75,134,74,-6,25,50,63,-13,-108,-5,13,52,-62,-238,73,57,66,94,67,684211
124,12,-41,-51,-10,-16,85,317,-1,-133,328,173,-49,283,61,178,-37,-24,-120,187,424,107,-34,-126,358,543,-105,-66,-51,-37,-386,684212
193,8,-54,-69,5,6,166,325,40,1,158,227,-58,263,76,267,-57,-47,-208,243,681,153,-63,-201,527,958,-171,-116,-131,-99,-420,684213
114,-2,-38,-52,-6,-14,116,122,-24,26,-245,133,-21,87,67,158,-49,-41,-154,114,441,84,-62,-143,296,633,-109,-98,-112,-81,-229,684214
31,12,-10,-5,-5,-30,44,-23,-5,-84,-48,91,-105,20,-15,46,-38,-14,-78,4,177,17,-37,-76,68,236,-51,-63,-64,-52,-28,684215
13,1,-19,-7,-16,-37,-25,-134,77,-147,60,-22,-83,43,-54,28,-26,4,-58,4,137,28,-17,-58,55,157,-38,-45,-43,-36,27,684216
5,-2,0,-7,-13,-31,-67,-224,24,-101,84,-45,-97,15,-76,78,39,61,18,58,165,91,43,6,90,137,34,30,24,25,75,684217
-18,-19,-12,-18,-31,-41,-68,-216,44,-104,-17,-29,-106,199,-74,62,36,52,29,51,124,75,37,10,58,72,35,29,29,19,43,684218
2,-1,-8,-4,-15,-30,-3,-142,57,122,14,-24,8,-70,-69,63,24,32,12,47,144,74,29,-10,74,104,15,11,25,-3,-16,684219
13,7,3,8,4,-23,23,-33,-46,79,79,66,213,-38,48,62,27,38,19,39,129,71,24,-1,68,67,21,18,33,6,29,684220
49,-11,-16,-8,-1,-20,69,6,48,-12,11,54,140,107,2,63,-15,-10,-38,62,201,61,-23,-66,126,202,-34,-39,-19,-39,-113,684221
84,-5,0,-3,21,0,112,-70,58,254,200,-47,93,-135,-31,81,-19,-15,-54,76,252,66,-29,-87,160,297,-61,-41,-39,-54,-153,684222
86,1,6,2,30,15,116,228,33,144,85,20,53,-51,5,68,-32,-29,-65,67,272,55,-18,-109,161,338,-86,-55,-60,-65,-192,684223
183,22,-28,-7,29,20,212,112,-9,69,146,70,41,56,-8,172,-86,-84,-195,157,531,88,-73,-214,370,790,-188,-144,-142,-139,-408,684224
59,9,-5,-25,-6,-6,19,-205,-84,-60,-60,-11,-45,-90,-68,64,-53,-23,-115,28,234,16,-58,-109,113,415,-77,-72,-81,-69,-92,684225
-108,2,39,0,-30,-18,-174,-173,-15,-38,-268,-76,-53,-73,-99,-78,59,89,114,-119,-249,-46,41,108,-234,-346,126,93,95,96,256,684226
-107,-6,35,6,-23,-19,-122,42,-93,-35,17,-10,-60,-94,1,-43,45,68,100,-90,-232,-32,52,85,-176,-307,107,91,102,97,219,684227
-53,-14,26,-11,-25,-11,-93,94,-3,-87,54,7,82,-14,71,-19,26,38,52,-53,-134,-32,28,35,-84,-152,61,45,65,72,100,684228
-10,-12,25,-9,-14,1,-121,148,-27,-51,-24,27,165,-104,83,12,30,31,33,-19,-46,-10,22,14,-11,-25,41,24,56,61,11,684229
-17,-8,23,-21,-8,-3,-182,-76,-43,-77,146,-18,111,-184,53,-13,-22,-4,-32,-48,-61,-44,-22,-29,-38,-13,-7,-14,-4,27,-85,684230
70,-16,-16,-42,-1,-2,-98,132,-38,-14,85,5,89,-27,-8,67,-46,-43,-103,48,192,16,-50,-110,155,363,-88,-74,-69,-32,-264,684231
138,-24,-13,-41,13,19,95,230,74,136,199,25,114,-254,5,157,-34,-45,-141,132,410,88,-34,-143,306,685,-117,-94,-96,-63,-330,684232
149,-5,-18,-4,8,22,292,100,-26,161,278,91,-70,-153,24,162,-66,-55,-172,130,454,77,-70,-176,312,760,-147,-119,-120,-93,-209,684233
84,9,-21,9,-10,4,240,53,-10,28,280,3,-262,-81,33,104,-74,-58,-146,69,349,46,-78,-163,202,591,-134,-119,-121,-105,-192,684234
36,2,-9,-11,-16,-17,69,70,28,19,-7,-26,-110,-54,62,66,-12,0,-52,43,220,54,-16,-77,96,360,-48,-42,-52,-44,-113,684235
27,-12,-11,-30,-19,-18,-11,29,-82,-53,-131,15,20,119,-9,73,-4,11,-54,53,206,50,-13,-61,100,328,-29,-33,-36,-34,-117,684236
16,-16,-10,-43,-7,-8,-40,-52,-69,108,-227,55,50,116,-6,59,-7,1,-48,49,188,54,-16,-57,84,285,-21,-39,-29,-44,-22,684237
-2,1,11,-15,-1,7,-38,-72,25,-7,-101,-42,69,-92,61,34,20,22,1,38,118,51,5,-32,42,164,12,-4,-4,-15,15,684238
17,-1,-2,9,0,-8,6,157,54,89,83,-29,34,2,17,36,33,31,11,42,111,50,16,-19,41,130,20,17,18,4,76,684239
4,-3,-25,8,-20,-33,1,160,45,135,-44,56,57,-37,29,37,42,48,38,39,88,57,21,9,28,86,46,34,35,13,72,684240
-4,-2,6,20,-10,-14,-45,-51,90,3,80,-15,-24,-133,29,33,69,77,88,30,24,61,52,49,-2,-34,81,70,85,43,56,684241
62,-17,-3,-6,3,14,11,-44,101,33,81,-7,-53,-120,-44,77,8,-3,-20,78,198,62,0,-60,139,259,-26,-14,15,-41,-186,684242
142,-28,-33,-45,11,21,123,-19,5,147,218,90,24,74,52,171,-75,-85,-181,164,499,88,-74,-211,368,773,-170,-128,-101,-147,-398,684243
292,6,-57,-52,25,24,336,159,-79,112,181,114,-103,201,88,342,-103,-131,-326,307,950,181,-117,-327,716,1505,-291,-212,-211,-232,-562,684244
92,11,-11,-30,-7,-17,118,126,93,-81,46,61,-19,168,-48,136,-62,-45,-166,76,449,50,-85,-160,275,817,-129,-107,-121,-125,-71,684245
-80,15,41,13,-2,-24,-93,-115,147,48,77,-113,281,110,-99,-36,48,73,79,-96,-106,-42,11,71,-132,-35,94,56,66,73,250,684246
-58,-9,6,-1,-15,-25,-10,-264,46,2,-26,-98,169,-56,-64,9,37,39,38,-37,-12,-17,17,16,-26,128,47,33,51,61,121,684247
-73,-22,14,-12,-15,-16,-5,-123,115,-75,-99,-77,85,12,-25,-32,17,36,29,-75,-81,-45,6,12,-80,60,50,32,55,58,64,684248
-106,-33,14,-25,-28,-23,-16,-161,-24,9,37,-47,6,-44,-98,-65,1,21,27,-115,-174,-77,-22,12,-160,-77,55,22,43,58,123,684249
-83,-39,12,-21,-21,-17,30,-79,-47,0,-50,3,-132,-166,-94,-57,-24,-9,4,-111,-158,-80,-46,-22,-139,-52,18,-7,12,42,16,684250
19,-34,-6,-10,11,12,110,-8,-82,58,-170,42,-27,-253,-96,-7,-68,-71,-92,-46,42,-47,-94,-118,5,254,-82,-95,-57,-29,-177,684251
104,-2,-10,-6,24,26,172,35,-171,-68,-49,-11,12,-307,-34,73,-77,-75,-149,38,264,7,-107,-165,155,565,-129,-118,-104,-85,-227,684252
149,23,-17,0,29,28,156,78,-142,-130,-170,13,47,24,49,159,-40,-45,-144,133,439,82,-61,-153,285,788,-103,-91,-98,-64,-308,684253
271,23,-47,-34,34,36,239,204,-84,-35,299,46,49,155,80,338,-60,-79,-262,301,876,188,-71,-269,615,1471,-220,-167,-174,-156,-526,684254
81,-2,3,-53,3,16,-17,-35,71,52,-17,18,38,-31,27,145,-6,6,-102,100,423,83,-42,-105,216,790,-40,-58,-83,-52,-22,684255
-82,-3,55,-36,-21,2,-210,-379,122,-70,-179,56,44,-132,2,-15,58,82,86,-42,-19,-2,16,59,-123,63,111,55,52,69,203,684256
-109,-23,25,-37,-28,-26,-252,-325,78,86,-139,7,69,19,-20,-43,35,54,79,-55,-82,-21,-3,40,-145,-49,83,35,41,37,197,684257
-86,-9,22,-23,-13,-24,-253,40,6,-5,-52,32,-67,7,56,-10,41,53,84,-19,-38,9,2,52,-91,5,92,45,58,48,165,684258
-59,-8,30,-18,-2,4,-218,-158,-55,65,-71,67,60,170,-54,2,54,58,87,5,-7,32,19,58,-50,21,94,46,73,56,109,684259
-50,-15,37,-19,5,8,-166,-96,134,-3,-143,85,97,135,-61,7,57,66,84,19,0,39,35,43,-32,10,84,58,67,53,1,684260
-16,-13,8,-22,-7,1,-63,-115,-8,-10,-167,-93,71,-4,-72,4,8,22,6,8,31,18,-13,-24,2,70,13,1,7,-16,-42,684261
100,1,-27,-31,6,4,77,-78,-17,63,1,-14,30,-28,-47,86,-63,-69,-131,74,290,39,-78,-163,203,512,-120,-107,-98,-118,-220,684262
283,14,-70,-28,30,10,306,-125,-43,136,235,149,-30,-96,38,304,-97,-120,-280,285,852,166,-110,-302,632,1398,-265,-195,-203,-212,-579,684263
334,19,-82,-46,16,6,403,255,-80,6,175,210,1,-36,40,369,-130,-147,-378,324,1089,192,-164,-364,777,1843,-319,-257,-290,-264,-559,684264
97,30,-7,-1,-4,-19,165,-9,-15,-73,-84,54,172,-27,-25,105,-77,-55,-182,37,414,17,-122,-155,220,893,-103,-131,-157,-128,-110,684265
-26,25,26,15,-10,-24,27,-196,38,85,23,74,179,188,-49,-1,6,22,6,-60,26,-34,-24,16,-47,287,48,3,-4,8,-17,684266
-13,-6,1,-11,-19,-35,8,-28,65,47,101,31,180,114,-52,61,43,51,48,3,92,14,37,43,33,368,57,37,46,55,95,684267
-8,17,6,4,-9,-38,15,-88,45,-1,91,-19,147,-49,2,77,55,63,29,29,115,30,49,36,45,405,59,41,53,67,103,684268
39,30,11,16,15,-4,103,190,-63,47,-128,-114,79,62,23,81,12,17,-46,34,164,22,-7,-33,77,500,-7,-19,-13,17,3,684269
58,29,4,1,9,5,208,232,-36,14,-84,-121,22,117,-47,105,5,-3,-72,59,252,32,-13,-71,148,643,-38,-36,-44,-7,-85,684270
-29,29,29,17,-7,-17,125,-60,39,55,-17,-148,-59,-71,-31,2,36,45,17,-56,-18,-28,7,23,-89,250,58,19,4,51,147,684271
-76,30,34,39,5,-16,2,-173,-82,18,-6,-126,-59,-104,8,-78,36,40,80,-123,-221,-59,-3,71,-232,-79,96,45,43,82,195,684272
-142,-10,42,4,-8,-21,-203,-116,-80,-17,-51,-148,115,-10,-75,-158,23,32,113,-181,-387,-112,-1,94,-362,-375,121,61,64,83,305,684273
-103,-13,35,7,5,2,-195,-69,87,35,63,-96,186,-9,-110,-94,51,53,132,-109,-291,-52,30,97,-259,-305,126,86,91,92,217,684274
-31,-3,12,5,2,2,-70,-86,19,-17,-55,-143,148,-29,-37,-10,38,38,70,-20,-79,9,28,34,-79,-14,54,46,46,41,118,684275
2,4,9,6,5,-1,8,30,20,25,19,-138,33,-91,-7,-2,16,9,18,-7,-11,6,8,-8,-49,81,6,-2,1,7,42,684276
2,3,14,8,8,12,43,103,50,-39,-59,57,-50,-63,13,-18,-11,-17,-4,-33,-16,-12,-25,-31,-61,86,-15,-28,-22,-22,-4,684277
42,2,13,9,18,26,74,321,-21,53,-16,46,172,46,-2,-34,-49,-53,-41,-53,13,-30,-52,-80,-38,136,-73,-59,-64,-66,-85,684278
66,12,28,25,23,31,125,136,-50,138,178,-52,150,-95,51,-40,-62,-61,-46,-62,13,-35,-68,-86,-31,154,-72,-79,-70,-73,-144,684279
54,23,5,19,8,15,132,-129,-13,-82,25,-113,18,-158,9,1,-43,-47,-50,-20,77,-3,-60,-70,29,265,-55,-80,-62,-58,-59,684280
30,11,-2,-6,-3,2,68,-85,20,-110,-83,-23,-7,-207,-3,44,-22,-23,-30,21,124,26,-32,-47,71,331,-43,-33,-43,-28,2,684281
-40,-3,10,-19,-6,-12,-19,-33,-14,-116,-18,54,-53,-131,6,7,2,17,15,-30,5,5,-13,9,-14,174,17,15,-4,10,109,684282
-191,-12,57,0,-18,-12,-211,-281,84,-58,-395,-40,14,-42,-54,-179,39,72,154,-205,-456,-94,12,143,-381,-557,148,93,99,95,424,684283
-266,-31,67,27,-12,-26,-308,-183,95,-104,-271,-103,86,45,-68,-278,59,86,235,-287,-739,-157,38,217,-573,-1044,212,138,161,152,550,684284
-51,4,30,41,28,16,-37,169,-40,25,25,-83,-48,122,86,-57,38,39,119,-40,-235,-10,38,85,-125,-333,80,74,97,88,79,684285
63,11,-14,22,24,9,120,100,2,64,303,20,-123,227,50,72,-12,-9,-20,95,134,59,-6,-43,156,259,-38,-6,-3,-13,-142,684286
89,15,-31,6,7,-5,130,19,-35,-14,143,81,-52,227,69,103,-10,-22,-46,113,223,60,-24,-71,199,430,-66,-37,-36,-43,-200,684287
61,22,-21,-1,7,-9,92,109,-28,-44,68,85,-138,154,53,94,13,8,-3,98,182,57,9,-23,149,383,-23,-11,-16,-14,-66,684288
20,16,6,5,6,-3,52,-143,-32,-124,66,3,-70,98,-5,45,19,30,46,52,46,31,27,24,32,195,30,28,12,21,6,684289
-48,-2,-4,-8,1,-15,18,-47,3,23,-73,-96,-164,83,-12,-31,17,30,72,-18,-104,-16,17,39,-91,-43,58,36,20,27,86,684290
-74,-10,-1,5,6,-13,32,-110,-6,147,-115,-96,-168,156,-50,-37,16,27,73,-23,-156,-27,16,36,-122,-142,55,40,40,27,84,684291
-142,1,29,32,3,-10,-62,-290,-43,48,-450,-48,-108,107,-67,-116,51,66,154,-100,-359,-69,38,112,-284,-497,128,93,94,87,260,684292
-212,-1,50,44,-3,-18,-238,-306,10,-191,-622,-119,99,-51,-65,-238,58,74,209,-214,-647,-135,51,166,-503,-973,171,122,130,110,408,684293
-272,-13,99,68,14,-4,-378,-278,123,-55,-324,-233,105,-198,-86,-357,83,88,300,-321,-949,-196,80,244,-722,-1484,241,173,199,166,533,684294
-97,-11,60,42,25,26,-183,-104,80,35,-133,-109,28,96,-19,-184,49,32,195,-143,-537,-80,59,133,-341,-907,120,106,138,107,165,684295
70,0,19,21,45,44,41,268,55,203,103,93,-38,70,91,4,3,-19,35,28,-45,35,2,-4,28,-154,-12,19,41,12,-81,684296
62,2,23,22,37,45,53,73,16,35,52,44,63,22,66,-10,-12,-18,0,-5,-45,5,-16,-17,2,-107,-8,-2,7,-3,-89,684297
28,-3,16,14,32,31,39,-110,13,-205,-27,-2,-10,-231,-5,-55,-28,-32,-18,-60,-97,-33,-22,-35,-51,-164,-50,-28,-20,-28,-64,684298
1,5,-5,14,20,4,38,-28,63,-225,50,0,-107,-63,17,-50,-15,-13,7,-51,-109,-25,7,-4,-49,-195,-25,2,-1,-3,11,684299
2,1,-14,13,9,-3,31,-104,-37,-176,58,-6,-183,151,-24,-39,-10,-14,23,-37,-79,-12,10,-1,-26,-133,-12,-1,-1,0,52,684300
-34,18,38,25,23,9,-56,-199,5,195,72,46,30,27,11,-65,37,33,79,-67,-182,-14,46,66,-118,-305,50,47,52,56,159,684301
-117,20,49,38,18,8,-158,63,51,-29,-58,43,-43,70,15,-135,62,67,156,-136,-415,-62,72,148,-286,-690,134,106,107,122,289,684302
-285,-10,81,53,-9,-13,-363,14,80,-107,-258,-174,9,-65,-34,-322,112,127,311,-315,-917,-174,110,301,-666,-1488,295,208,222,226,707,684303
-547,-45,149,83,-19,-16,-684,-364,85,77,-345,-238,138,-162,-43,-622,228,257,658,-564,-1754,-309,229,599,-1281,-2877,585,442,479,448,1209,684304
-222,-43,31,66,21,15,-250,-13,-58,127,-49,-111,-88,-40,-31,-267,136,108,407,-157,-913,-78,171,313,-522,-1714,292,278,343,275,356,684305
118,-26,-75,-7,36,23,173,232,-144,37,81,76,-139,73,-24,92,-32,-76,-55,181,146,88,9,-98,261,-61,-115,-17,-3,-49,-326,684306
91,-3,-39,4,35,28,95,230,-8,-84,17,126,54,160,34,43,-20,-50,-52,119,87,43,1,-72,148,-133,-81,-14,-29,-63,-194,684307
87,17,-23,32,49,38,73,70,-66,151,72,86,-50,103,44,42,-2,-30,-23,121,63,37,19,-41,115,-175,-50,2,-16,-45,-139,684308
31,-7,-12,30,37,20,22,63,-1,61,109,40,-95,88,-11,-37,-28,-40,-30,40,-75,-10,7,-41,-6,-352,-52,-14,-29,-58,-108,684309
43,7,6,50,44,40,64,26,29,82,-8,93,-8,45,45,-35,-11,-32,-25,46,-53,6,6,-31,3,-317,-39,-22,-16,-55,-74,684310
-19,5,33,42,30,42,-15,-76,29,139,7,-22,-66,8,21,-95,-5,-5,36,-31,-228,-38,26,30,-144,-593,28,29,33,-15,80,684311
-484,-45,135,65,-23,-12,-617,-305,110,87,-132,-240,2,34,-144,-599,118,165,468,-538,-1545,-321,146,446,-1176,-2620,430,300,313,273,1097,684312
-677,-60,179,93,-27,-29,-856,-516,318,144,-151,-187,-67,-138,-197,-816,237,262,772,-708,-2244,-413,267,700,-1618,-3822,663,507,557,488,1313,684313
-613,-65,144,94,-12,-20,-726,-279,273,7,-411,-131,40,-21,-61,-742,263,267,786,-612,-2169,-345,312,705,-1477,-3860,659,539,611,524,1197,684314
-236,-61,16,80,32,4,-243,36,23,12,-142,-10,98,117,-16,-350,124,83,414,-206,-1155,-126,195,327,-607,-2353,281,297,370,278,312,684315
117,-34,-80,40,53,35,179,271,-104,56,180,178,117,40,1,18,-19,-93,-3,125,-88,61,68,-68,190,-664,-101,31,56,-20,-339,684316
107,-16,-51,39,43,41,159,262,-45,-124,97,103,20,93,15,3,-11,-61,-26,78,-71,35,57,-49,145,-583,-75,17,9,-33,-257,684317
98,-1,-37,39,53,41,182,2,-32,104,153,109,-51,108,-48,16,-17,-46,-48,74,-33,36,46,-42,152,-497,-62,2,-3,-24,-189,684318
79,-5,-52,11,26,15,186,-26,-17,123,165,61,-42,47,52,18,-65,-90,-96,55,26,21,-1,-91,169,-344,-102,-49,-54,-66,-223,684319
70,-3,-44,9,23,10,145,144,-83,102,253,61,-225,85,36,11,-57,-82,-89,39,40,14,-1,-87,157,-301,-99,-45,-60,-56,-186,684320
27,-4,-40,5,6,-5,49,207,-66,82,288,85,-188,187,17,-18,-27,-26,-48,14,-41,10,13,-28,78,-420,-37,-3,-30,-4,-43,684321
-294,-11,72,48,-11,-16,-359,52,140,167,-94,-62,70,52,36,-335,124,158,311,-291,-958,-147,139,335,-634,-1855,324,248,227,247,686,684322
-534,-32,161,99,-15,-15,-632,-72,280,180,-544,-196,242,-142,-105,-625,239,268,630,-557,-1794,-298,259,610,-1244,-3257,583,445,459,456,1140,684323
-648,-65,157,119,-15,-2,-743,-291,217,215,-518,-204,412,-387,-103,-783,261,280,758,-658,-2242,-381,306,700,-1526,-4061,661,519,576,518,1209,684324
-190,-41,38,95,52,61,-173,-80,77,45,-91,32,227,-150,64,-318,148,94,386,-134,-1049,-88,219,302,-510,-2381,265,271,345,257,120,684325
160,-19,-61,38,59,76,253,192,-22,-71,-32,203,-39,30,232,72,-23,-92,-72,227,105,115,53,-123,338,-585,-144,-17,-12,-69,-460,684326
107,-13,-45,35,49,49,181,90,1,-28,-11,147,5,-44,129,26,-47,-80,-112,164,76,86,9,-113,246,-587,-129,-44,-61,-95,-331,684327
99,6,-37,39,48,43,154,88,26,63,30,52,-68,22,28,44,-27,-61,-116,173,104,94,13,-104,230,-536,-106,-57,-63,-87,-221,684328
123,2,-44,28,37,31,139,-3,58,-35,70,48,11,172,103,90,8,-41,-86,214,221,129,48,-89,297,-377,-97,-33,-45,-84,-208,684329
155,4,-47,23,37,27,128,82,28,-52,265,156,181,190,110,126,25,-21,-72,241,300,148,55,-74,341,-241,-83,-19,-43,-77,-159,684330
11,1,-17,13,18,11,-38,86,112,-121,35,178,153,100,100,-2,51,30,35,94,-39,55,75,44,51,-710,33,58,22,-16,127,684331
-427,-44,90,46,-33,-20,-534,-389,322,-73,-226,-47,18,78,42,-481,168,192,443,-381,-1304,-226,195,439,-911,-2615,405,323,309,265,982,684332
-503,-45,122,100,-11,1,-565,-426,345,92,-55,-86,-1,-6,59,-586,232,247,619,-455,-1699,-257,278,576,-1140,-3317,523,429,468,403,1127,684333
-435,-51,76,96,-1,3,-449,-344,124,113,-303,-11,0,0,-18,-547,214,212,583,-399,-1630,-226,269,521,-1025,-3290,475,413,464,383,888,684334
-118,-33,-36,78,26,3,-46,221,-34,73,13,151,-105,159,-37,-198,104,60,273,-54,-740,-29,164,211,-286,-1974,170,216,264,187,22,684335
197,0,-110,41,58,25,327,366,-230,-3,-123,132,-182,128,113,139,-24,-92,-103,252,242,141,33,-126,436,-431,-155,-31,-13,-67,-539,684336
189,15,-76,28,55,37,305,377,-117,17,-26,63,-125,29,59,138,-26,-72,-138,203,283,113,20,-121,413,-303,-147,-53,-65,-79,-416,684337
137,7,-60,11,37,33,245,293,-2,41,-65,66,44,-22,35,87,-11,-49,-109,144,187,89,25,-83,308,-384,-97,-32,-64,-56,-278,684338
93,3,-46,15,22,27,197,92,9,22,-26,105,-51,-45,3,62,5,-13,-75,104,107,65,38,-41,240,-471,-59,-2,-43,-22,-181,684339
42,1,-45,13,14,8,122,-16,7,145,11,53,-58,-43,51,37,26,13,-28,60,-5,40,56,9,141,-621,-11,23,-4,11,-36,684340
3,-4,-39,17,10,8,44,72,-44,66,-156,10,-27,193,62,2,26,13,13,37,-68,14,48,34,76,-724,18,36,12,36,-6,684341
-127,-20,-9,23,-13,-5,-121,-87,-23,11,-160,-50,-120,363,-28,-148,53,52,118,-90,-415,-72,59,132,-198,-1265,126,106,87,94,238,684342
-183,-16,29,35,-3,2,-186,-1,-47,-97,107,4,-112,299,9,-222,93,89,200,-146,-642,-98,98,213,-362,-1658,203,166,156,149,325,684343
-212,-21,42,45,1,1,-210,-152,51,24,0,-105,-159,-26,34,-271,99,95,253,-179,-780,-119,111,240,-450,-1907,210,190,192,174,286,684344
-51,-12,-1,35,31,24,-32,-73,58,85,-12,-19,-83,143,61,-114,69,31,133,-11,-368,-19,93,106,-106,-1333,77,108,120,94,115,684345
102,-6,-44,12,34,43,139,80,-44,-75,50,46,-109,10,123,48,-9,-50,-72,151,111,65,16,-80,232,-591,-93,-29,-29,-49,-166,684346
86,13,-33,33,42,41,151,118,-47,-158,144,34,-20,70,117,39,-28,-53,-109,142,148,65,-12,-87,227,-515,-103,-60,-61,-85,-207,684347
78,-7,-43,2,20,29,140,-22,-124,-186,155,31,-90,-4,95,54,-37,-69,-112,162,212,78,-22,-99,269,-409,-118,-68,-81,-110,-222,684348
60,-5,-48,-25,-3,11,1,16,-2,16,83,99,-77,-35,67,71,-13,-28,-82,172,227,88,-8,-62,270,-381,-76,-34,-50,-81,-136,684349
44,-5,-29,-37,-6,7,-165,-114,63,-2,20,110,-86,-7,68,42,4,2,-31,138,123,68,0,-17,177,-527,-29,-5,-15,-38,-51,684350
10,-21,-13,-52,-14,13,-278,21,-72,-233,-63,74,28,25,41,-15,0,2,-5,63,1,20,-2,5,71,-698,-1,4,-14,-23,88,684351
-302,-42,87,-7,-30,11,-530,-122,160,18,-244,-124,254,-19,2,-366,112,134,314,-300,-955,-185,105,323,-679,-2171,314,216,227,203,719,684352
-417,-48,109,59,-24,2,-402,-117,94,81,-227,-144,359,-142,-4,-526,156,168,468,-434,-1427,-261,161,452,-987,-2964,427,312,363,305,788,684353
-337,-53,58,63,-18,-1,-228,-103,-57,17,-107,-111,-91,11,-10,-460,125,116,384,-336,-1273,-215,139,379,-797,-2772,334,277,331,262,515,684354
-87,-13,-7,61,21,42,55,176,-2,42,168,74,-235,109,41,-159,85,48,199,-44,-573,-27,115,173,-205,-1754,144,171,212,144,85,684355
115,-3,-70,25,30,53,259,184,-38,21,19,209,-197,247,44,88,-19,-61,-66,170,137,94,28,-86,328,-630,-101,-4,-1,-52,-357,684356
108,-22,-79,16,16,26,178,98,-129,31,-106,86,-166,94,53,66,-30,-79,-108,131,161,69,-1,-100,293,-532,-124,-43,-56,-83,-314,684357
79,3,-57,23,8,8,154,109,21,116,-84,44,-199,164,127,73,15,-19,-44,125,133,85,31,-30,249,-562,-44,3,-4,-20,-153,684358
46,-6,-53,-4,0,-7,140,83,-16,-53,-98,101,-112,177,25,58,11,-21,-36,107,123,72,8,-20,223,-574,-31,4,-7,-17,-146,684359
54,-8,-40,0,17,14,129,113,-70,56,-46,40,12,-6,8,32,-23,-40,-91,80,98,36,-20,-53,178,-587,-67,-29,-44,-44,-199,684360
32,-3,-34,5,17,17,98,116,-72,-127,-96,-32,-99,76,20,-16,-21,-39,-67,25,7,-3,-8,-33,92,-709,-52,-36,-51,-49,-123,684361
-24,-14,-14,9,5,18,-5,-5,-23,-148,-45,-135,5,-148,42,-107,-13,-23,-9,-49,-186,-46,3,8,-75,-1003,-8,-3,-15,-28,21,684362
-80,-29,3,31,9,17,-111,76,-85,14,126,-120,-1,-228,76,-190,-5,-10,50,-121,-421,-96,5,58,-243,-1363,47,26,38,21,127,684363
-51,-12,15,41,13,17,-38,86,44,-180,20,-48,-2,-20,57,-148,31,20,72,-85,-377,-61,49,95,-199,-1337,71,53,71,53,83,684364
-41,-19,-6,40,-6,-4,46,2,59,-109,30,70,59,51,20,-86,61,27,62,-23,-253,-9,89,75,-107,-1186,51,57,63,44,15,684365
80,-4,-37,22,13,25,195,116,12,25,110,97,107,-93,3,65,21,-24,-74,132,149,77,40,-69,206,-584,-68,-44,-38,-60,-206,684366
80,-13,-33,0,14,26,149,144,-24,250,106,24,-114,-87,-56,50,-17,-40,-84,111,137,54,6,-72,183,-568,-79,-47,-63,-70,-187,684367
84,-3,-41,4,10,19,115,148,-51,147,42,-11,-28,51,-74,33,-37,-47,-87,94,116,34,-30,-71,168,-568,-77,-50,-73,-82,-187,684368
52,6,-30,4,-2,10,72,6,-82,85,-103,36,104,18,-15,22,-8,-21,-54,77,98,22,-23,-44,130,-623,-53,-18,-46,-54,-37,684369
51,8,-38,10,-16,-4,76,12,-44,37,-96,28,10,-1,11,52,19,9,-5,103,115,51,28,-5,148,-600,-14,20,8,-6,2,684370
98,11,-50,14,-14,-7,201,40,-33,55,139,74,-10,-84,56,149,34,18,-37,197,328,125,46,-29,321,-269,-44,4,-22,-16,-98,684371
53,16,-21,8,-12,-6,172,210,-44,194,127,41,7,-9,46,98,11,-3,-65,127,233,70,6,-35,225,-356,-51,-24,-53,-34,-84,684372
-3,7,-3,18,-5,-3,16,-32,19,10,-127,-27,0,113,42,7,3,0,-28,39,33,18,-6,3,69,-638,-7,-14,-22,-11,-22,684373
90,8,-41,-4,2,5,54,119,2,-4,107,94,-17,180,38,109,-11,-25,-84,129,272,82,-6,-63,273,-251,-68,-48,-56,-52,-133,684374
40,8,-21,-5,-1,14,17,-124,41,25,62,40,-160,121,85,64,-3,-4,-60,74,172,55,3,-25,160,-386,-23,-24,-43,-30,-7,684375
-18,0,-9,-12,-8,19,-11,-406,16,36,-24,-68,-28,129,59,-12,24,13,0,9,-31,10,27,30,18,-668,33,8,2,-2,135,684376
14,-1,-8,-7,4,26,80,-227,-25,167,277,-22,-130,216,78,4,21,14,-10,32,11,25,19,17,64,-609,14,4,17,-3,35,684377
42,-4,-38,16,-3,13,120,-66,-70,53,162,48,-99,221,22,22,-16,-31,-66,37,100,26,-23,-46,121,-487,-49,-42,-44,-46,-130,684378
69,7,-30,27,16,23,106,139,-75,-13,124,16,1,-69,-7,39,-6,-17,-71,58,132,34,-20,-37,134,-432,-52,-38,-45,-33,-77,684379
51,9,-9,18,12,38,59,174,30,86,42,-24,105,-189,27,41,4,-13,-70,58,111,28,-22,-23,132,-446,-29,-31,-37,-18,-133,684380
44,5,-7,13,13,31,51,106,0,-121,-215,-6,111,-268,62,33,8,-10,-40,46,92,24,-12,-2,116,-476,-17,-19,-19,-16,-42,684381
82,1,-21,16,0,8,108,-56,-66,-10,-125,102,85,-205,28,67,9,-11,-50,83,198,61,-8,-34,182,-321,-45,-41,-40,-28,-74,684382
115,-5,-39,-19,-12,2,149,-127,72,202,195,130,72,-22,53,136,0,-14,-81,158,351,106,-11,-63,301,-63,-81,-47,-68,-45,-256,684383
176,9,-56,-33,-3,7,237,173,26,78,49,64,-158,17,60,206,-39,-59,-177,215,557,125,-45,-150,447,284,-158,-115,-132,-120,-366,684384
78,18,-38,-18,-14,-13,99,-3,63,81,24,50,-40,-188,40,79,-30,-33,-114,76,282,37,-44,-98,202,-88,-89,-83,-112,-87,-151,684385
35,3,-32,-9,-21,-25,4,2,-44,26,-105,30,-21,-74,3,22,-10,-14,-43,28,128,13,-14,-37,89,-335,-26,-46,-63,-46,-52,684386
80,-2,-31,-14,-12,-2,15,115,-55,99,-61,-46,52,-94,-31,55,-30,-37,-102,46,215,27,-60,-92,142,-212,-78,-87,-93,-73,-86,684387
62,-18,-32,-37,-15,8,33,109,-29,-138,31,-52,-17,-94,-5,40,-21,-20,-51,25,186,29,-53,-54,107,-276,-60,-45,-65,-52,-72,684388
94,3,-47,-19,-1,10,238,86,56,-36,32,-25,-172,-72,-1,87,-28,-19,-57,69,279,47,-46,-53,184,-137,-67,-43,-75,-51,-150,684389
93,22,-55,12,-10,-7,380,253,10,-63,155,-48,-99,74,-74,91,-63,-56,-130,63,317,32,-79,-118,220,-45,-126,-100,-130,-99,-277,684390
96,33,-54,22,-8,-16,388,11,-44,-112,183,-58,85,-25,-64,91,-88,-97,-200,57,376,24,-111,-182,259,87,-198,-154,-188,-147,-284,684391
305,54,-97,15,17,12,518,143,2,29,149,64,-59,37,-13,317,-131,-157,-382,291,966,155,-156,-357,717,1004,-356,-267,-299,-263,-706,684392
419,35,-122,-49,13,17,519,394,-173,-111,327,89,-210,-5,-11,472,-173,-183,-502,420,1386,238,-207,-461,1000,1728,-422,-334,-389,-337,-879,684393
381,33,-96,-61,8,14,453,191,-122,-73,368,72,-41,7,9,445,-161,-156,-457,382,1330,218,-202,-407,919,1732,-367,-307,-369,-306,-742,684394
158,35,-20,-31,-9,10,194,-151,-99,-56,-49,-33,111,-56,15,166,-117,-96,-296,98,664,42,-155,-234,350,778,-216,-221,-275,-203,-191,684395
-37,25,36,-4,-32,-14,-43,-177,-52,-53,-147,-158,34,-53,-92,-61,-53,-13,-102,-111,42,-81,-90,-44,-110,-166,-35,-101,-126,-65,150,684396
-46,8,33,-13,-33,-19,-50,-78,54,125,-51,-144,-29,-7,-52,-35,-29,-8,-59,-63,48,-57,-73,-22,-58,-183,-10,-66,-68,-28,85,684397
-42,-5,15,-32,-40,-32,-48,-70,-8,-16,-112,-128,-48,11,-17,13,11,20,-9,-13,79,-16,-35,15,-2,-168,13,-15,-27,4,67,684398
-44,0,13,-13,-24,-27,-61,140,29,84,-106,-113,8,-120,17,8,20,35,23,-5,38,5,-8,38,-24,-239,33,4,-3,23,71,684399
-3,13,13,8,-10,-4,22,-64,24,-121,42,-78,261,-35,13,27,5,17,-5,20,105,23,-25,2,40,-147,3,-21,-21,-1,-27,684400
78,25,-3,13,5,19,130,-126,-14,-90,151,8,72,-39,16,94,-11,-20,-65,73,268,49,-37,-56,170,104,-66,-61,-63,-46,-187,684401
245,22,-50,-20,12,29,319,-24,-114,-56,128,13,-85,-58,29,248,-113,-136,-291,215,757,112,-137,-279,522,897,-283,-227,-240,-213,-587,684402
389,49,-92,-32,25,38,477,61,-146,-31,104,34,-128,114,39,412,-155,-180,-429,362,1203,200,-174,-409,844,1640,-401,-316,-347,-304,-788,684403
474,75,-106,-52,27,28,548,210,-143,-18,184,118,-167,227,2,534,-174,-187,-512,455,1541,268,-199,-483,1062,2217,-455,-363,-422,-352,-873,684404
219,38,-37,-61,-18,-4,194,237,-107,-55,31,-32,44,38,-57,249,-153,-122,-349,142,886,81,-209,-297,479,1310,-270,-264,-331,-239,-269,684405
-22,17,56,-25,-18,-9,-93,34,51,-12,147,-150,-40,-147,-126,-28,-45,0,-34,-116,95,-59,-107,-7,-123,75,10,-55,-104,-16,183,684406
35,19,41,-23,-8,5,-8,66,-24,-59,10,-14,-50,-79,-65,22,-11,18,-1,-64,157,-17,-51,-2,-39,120,9,-34,-68,-5,67,684407
2,5,24,-18,-26,-15,-13,39,44,35,-222,42,113,88,-52,-28,-36,4,-18,-121,69,-57,-56,-29,-109,-44,-15,-55,-76,-24,58,684408
12,9,19,-14,-6,-8,20,102,-17,-104,-47,-39,114,24,-51,-21,-64,-28,-60,-112,81,-63,-85,-63,-88,-27,-47,-79,-96,-40,-20,684409
9,2,18,-26,-13,1,30,-34,-54,127,101,-71,39,-117,22,-15,-56,-31,-46,-97,85,-52,-71,-47,-80,-28,-41,-62,-96,-32,-46,684410
85,29,9,5,15,22,134,-28,5,33,65,-35,-198,-16,-12,84,-36,-24,-61,10,274,32,-55,-68,102,237,-66,-58,-77,-29,-241,684411
628,64,-162,-53,52,39,759,281,-286,-162,570,183,-264,44,56,712,-203,-237,-589,625,1913,395,-201,-594,1385,2790,-564,-396,-425,-383,-1374,684412
838,76,-231,-137,28,15,951,652,-368,7,578,208,-226,125,3,994,-316,-354,-949,847,2788,506,-342,-885,1973,4338,-842,-635,-722,-632,-1714,684413
682,81,-166,-135,-3,-10,759,486,-167,-62,391,168,-201,38,42,863,-290,-300,-897,690,2556,397,-355,-793,1700,4163,-738,-615,-725,-591,-1324,684414
198,55,-17,-109,-53,-51,161,-158,-20,-167,-113,-17,34,-206,4,363,-126,-75,-424,188,1248,106,-216,-322,630,2277,-266,-309,-409,-278,-277,684415
-173,34,96,-42,-70,-61,-291,-331,70,-75,16,-130,165,-187,-25,-37,31,105,45,-173,45,-97,-61,98,-251,400,129,-5,-55,48,395,684416
-132,21,85,-49,-48,-37,-279,-240,63,-46,-27,-56,269,-202,14,-39,3,66,63,-138,-14,-77,-61,82,-229,254,99,-5,-12,49,282,684417
-109,11,65,-56,-44,-32,-282,-321,82,8,61,-70,133,-182,-6,-34,0,51,58,-119,-44,-73,-55,71,-207,181,83,-12,7,45,238,684418
-70,13,48,-34,-40,-35,-225,-179,107,74,68,33,191,20,43,27,35,61,57,-50,37,-23,-24,66,-121,258,91,13,28,51,217,684419
-44,17,37,-27,-37,-51,-142,-92,58,-150,-68,19,92,25,6,66,45,77,83,5,120,18,5,65,-34,347,90,35,48,61,167,684420
29,27,22,-13,-27,-37,-16,-243,61,7,196,-9,104,-87,-13,118,3,31,-3,70,293,50,-23,-21,112,612,5,-30,-13,7,-68,684421
519,79,-107,-51,31,24,589,321,-129,25,598,204,-74,218,105,653,-169,-190,-489,573,1678,342,-174,-487,1201,2776,-463,-354,-354,-318,-1126,684422
804,96,-172,-113,44,51,910,637,-285,-39,559,307,-159,156,113,952,-309,-339,-873,816,2653,478,-326,-828,1865,4422,-788,-606,-661,-589,-1586,684423
852,102,-184,-157,22,44,910,673,-288,-28,461,357,-96,36,133,1041,-349,-365,-1020,850,2994,496,-401,-934,2036,5112,-877,-708,-815,-688,-1570,684424
306,71,-8,-140,-35,-16,233,157,-9,2,88,49,-1,-224,-64,481,-217,-144,-574,239,1585,155,-313,-447,808,3108,-403,-418,-532,-381,-317,684425
-253,40,143,-53,-67,-61,-423,-289,83,27,-167,-282,254,-380,-175,-143,8,130,119,-349,-175,-171,-96,180,-527,343,192,27,-16,89,711,684426
-184,26,87,-51,-60,-57,-294,-306,59,-42,-62,-143,90,-196,-110,-74,28,110,144,-232,-106,-102,-45,143,-379,343,162,52,32,120,447,684427
-170,24,108,-29,-42,-33,-262,-142,160,25,-41,-105,55,-211,-106,-80,50,108,166,-235,-163,-94,-5,146,-406,189,173,66,62,141,411,684428
-130,18,106,-19,-16,-8,-191,-72,126,13,43,-144,130,-59,-18,-74,33,73,127,-214,-156,-85,-4,103,-355,181,122,38,48,111,313,684429
-133,-4,101,-31,-14,7,-189,-71,-20,1,93,-101,70,-40,-8,-86,23,60,116,-224,-183,-90,-13,97,-367,109,114,31,34,94,288,684430
93,37,52,-8,16,18,62,208,13,97,92,37,54,66,21,122,-7,-2,-29,5,312,43,-39,-57,65,838,-36,-54,-32,6,-213,684431
878,93,-195,-89,65,47,970,616,-257,-157,492,391,-142,146,165,991,-271,-341,-839,878,2670,523,-273,-851,1901,4520,-810,-577,-608,-548,-1882,684432
1189,132,-274,-176,59,50,1275,659,-367,-13,553,407,-226,209,218,1411,-407,-445,-1285,1213,3894,714,-426,-1211,2718,6643,-1152,-856,-976,-850,-2257,684433
921,129,-173,-196,11,20,927,539,-228,-75,291,236,0,40,132,1175,-355,-330,-1110,911,3383,544,-416,-1003,2170,6076,-936,-764,-905,-748,-1560,684434
274,89,32,-152,-50,-36,123,14,24,-97,11,-96,267,-203,-42,476,-172,-73,-495,192,1568,116,-276,-382,677,3432,-326,-383,-497,-335,-176,684435
-205,40,147,-79,-79,-73,-435,-193,193,-173,-47,-226,341,-242,-112,-80,14,128,82,-288,16,-160,-112,145,-450,1007,178,-13,-59,79,646,684436
-209,39,125,-48,-68,-60,-413,-219,208,-140,-70,-244,200,-202,-45,-83,35,123,161,-251,-132,-139,-50,170,-466,681,197,37,31,138,611,684437
-158,28,128,-36,-34,-18,-370,-194,144,13,-49,-284,139,-189,-62,-67,12,93,136,-195,-117,-116,-36,127,-402,653,161,26,40,106,476,684438
-125,29,136,-17,-17,14,-327,-326,41,-20,-221,-245,-35,-68,-103,-45,19,86,130,-166,-109,-99,-34,115,-347,633,137,30,62,93,320,684439
-111,28,120,-10,-14,2,-282,-131,137,-109,-69,-79,-85,2,-92,-30,24,89,152,-152,-118,-77,-7,126,-321,575,136,55,91,104,346,684440
-102,12,82,-29,-31,-27,-220,60,31,168,98,-14,35,-104,-166,-20,-4,51,117,-118,-53,-61,-32,67,-251,642,88,24,71,66,197,684441
172,27,-13,-51,-6,-11,158,212,-141,87,231,144,-22,6,-42,313,-74,-61,-165,210,785,114,-92,-186,435,1906,-160,-147,-113,-109,-393,684442
371,65,-66,-80,5,-5,441,143,-104,-247,231,251,92,186,35,578,-137,-117,-407,427,1484,258,-153,-394,941,3048,-356,-284,-298,-257,-669,684443
336,69,-64,-100,-16,-23,398,113,-96,-106,362,226,-65,116,15,593,-133,-88,-414,415,1555,273,-163,-384,933,3238,-334,-286,-318,-254,-565,684444
50,42,16,-103,-56,-48,27,60,-122,-50,-25,-66,19,-67,-6,273,-67,4,-190,74,786,75,-121,-151,287,2135,-110,-146,-181,-117,7,684445
-193,26,94,-63,-56,-45,-287,-235,4,-65,-190,-201,68,-41,-69,-40,21,105,123,-226,-66,-96,-23,126,-358,810,143,48,35,93,420,684446
-124,31,83,-33,-22,-25,-287,-173,105,-235,-254,-251,6,-72,-60,-34,39,95,138,-191,-82,-78,6,130,-321,733,130,59,77,113,333,684447
-122,24,94,-25,-19,-34,-369,-284,32,-176,-233,-142,140,-141,-32,-44,40,96,126,-200,-128,-82,8,127,-336,638,133,53,75,126,317,684448
-99,16,96,-12,-5,-8,-433,-223,55,-56,96,-11,109,-82,-22,-22,49,105,134,-165,-137,-56,17,135,-310,613,142,63,101,143,218,684449
-63,-4,81,-39,-4,2,-416,-117,143,-2,-109,-19,132,-3,13,20,57,96,125,-115,-57,-9,25,129,-225,708,123,73,111,138,211,684450
-67,4,82,-41,-1,12,-290,19,194,95,-45,26,130,66,58,-7,47,81,115,-129,-96,-36,13,127,-257,634,128,61,95,118,278,684451
42,12,30,-28,-3,11,20,-47,65,-14,-117,81,130,-211,57,89,-10,11,23,-9,175,15,-17,16,-20,1045,12,-5,24,38,-93,684452
169,47,12,-17,15,20,242,71,2,-48,115,164,81,-125,94,224,-53,-37,-115,119,561,87,-54,-114,274,1642,-122,-91,-76,-55,-276,684453
138,55,13,-24,11,12,213,-39,-72,-70,163,112,-40,-120,66,197,-78,-59,-152,93,542,53,-90,-149,231,1653,-149,-129,-119,-89,-275,684454
56,31,38,-27,-2,1,76,1,48,127,179,29,-193,-89,39,133,-34,-4,-64,16,341,14,-61,-52,57,1339,-51,-72,-65,-33,-25,684455
-82,12,60,-16,-20,-27,-105,-87,117,-2,53,-57,-56,-257,-15,7,18,64,87,-106,-26,-47,3,91,-220,738,92,35,52,69,190,684456
-109,23,35,5,-22,-50,-154,-76,65,-61,-121,-5,88,-166,-65,-28,24,60,125,-114,-123,-57,15,109,-277,556,109,55,79,76,284,684457
-128,27,54,20,-9,-24,-191,9,-37,-139,137,-95,196,-48,-64,-65,27,65,152,-130,-217,-74,24,134,-330,393,141,74,103,99,337,684458
-120,14,79,14,-14,-12,-182,-185,70,-159,63,-121,136,146,-57,-83,29,49,154,-145,-254,-86,17,118,-335,313,126,63,109,91,336,684459
-110,-6,64,-2,-15,-10,-176,-117,-5,-47,-333,-73,47,100,-87,-79,27,41,143,-135,-240,-74,30,112,-320,304,97,77,109,67,311,684460
-68,7,60,0,-1,2,-88,66,74,32,-87,41,11,90,-19,-15,26,41,114,-67,-120,-34,43,85,-199,462,88,69,99,56,191,684461
13,15,15,-19,2,-11,36,100,90,-156,158,105,-91,193,-4,84,1,-4,16,39,138,23,20,3,15,862,7,18,47,8,-86,684462
75,20,-8,-28,4,-10,121,152,-3,-201,141,88,-143,41,-9,150,-33,-36,-88,95,373,54,-24,-92,182,1232,-82,-54,-33,-57,-222,684463
37,25,8,-31,-1,-12,53,-226,-34,-70,142,-42,80,-19,21,93,-34,-20,-67,18,260,20,-28,-60,70,1095,-64,-47,-41,-59,-123,684464
-27,14,32,-15,-3,-4,-50,-119,37,-72,-56,-17,13,29,-73,24,16,32,36,-50,33,-19,19,52,-107,750,38,18,32,18,87,684465
-66,21,52,7,-1,7,-81,32,-12,-118,-245,-35,131,202,-19,0,59,81,112,-82,-110,-17,40,132,-194,530,112,76,105,96,208,684466
-98,18,42,7,-10,-13,-39,-137,86,4,-106,-56,90,159,-27,-4,62,88,139,-76,-136,-10,69,148,-184,489,126,107,129,121,169,684467
-48,26,46,22,10,14,34,-126,62,162,35,26,63,125,-15,20,47,49,94,-54,-56,-7,61,101,-117,640,87,72,91,91,120,684468
-32,16,35,10,3,15,-19,-58,-17,46,-40,55,84,-75,-55,-8,20,8,48,-79,-62,-29,19,49,-136,644,42,28,38,52,81,684469
-26,31,51,13,14,15,-58,-32,-65,-15,34,8,-7,-163,-43,2,24,27,71,-70,-71,-22,31,65,-136,628,54,42,68,63,59,684470
-106,-5,35,-18,-19,-19,-179,-299,-100,239,-93,-45,-104,17,-48,-50,6,29,91,-114,-184,-62,18,90,-233,444,89,51,80,80,129,684471
-230,-20,66,-26,-30,-34,-346,-244,-66,85,-217,-54,109,29,-12,-185,56,79,220,-232,-550,-124,57,229,-505,-148,208,139,166,167,359,684472
-189,-11,62,-12,-18,-12,-266,-313,-75,30,-127,72,161,105,28,-149,69,72,213,-178,-500,-97,76,207,-430,-132,179,131,168,157,277,684473
-130,5,55,5,-5,7,-196,-229,-33,92,-144,-8,170,23,-11,-121,39,46,155,-151,-408,-85,45,143,-357,-42,122,92,123,100,188,684474
-71,-7,47,10,10,26,-157,113,2,27,13,-93,75,-62,-75,-102,14,17,104,-115,-320,-71,18,95,-288,61,78,58,85,58,116,684475
-49,-10,38,3,10,18,-119,260,34,42,-104,-64,-30,-7,-80,-64,30,13,91,-82,-238,-49,37,83,-220,157,67,49,77,47,65,684476
-30,1,25,11,8,6,-50,72,78,-25,5,-37,-40,-59,-73,-17,53,31,95,-29,-140,-14,66,76,-146,266,64,61,84,49,71,684477
-14,1,27,12,15,23,-30,-16,-63,29,-156,104,-16,-32,-37,-5,48,39,93,-8,-105,-5,71,72,-129,303,59,61,77,58,101,684478
-31,-15,8,-23,3,14,-74,36,-20,-40,-247,95,-168,-11,-93,-20,3,7,60,-33,-116,-43,37,35,-131,300,30,30,45,21,56,684479
-42,1,15,-15,1,12,-156,-30,12,249,-53,40,-202,53,-11,-35,13,12,59,-39,-139,-58,35,46,-159,257,42,41,48,24,139,684480
-99,-14,12,-27,-20,-23,-265,-101,50,84,-103,-72,-88,116,-8,-60,41,46,99,-68,-230,-63,52,90,-230,112,91,78,84,59,206,684481
-345,-35,79,-14,-41,-31,-580,-286,126,19,-399,-174,87,-70,-59,-312,160,181,385,-316,-950,-174,164,374,-778,-1029,366,283,299,261,795,684482
-530,-73,141,5,-50,-42,-752,-453,209,91,-492,-204,140,-2,-99,-543,230,255,626,-522,-1622,-294,244,588,-1256,-2154,559,435,476,409,1094,684483
-566,-70,159,78,-20,-16,-679,-590,218,41,-455,-241,60,-49,-134,-668,222,239,698,-612,-1956,-354,265,636,-1442,-2755,594,472,547,449,1130,684484
-272,-35,60,114,27,13,-234,-278,25,141,-30,-50,22,-60,-10,-377,137,116,449,-288,-1223,-179,196,377,-788,-1727,335,306,402,294,328,684485
93,-10,-47,72,45,31,194,192,29,147,-25,205,-189,141,85,29,4,-39,10,98,-81,40,66,-17,88,48,-57,33,93,7,-330,684486
45,-13,-34,45,20,11,147,115,-5,162,69,166,-175,105,80,23,0,-40,-14,62,-41,31,52,-16,73,165,-39,25,54,-10,-126,684487
43,-1,-37,40,15,11,175,45,40,64,97,100,-68,31,105,48,7,-26,-4,67,5,49,59,11,104,283,-17,32,47,17,-104,684488
-7,-9,-42,24,-3,-13,140,-126,-27,-2,-50,48,-93,-71,20,5,14,-29,5,15,-67,14,59,23,35,226,-9,25,38,13,-92,684489
-48,-5,-22,33,-1,-26,78,-130,-3,-163,-261,-20,-89,114,-83,-46,34,-2,31,-31,-179,-4,63,55,-73,54,31,48,62,35,78,684490
-83,-10,-12,23,-1,-18,-24,9,-104,-104,-134,-33,81,34,-66,-71,53,31,86,-45,-268,-14,91,112,-143,-109,83,94,91,77,181,684491
-641,-59,148,54,-53,-45,-750,-398,153,49,-458,-265,194,65,-184,-687,215,257,633,-659,-1896,-376,236,653,-1425,-2678,609,440,459,439,1432,684492
-1011,-88,264,154,-50,-41,-1162,-744,430,-62,-584,-360,268,-19,-186,-1149,371,414,1116,-1052,-3233,-602,406,1070,-2369,-4934,1001,748,835,756,2073,684493
-859,-91,211,175,-6,-15,-970,-371,399,199,-452,-218,163,-72,-132,-1044,357,359,1078,-875,-3065,-500,427,981,-2120,-4895,909,728,848,725,1630,684494
-382,-77,24,126,27,-1,-369,124,41,43,41,-39,-31,-11,-64,-548,191,130,595,-353,-1756,-214,291,485,-1022,-3042,422,421,542,399,525,684495
152,-37,-99,69,68,57,246,244,-121,46,250,168,-96,233,-4,20,-11,-92,10,176,-167,83,113,-52,178,-613,-99,47,114,-13,-434,684496
154,-21,-55,61,68,67,243,150,-58,60,89,117,-74,196,-49,47,-20,-76,-50,168,-24,72,86,-68,214,-320,-102,28,31,-46,-352,684497
115,-8,-37,61,49,41,256,334,-117,-5,55,220,-103,105,23,46,-5,-50,-28,147,0,65,79,-45,204,-250,-68,31,21,-34,-298,684498
83,-5,-51,41,34,20,240,195,-177,-22,147,87,-4,32,91,17,-20,-59,-50,106,3,43,58,-46,166,-222,-71,12,-9,-50,-306,684499
88,-12,-48,39,37,33,219,39,-136,36,204,88,41,15,16,-7,-40,-87,-103,70,-3,19,13,-76,130,-190,-96,-30,-56,-79,-270,684500
-5,-26,-20,28,27,39,78,-45,36,36,-41,-29,93,245,53,-126,-27,-60,-47,-50,-264,-54,13,-11,-111,-546,-38,-2,-35,-52,27,684501
-562,-75,137,74,-24,-6,-608,-401,187,58,-595,-242,51,58,-93,-727,180,201,541,-644,-1885,-381,197,542,-1376,-3067,506,378,377,334,1233,684502
-941,-104,220,146,-53,-48,-1058,-682,306,73,-615,-451,150,-173,-182,-1130,345,379,1017,-976,-3107,-575,387,985,-2220,-5129,918,693,765,674,1862,684503
-923,-104,207,194,-25,-28,-1036,-650,243,36,-629,-401,193,27,-162,-1122,398,403,1112,-906,-3245,-534,462,1037,-2194,-5544,960,771,895,744,1783,684504
-379,-75,16,149,21,0,-369,-212,103,-1,-213,-24,-157,255,57,-502,266,190,648,-248,-1739,-149,370,548,-885,-3384,479,492,615,447,495,684505
171,-39,-159,42,42,11,272,146,-136,-40,252,180,-357,400,127,142,43,-74,-17,353,71,205,171,-69,488,-568,-100,68,122,-12,-676,684506
167,-25,-111,17,43,23,180,256,-152,-44,114,222,-261,279,144,153,45,-42,-50,311,177,199,139,-48,474,-307,-63,61,69,-21,-437,684507
119,-48,-113,-16,8,-7,138,163,-109,-85,-68,282,-185,285,113,109,40,-16,-37,247,111,162,101,-13,379,-338,-27,62,72,-12,-313,684508
63,-27,-84,7,6,-5,162,168,-99,4,-140,108,-271,147,24,36,19,-15,-33,159,-2,95,71,3,258,-480,-11,49,53,-20,-161,684509
123,-2,-72,40,36,24,266,15,-32,60,-58,49,-155,31,26,57,-19,-70,-104,176,105,82,41,-81,324,-271,-89,-23,-13,-73,-295,684510
25,-30,-33,34,28,39,126,4,-38,-185,-60,-23,-171,-41,-18,-68,-31,-61,-69,40,-132,-14,29,-51,93,-591,-61,-15,-24,-64,-89,684511
-537,-81,138,68,-20,2,-587,-375,137,-198,-236,-356,-90,-148,-191,-708,126,145,444,-603,-1772,-380,145,458,-1218,-3131,439,305,317,264,1156,684512
-832,-107,193,135,-30,-18,-900,-429,220,-82,-252,-410,34,-196,-203,-1044,275,293,874,-876,-2812,-519,309,832,-1927,-4901,786,592,666,564,1604,684513
-661,-99,139,169,5,0,-676,-400,242,124,-218,-221,117,-132,-124,-885,276,256,829,-669,-2546,-400,349,749,-1605,-4672,698,579,677,549,1200,684514
-228,-70,5,146,48,35,-124,-79,88,80,7,47,74,58,-21,-444,124,58,401,-202,-1370,-140,212,314,-633,-2977,267,294,386,252,213,684515
200,-19,-110,79,88,80,399,122,-141,144,132,176,-294,124,98,61,-23,-115,-72,257,0,122,62,-138,385,-857,-161,-2,22,-77,-561,684516
187,-35,-110,37,58,61,368,123,-153,83,172,185,-144,-2,54,58,-60,-132,-180,205,112,86,10,-188,382,-588,-197,-66,-80,-146,-504,684517
143,-27,-107,30,31,13,316,169,-39,33,111,204,-19,-39,3,24,-46,-108,-159,146,74,60,8,-164,307,-604,-174,-62,-86,-135,-405,684518
120,-13,-116,25,23,-9,307,172,-47,116,214,198,-45,149,69,22,-45,-106,-151,144,95,64,7,-152,282,-547,-157,-63,-99,-126,-310,684519
115,-14,-105,27,27,-2,318,-13,-71,50,247,93,-158,263,93,35,-42,-93,-147,145,137,61,-6,-145,301,-467,-134,-70,-108,-110,-339,684520
136,-2,-69,38,56,38,307,17,-104,-108,-85,-38,-45,3,76,43,-33,-72,-143,126,134,59,-18,-123,287,-436,-119,-59,-95,-87,-255,684521
-122,-33,35,43,36,38,-62,-36,110,41,-271,-239,87,-219,-4,-289,-1,11,60,-217,-667,-150,22,78,-376,-1628,61,58,33,26,361,684522
-271,-40,88,81,33,35,-309,-22,100,133,-287,-219,30,-283,-13,-495,87,82,311,-378,-1270,-248,105,291,-800,-2620,276,207,229,191,647,684523
-233,-58,45,71,19,20,-285,-136,147,90,-187,-149,-5,-80,-10,-458,73,34,294,-308,-1177,-218,104,240,-676,-2549,229,194,222,177,460,684524
-7,-37,-13,59,42,50,15,-106,54,74,93,40,-204,193,75,-199,4,-41,93,-31,-524,-56,58,42,-140,-1607,35,76,95,54,-40,684525
180,-18,-69,45,60,60,280,146,47,51,202,140,-63,31,104,23,-47,-97,-118,186,88,65,6,-138,318,-649,-131,-44,-47,-90,-352,684526
151,-12,-77,37,36,38,322,138,-93,82,240,95,-118,50,60,31,-78,-130,-189,169,158,42,-48,-190,335,-470,-181,-106,-120,-150,-360,684527
94,-6,-74,44,22,15,322,80,-105,50,228,62,-158,25,14,12,-70,-111,-161,142,114,35,-46,-158,277,-523,-164,-93,-104,-142,-301,684528
99,0,-96,30,3,-17,352,141,-66,106,224,15,-61,158,114,86,-67,-89,-176,202,273,80,-31,-171,392,-273,-165,-89,-107,-142,-277,684529
93,14,-90,19,-3,-25,320,157,-80,68,167,78,-172,144,77,97,-39,-65,-164,201,312,89,-32,-150,396,-201,-129,-84,-107,-122,-226,684530
60,-4,-65,-11,-5,-30,137,12,-12,-96,-40,-73,-41,-89,-33,24,-25,-43,-104,114,140,37,-19,-103,249,-420,-84,-50,-65,-86,-83,684531
-31,-16,-9,-5,6,-21,-78,-30,126,-37,-44,-61,-85,3,-14,-94,30,20,18,-17,-212,-38,23,8,-38,-952,40,28,21,1,168,684532
-68,-30,2,11,4,-3,-151,9,73,54,-294,-65,-38,-58,-7,-148,35,23,68,-63,-359,-65,44,46,-148,-1191,77,57,49,32,201,684533
-75,-45,2,11,7,15,-160,127,7,-159,-347,-111,34,-109,-22,-168,22,16,58,-81,-401,-78,36,50,-176,-1262,66,48,51,28,137,684534
-16,-31,-6,19,15,36,-55,78,-43,-125,-237,30,24,-66,-43,-87,33,20,57,-2,-254,-17,50,39,-39,-1061,56,59,59,33,-61,684535
132,-9,-55,2,25,29,136,151,-31,49,-20,172,3,172,56,58,-33,-58,-92,142,173,61,-7,-112,295,-382,-89,-42,-58,-70,-238,684536
148,-6,-52,6,26,29,156,44,-92,-173,-16,119,-82,219,44,99,-37,-49,-131,154,290,89,-24,-129,358,-166,-112,-61,-81,-79,-320,684537
136,-20,-69,-17,13,8,158,-64,72,-74,115,73,-134,-34,56,105,-39,-60,-166,135,318,83,-40,-151,348,-106,-140,-77,-109,-104,-296,684538
94,-14,-57,-16,8,7,118,-8,15,178,160,62,-23,-55,119,62,-42,-47,-144,98,225,56,-32,-128,252,-216,-104,-69,-108,-88,-184,684539
84,-14,-51,-19,12,-3,109,-15,55,11,244,4,-86,-135,23,45,-49,-39,-127,81,184,41,-39,-120,219,-253,-91,-80,-99,-79,-289,684540
98,-6,-38,-17,0,-1,129,86,-63,-55,51,25,-179,-248,21,55,-36,-41,-127,81,201,50,-42,-102,229,-212,-93,-80,-92,-67,-241,684541
131,13,-39,-4,7,15,184,197,-60,161,16,58,72,-186,28,122,-26,-27,-123,153,342,92,-29,-119,332,2,-91,-75,-90,-68,-196,684542
151,23,-45,4,9,15,196,131,-111,62,-10,146,82,-225,49,180,-24,-26,-145,199,468,136,-30,-133,414,203,-105,-74,-104,-70,-247,684543
165,3,-52,-21,-1,9,169,303,-60,-89,183,169,103,-75,43,181,-56,-61,-195,194,502,112,-67,-185,428,308,-145,-117,-153,-107,-293,684544
127,-2,-28,-26,6,6,103,-63,-34,-140,64,20,83,27,61,93,-91,-80,-192,109,360,50,-95,-186,289,139,-154,-143,-162,-127,-153,684545
67,-1,3,-19,3,13,39,-134,110,-127,196,-21,187,31,28,6,-78,-62,-141,25,142,-2,-90,-132,114,-205,-83,-111,-123,-95,-88,684546
57,-5,-7,-12,-8,8,55,-34,26,43,81,-28,215,-28,-14,-7,-87,-84,-157,30,127,-25,-110,-152,111,-229,-115,-132,-140,-116,-138,684547
4,-4,-5,-9,-10,2,-7,23,-93,10,21,-69,118,-106,-31,-53,-69,-62,-101,-7,10,-50,-75,-114,38,-420,-90,-87,-96,-98,-23,684548
28,1,10,-12,9,20,-18,50,-51,-238,1,42,14,54,10,-16,-35,-20,-61,34,63,-7,-47,-79,82,-369,-58,-35,-53,-64,26,684549
-17,-15,9,-1,-8,4,-98,26,40,-253,-136,32,11,-48,12,-56,1,21,0,-4,-78,-32,-30,3,-21,-590,22,2,4,-4,87,684550
29,-5,-20,-4,-1,-17,-16,40,33,-158,41,76,-176,-68,45,13,3,3,-26,63,57,28,-14,-32,110,-405,-15,-19,-8,-27,-99,684551
206,20,-74,-7,23,-5,244,157,-6,-3,256,104,-231,-23,66,250,-27,-43,-186,278,623,172,-43,-194,541,456,-171,-105,-114,-121,-332,684552
179,10,-77,-32,4,-21,226,166,-3,12,145,-8,-189,9,36,243,-45,-46,-208,252,649,155,-65,-210,527,559,-165,-115,-142,-141,-284,684553
122,11,-57,-40,-20,-30,177,5,-118,-36,126,92,-152,176,94,210,-22,-33,-171,204,554,128,-56,-158,445,484,-124,-87,-114,-103,-161,684554
52,18,-18,-31,-11,-18,80,-192,-40,74,-3,61,14,-25,144,148,22,31,-64,125,364,97,-1,-47,285,206,-38,-19,-42,-21,7,684555
-7,15,5,0,-5,-14,-31,-270,70,-63,36,-56,60,-107,105,45,55,65,21,35,107,52,34,29,84,-188,52,35,16,41,166,684556
-49,12,-19,-13,-30,-41,-52,-134,52,-59,-43,5,-46,-61,73,10,35,51,33,2,18,24,5,28,22,-330,51,31,16,41,139,684557
-23,13,-7,-11,-15,-19,-13,35,97,-46,19,-117,44,114,51,9,3,19,-5,7,46,13,-27,-2,49,-280,13,5,-5,13,17,684558
20,-6,5,-27,0,12,-2,99,-31,-61,-67,-96,131,17,1,11,-3,8,-23,14,72,15,-25,-23,64,-235,1,-14,-25,-3,20,684559
24,2,15,-31,-7,12,23,414,-7,3,-279,-71,82,-99,-4,29,17,24,-9,9,46,28,-2,-19,59,-275,4,-2,-7,-1,12,684560
32,10,-12,-4,-4,0,62,347,60,1,-234,36,-11,-158,-63,48,-5,-2,-35,26,104,25,-17,-54,109,-195,-30,-25,-22,-7,-131,684561
268,39,-82,4,16,2,333,276,-127,65,132,149,-64,-40,31,294,-105,-116,-264,279,782,151,-121,-278,644,878,-250,-184,-195,-162,-639,684562
351,38,-101,-21,20,12,387,106,-137,-9,167,190,-151,131,93,386,-143,-153,-375,353,1093,199,-165,-386,835,1432,-345,-256,-292,-251,-748,684563
314,21,-81,-79,8,-5,255,360,-194,44,222,227,-115,50,111,386,-102,-107,-335,338,1092,200,-124,-325,796,1474,-292,-212,-274,-218,-571,684564
122,3,-21,-89,-17,-12,-56,271,-65,77,107,-49,-109,-39,20,174,-56,-33,-183,111,584,73,-91,-161,355,745,-126,-122,-184,-121,-185,684565
-49,-7,24,-63,-19,-4,-278,44,-5,-60,-8,-107,-70,-106,-31,-35,-39,-5,-45,-89,25,-61,-81,-38,-67,-90,-7,-58,-82,-44,116,684566
3,13,31,-42,2,20,-180,11,11,39,2,-26,214,-12,-25,17,-22,10,-32,-26,99,-17,-66,-45,25,-22,-15,-54,-49,-29,0,684567
2,11,46,-30,16,32,-88,16,-18,118,-46,-161,100,-96,-47,-2,11,25,2,-30,35,-23,-41,-10,-23,-170,15,-20,-17,-10,76,684568
40,5,40,-8,36,55,-21,-42,-3,124,-229,-139,79,-128,-121,-44,-50,-36,-45,-59,15,-49,-98,-65,-48,-219,-48,-68,-66,-68,-13,684569
70,10,18,0,36,54,-48,3,29,29,-105,-87,199,-265,-43,-60,-115,-107,-115,-62,54,-75,-146,-153,-1,-124,-135,-126,-139,-143,-143,684570
90,29,-3,14,15,21,18,220,33,128,139,20,192,-40,60,35,-79,-68,-114,25,236,6,-114,-148,144,147,-118,-118,-117,-115,-148,684571
232,50,-41,3,9,10,240,410,-127,13,224,258,143,53,131,295,-32,-40,-185,284,776,188,-64,-199,589,967,-180,-137,-134,-118,-456,684572
402,29,-106,-70,3,-1,412,422,-186,135,334,181,1,120,146,495,-117,-135,-409,427,1331,259,-152,-406,987,1900,-364,-278,-312,-265,-785,684573
380,42,-74,-78,10,18,419,240,-158,109,236,130,-13,131,88,482,-116,-111,-409,380,1324,235,-164,-394,942,1983,-347,-277,-318,-271,-678,684574
198,33,-13,-54,-5,1,229,-40,-15,73,4,94,-53,294,42,290,-60,-43,-243,174,839,118,-117,-221,504,1314,-180,-176,-209,-153,-215,684575
-58,18,46,-13,-30,-24,-63,-121,124,58,-159,-33,-9,152,-14,-4,14,49,15,-84,66,-35,-45,21,-80,152,55,-10,-20,32,272,684576
-40,12,40,-10,-20,-21,-67,29,14,-37,-5,-45,-56,17,6,-18,19,31,43,-84,10,-31,-36,22,-90,36,46,-9,3,37,206,684577
-23,15,21,-15,-16,-6,-62,-183,-68,-61,-81,-92,-81,114,64,-4,4,10,11,-63,23,-26,-33,2,-71,39,16,-19,-9,11,119,684578
-16,23,38,13,-12,0,-54,-113,88,-97,-54,10,-40,6,-26,6,17,37,15,-47,11,-14,-28,11,-65,10,34,-3,14,35,94,684579
-35,12,35,-1,-16,-22,-72,46,39,12,-74,12,83,-12,1,14,31,52,28,-40,6,-4,-22,38,-59,-16,60,21,33,66,146,684580
-18,12,18,-14,-11,-31,-30,2,-90,80,23,59,26,116,-40,48,39,50,47,1,77,20,13,18,11,79,44,25,32,48,64,684581
150,37,-30,-13,3,-17,213,27,-56,-51,235,110,80,31,-3,246,-9,-20,-126,198,589,124,-20,-145,417,846,-126,-88,-96,-75,-300,684582
278,39,-82,-43,-1,-17,370,285,-82,-33,401,55,89,138,72,373,-108,-124,-350,309,1033,174,-130,-339,734,1601,-318,-242,-261,-230,-580,684583
278,43,-79,-63,-3,-13,377,283,-74,-79,270,86,104,51,71,395,-141,-126,-404,302,1134,181,-181,-373,768,1826,-344,-278,-313,-255,-636,684584
97,28,7,-48,-4,-5,127,142,-45,-36,96,31,117,-62,-44,189,-49,-26,-192,89,581,67,-119,-150,301,1016,-110,-139,-176,-104,-115,684585
-25,1,49,-27,-16,-19,-20,-174,26,84,-128,23,100,-75,-72,-8,6,29,5,-80,63,-34,-52,17,-85,204,39,-26,-39,11,244,684586
5,21,43,11,0,-9,76,-38,131,-46,-174,-8,17,-219,-28,-16,-20,8,-9,-76,61,-29,-58,-17,-68,163,-5,-53,-37,-14,154,684587
19,40,31,26,9,5,40,-65,95,-48,-81,-88,23,-177,22,-24,-63,-40,-63,-71,69,-40,-84,-69,-41,201,-55,-94,-86,-53,61,684588
12,22,38,-6,0,-3,-36,-197,110,112,152,-40,288,-142,17,18,-29,-14,-37,-24,120,10,-61,-41,11,245,-28,-68,-49,-11,-44,684589
12,-4,13,-38,-26,-28,-20,12,133,257,246,112,294,111,19,77,1,26,-4,33,203,56,-13,-16,86,340,3,-28,-22,12,-16,684590
22,18,10,-15,-13,-15,15,-8,127,159,2,66,192,126,47,95,10,29,-12,49,227,62,-10,-15,110,401,0,-18,-26,2,-16,684591
147,32,-36,-18,1,-4,185,185,6,310,39,111,114,7,52,203,-57,-56,-149,163,550,101,-77,-151,370,927,-139,-114,-120,-88,-373,684592
269,44,-70,-50,-5,-15,348,216,-5,161,396,156,10,-7,16,344,-120,-122,-313,283,975,160,-142,-297,666,1624,-285,-233,-248,-208,-590,684593
215,34,-52,-68,-24,-34,255,294,-95,20,390,182,-94,8,54,298,-119,-101,-296,228,909,126,-141,-275,585,1581,-257,-219,-252,-191,-421,684594
89,35,0,-64,-27,-37,51,243,-30,71,-58,-22,-95,25,7,166,-54,-24,-140,86,525,39,-82,-127,279,1042,-105,-113,-149,-84,-85,684595
-48,11,25,-53,-46,-53,-113,183,-100,-139,-221,-84,200,44,-64,36,6,32,11,-46,117,-24,-39,26,-28,402,29,-8,-24,24,139,684596
-27,25,39,-40,-31,-21,-80,-57,-69,92,-104,-7,151,24,28,76,48,64,73,11,122,17,0,66,15,370,76,35,38,81,164,684597
-39,17,36,-36,-34,-20,-84,7,-79,146,-281,-35,-78,38,31,77,47,81,88,21,101,22,13,84,11,317,93,39,59,98,157,684598
-33,20,33,-30,-27,-8,-94,100,44,-59,-187,-52,-84,-111,3,76,49,81,83,23,113,32,18,78,34,318,77,49,62,90,158,684599
-22,19,45,-19,-17,9,-103,-37,-47,-108,36,103,126,-138,9,58,47,52,77,25,107,34,24,50,32,329,50,46,55,71,97,684600
-10,2,37,-26,-24,0,-80,-46,-9,-110,219,76,39,64,0,53,13,22,29,39,145,23,2,11,54,384,15,5,10,31,25,684601
137,12,-19,-22,-10,-4,112,-24,-35,-110,331,58,-152,260,52,190,-37,-36,-108,167,503,96,-58,-114,344,946,-103,-89,-85,-53,-275,684602
196,20,-47,-28,-7,-10,219,-67,-80,-29,391,27,-159,175,-50,235,-93,-91,-219,191,691,105,-102,-217,462,1272,-211,-171,-180,-139,-346,684603
200,50,-18,-3,16,16,273,-49,-35,90,183,-15,29,160,-78,243,-70,-58,-215,197,721,119,-89,-195,467,1345,-193,-162,-169,-130,-264,684604
88,40,-4,-1,-4,-8,160,-5,47,-117,8,-20,222,12,-36,152,-12,5,-90,94,450,74,-41,-77,246,961,-66,-81,-89,-44,-10,684605
-20,41,38,9,-11,-20,-4,-51,32,-13,-151,-97,3,-144,-66,55,34,51,47,-6,151,30,-1,37,27,489,36,4,1,38,231,684606
-5,28,35,1,-16,-16,-72,-90,24,31,44,5,55,-27,-6,61,13,31,27,10,191,36,-15,18,67,514,20,-11,-3,21,18,684607
5,10,30,-33,-25,-22,-142,39,30,-114,141,10,25,65,2,122,36,42,14,63,289,82,1,16,147,654,27,-8,5,32,10,684608
-64,3,39,-37,-40,-33,-183,109,121,-101,53,1,-69,185,-6,88,111,108,127,33,116,77,74,126,36,384,126,82,92,113,180,684609
-72,10,16,-32,-39,-24,-50,76,-23,-27,-121,-13,-19,230,-20,78,76,72,87,21,113,51,71,66,36,367,67,40,64,74,153,684610
11,20,19,-14,1,14,31,-83,-41,36,67,46,110,139,-17,91,28,28,16,39,180,46,25,8,89,474,10,-8,11,20,20,684611
187,40,-9,-14,18,43,231,133,-125,-75,161,46,11,99,21,245,-49,-53,-133,188,613,122,-40,-133,438,1174,-143,-99,-102,-81,-382,684612
207,53,-15,-8,15,44,257,224,-86,-122,76,120,-5,31,43,251,-71,-71,-188,198,692,123,-76,-179,475,1341,-190,-141,-151,-122,-370,684613
181,48,-27,-27,-3,11,191,70,-12,-112,141,-27,-33,-44,14,225,-86,-86,-209,173,689,102,-93,-195,441,1372,-190,-165,-186,-138,-355,684614
62,28,-10,-47,-25,-26,-10,-39,93,-72,44,-46,173,167,-34,115,-50,-39,-128,56,405,28,-64,-109,205,980,-94,-100,-124,-68,-85,684615
-77,10,26,-39,-40,-30,-205,-148,60,-47,80,-48,105,-31,-61,12,24,49,38,-55,33,-29,-3,45,-70,392,51,18,9,57,85,684616
-63,8,46,-37,-19,-4,-231,17,37,57,-1,-62,211,-43,-50,8,41,58,81,-48,-31,-26,7,80,-88,278,88,38,48,74,137,684617
-47,-1,56,-36,-8,3,-192,7,31,21,60,-8,204,54,-84,-10,31,53,80,-50,-62,-40,10,75,-95,228,84,34,50,81,112,684618
-23,15,36,-12,4,-7,-24,-11,-108,30,-43,-71,135,-160,-119,-7,-7,6,37,-41,-11,-56,-29,26,-52,300,25,5,16,36,24,684619
-22,20,18,8,-16,-7,57,-103,-72,-76,-84,-139,207,35,-59,-38,-56,-47,7,-78,-36,-91,-68,-26,-90,281,-18,-30,-40,-5,57,684620
-5,27,23,11,4,10,13,-116,29,-95,219,-99,70,-5,-13,-32,-60,-37,7,-77,-49,-72,-67,-15,-88,254,-10,-22,-30,-4,52,684621
109,15,-9,-3,19,22,106,-96,-78,-104,149,-85,-72,-30,44,71,-118,-111,-174,22,266,-20,-114,-179,161,750,-173,-139,-145,-129,-332,684622
160,22,-30,-29,7,15,197,47,-69,18,172,-24,-6,74,23,151,-125,-118,-261,95,493,21,-129,-238,308,1137,-236,-199,-209,-180,-416,684623
166,42,-22,-12,2,10,249,-25,-72,7,173,15,-29,109,10,169,-109,-108,-267,117,559,45,-133,-224,347,1252,-213,-198,-207,-161,-370,684624
89,41,-3,-6,-14,4,200,119,-91,109,77,178,66,5,-2,122,-57,-48,-162,53,396,29,-84,-131,223,1004,-117,-114,-135,-95,-181,684625
-61,19,26,11,-29,-9,45,56,-128,51,-52,30,29,-154,-13,-8,21,46,24,-67,30,-20,-3,39,-61,419,35,9,4,34,205,684626
-48,11,25,4,-14,-2,25,-6,-61,-54,-195,-30,-26,-122,-63,0,20,28,33,-57,18,-1,4,39,-54,389,38,16,11,35,136,684627
-45,6,24,1,-14,-8,-29,93,109,80,25,-66,153,-19,-74,-10,14,23,25,-63,-10,-8,-1,36,-77,350,35,9,2,30,55,684628
-33,30,32,11,-7,-10,-49,164,48,38,55,-48,37,-87,25,11,38,46,65,-39,-18,8,37,57,-55,318,57,30,41,56,126,684629
-43,19,30,-5,-15,-21,-64,35,7,103,71,-39,-97,-32,31,12,35,39,78,-33,-18,16,35,64,-55,303,62,50,53,58,96,684630
3,5,22,5,-4,0,8,-10,-17,-8,-16,33,-109,18,6,38,-3,0,7,-1,86,19,1,-6,31,467,-6,-3,4,1,-32,684631
156,25,-8,-7,12,34,180,-71,7,-29,20,44,-72,104,20,162,-82,-88,-174,112,464,63,-67,-170,315,1070,-170,-129,-125,-114,-318,684632
231,38,-34,-29,25,37,241,-259,-4,-100,68,9,-79,38,48,240,-89,-99,-247,184,702,110,-87,-225,479,1472,-222,-173,-187,-150,-366,684633
176,33,-23,-31,12,17,149,-160,-91,-55,103,-103,42,-74,-31,196,-69,-63,-205,131,600,94,-85,-169,369,1338,-171,-152,-161,-124,-307,684634
33,16,18,-18,-12,-9,12,29,-39,-15,354,-182,133,-66,-33,71,-29,-7,-83,5,252,17,-52,-54,86,822,-46,-80,-82,-52,-58,684635
-75,16,48,-3,-17,-21,-62,-21,33,-8,218,-117,95,-249,-26,-44,-9,24,14,-108,-71,-65,-26,25,-148,337,39,-18,-9,16,128,684636
-77,10,57,16,-4,0,-53,110,103,2,74,-151,180,-237,-32,-90,-29,11,15,-144,-175,-110,-28,33,-208,164,37,-12,-5,11,97,684637
-60,10,44,24,-7,1,-78,132,52,-9,-20,-35,233,-166,-101,-84,-24,6,12,-135,-192,-101,-24,21,-213,135,21,-12,6,8,116,684638
-53,12,28,23,-5,-11,-111,-151,69,-64,188,16,104,39,-20,-58,-1,9,28,-96,-162,-75,-6,30,-170,151,25,9,30,25,96,684639
-15,6,28,16,0,-4,-79,-95,75,-59,127,-12,-104,-55,7,-19,-17,-3,8,-42,-50,-51,-7,-3,-71,317,-9,-12,11,0,78,684640
-40,12,31,-9,-10,-5,-58,-117,11,67,116,-78,106,44,42,-12,1,16,32,-35,-62,-41,7,27,-71,294,12,15,27,16,103,684641
-23,12,35,-39,-9,2,10,-64,22,-101,100,8,83,-22,-10,52,42,58,75,24,43,32,44,65,19,404,60,55,71,69,107,684642
62,8,-6,-56,-13,7,121,62,-53,-172,-100,-30,-75,-18,-43,161,11,21,-28,120,321,93,14,-28,236,825,-27,-9,5,14,-164,684643
114,28,-16,-22,-2,8,164,12,-65,-122,-188,29,-84,-58,1,193,-15,-25,-109,144,448,90,-25,-101,300,1057,-95,-72,-72,-72,-309,684644
55,33,8,-8,-15,-8,86,-167,102,-153,-145,-14,154,-170,-58,98,-22,-13,-84,33,253,24,-28,-75,126,791,-59,-57,-62,-58,-86,684645
-82,30,48,13,-10,-22,-60,-298,26,16,39,-1,103,-23,-53,-50,51,72,95,-104,-156,-30,47,100,-184,148,111,69,72,76,208,684646
-38,19,13,6,-15,-31,-16,-71,-4,-76,149,-12,17,-60,-44,13,54,54,64,-24,-51,10,57,66,-74,291,72,58,60,65,99,684647
-6,15,4,0,-24,-38,-30,-157,53,-136,110,114,-5,-7,15,53,60,65,62,6,36,36,69,49,5,405,52,65,65,57,35,684648
23,23,1,-13,-21,-41,-13,-94,1,-64,5,114,101,15,86,112,67,65,31,76,196,75,67,34,132,631,29,44,55,51,20,684649
20,23,24,-15,-6,-26,-31,-61,-18,-25,86,41,13,-163,25,108,54,65,34,74,180,72,41,55,119,615,40,52,64,59,38,684650
-16,-4,31,-31,-19,-14,-81,-13,-9,-46,-74,-147,20,-169,-95,10,-22,-4,-17,-30,51,-16,-28,1,0,459,-10,5,-7,-4,1,684651
58,10,27,-7,25,22,-7,5,35,-27,43,-231,134,-51,-33,33,-64,-49,-69,-5,148,-13,-48,-88,75,619,-87,-63,-62,-73,-192,684652
217,41,-10,-10,41,38,204,164,-78,-120,68,61,52,23,-29,226,-95,-91,-229,173,642,95,-89,-229,457,1398,-220,-165,-173,-172,-471,684653
182,34,-26,-26,12,10,157,79,55,-16,-288,33,26,-23,-65,221,-84,-77,-212,153,612,77,-85,-197,396,1400,-189,-142,-169,-152,-317,684654
56,22,14,-23,-1,-1,2,-35,46,-115,-117,-44,81,-206,-27,86,-51,-30,-116,27,294,1,-60,-88,122,930,-83,-83,-115,-89,-23,684655
-25,16,56,0,5,7,-85,-75,64,21,-174,-61,22,-153,-37,-22,-4,19,0,-76,1,-47,-16,16,-103,466,16,-9,-35,-8,73,684656
-51,5,37,-4,-11,-17,-77,-139,110,23,-268,-102,-55,-19,-58,-53,-30,3,-18,-95,-67,-67,-39,4,-144,359,-11,-10,-32,-20,84,684657
-34,18,50,22,6,-5,-66,-153,264,-118,-71,-27,142,-63,-16,-44,-9,21,21,-76,-83,-60,-23,25,-135,322,23,11,8,14,73,684658
-47,-4,29,2,-8,-22,-121,59,73,-49,42,-71,2,-87,4,-42,-4,9,41,-82,-118,-66,-8,33,-153,261,24,14,18,12,68,684659
-72,-2,22,1,-10,-28,-152,-5,88,21,-90,-86,-139,-19,1,-57,6,25,58,-98,-188,-66,16,71,-190,127,43,31,47,27,134,684660
-42,21,24,22,0,-11,-90,-60,55,91,7,-56,-186,30,34,-30,25,28,56,-69,-135,-41,31,64,-140,173,57,41,57,40,118,684661
3,16,6,0,-10,-19,-42,57,30,69,109,64,-39,108,-1,32,21,23,25,5,17,14,9,25,-16,425,36,29,40,25,-40,684662
68,19,-7,-18,0,-4,22,188,22,-66,-122,165,-44,48,36,131,15,21,-13,100,245,80,16,-14,160,769,-12,10,12,-2,-131,684663
101,22,-8,-28,4,-5,48,355,-36,15,34,72,-297,13,47,160,0,10,-53,114,335,85,13,-46,219,920,-49,-18,-20,-39,-129,684664
32,0,1,-38,-1,2,-47,49,-151,-35,-221,-97,-192,88,22,71,-37,-22,-60,22,204,12,-21,-62,97,753,-67,-48,-58,-63,-41,684665
-55,1,41,-32,-8,1,-150,204,-5,64,-183,-124,-17,-43,70,-16,-17,-6,0,-64,-20,-41,-11,2,-84,409,-2,-3,-10,-4,32,684666
-91,4,32,-30,-25,-12,-157,4,-60,-9,-63,-94,-29,31,50,-14,33,43,83,-58,-81,-23,36,75,-113,271,72,63,50,57,96,684667
-105,4,35,-4,-31,-26,-86,59,-27,111,-146,-81,-75,86,-7,-30,31,61,104,-71,-132,-35,28,93,-141,176,92,79,75,65,161,684668
-95,-7,27,-7,-12,-15,-93,33,-75,68,-194,-126,-2,40,-54,-125,-47,-15,23,-165,-261,-117,-46,17,-262,15,21,-3,-8,-11,135,684669
-80,0,44,18,17,12,-168,-24,-36,-188,-141,-137,140,-92,-75,-186,-52,-26,24,-229,-379,-155,-71,39,-354,-158,35,-3,2,-10,125,684670
-76,-6,26,8,-3,-14,-144,129,-23,-88,-51,25,16,-143,-31,-123,3,10,80,-154,-297,-90,5,71,-268,-96,70,40,66,38,122,684671
0,-7,-19,-10,-5,-27,-11,-32,31,-127,-60,74,-35,25,-63,42,38,22,45,26,60,43,62,10,28,395,-7,27,35,10,-61,684672
24,8,5,3,17,1,24,43,4,-147,-69,50,-2,-16,8,116,58,51,58,78,164,85,88,37,106,550,15,50,50,32,-36,684673
27,30,19,15,25,3,39,55,71,-43,-3,2,93,245,26,97,47,51,30,60,130,52,55,36,66,512,27,45,46,36,64,684674
-43,15,5,-1,-8,-17,-4,39,-36,-161,18,0,-139,-51,-18,5,10,23,31,-36,-40,-8,13,39,-64,295,23,34,27,21,40,684675
-65,26,39,25,5,7,-20,42,44,-93,-1,34,-120,-169,-17,-64,10,29,71,-90,-181,-52,19,67,-164,72,52,38,47,30,131,684676
-78,11,23,23,-1,-8,-32,-3,-2,-164,56,-26,-173,-46,-74,-93,-7,7,33,-119,-242,-81,11,38,-213,-27,21,13,27,11,119,684677
-70,15,37,46,18,1,-46,-93,-8,-26,-12,-75,-102,-98,-101,-82,28,30,70,-112,-279,-60,40,75,-227,-88,60,54,63,41,154,684678
-58,26,34,43,22,7,-56,-123,100,99,38,-19,91,68,-4,-47,56,60,109,-66,-239,-25,79,100,-187,-57,97,80,96,74,160,684679
-57,16,6,14,2,-21,-59,-19,182,88,134,7,70,154,-2,-6,64,69,85,-20,-155,1,84,105,-114,30,84,82,98,73,88,684680
-81,1,0,-7,-14,-30,-65,61,11,-22,-12,69,47,70,-31,-27,56,55,87,-36,-170,-13,80,100,-123,0,83,75,94,67,100,684681
-85,19,20,2,-1,-4,-99,-23,36,13,-197,82,142,58,13,-49,62,54,130,-51,-214,-18,77,127,-157,-84,110,99,122,88,144,684682
-97,31,65,30,39,26,-210,-127,66,8,-687,-16,72,-52,0,-118,44,45,145,-129,-363,-78,46,145,-272,-318,131,98,131,82,262,684683
-154,-3,74,25,22,9,-275,75,-16,-74,-626,-103,101,-215,-17,-197,36,48,177,-209,-566,-128,54,176,-422,-641,173,116,149,111,300,684684
-145,0,66,39,14,4,-195,102,78,52,-18,-42,30,-39,-12,-163,68,69,200,-159,-539,-82,90,194,-373,-638,179,148,170,129,301,684685
-26,12,20,21,15,11,-23,112,73,61,0,97,163,32,-18,-14,53,35,108,-13,-183,3,75,98,-76,-131,71,92,116,58,-39,684686
-24,17,21,7,11,3,-26,104,91,-14,-23,28,43,94,35,-32,36,29,85,-35,-164,-6,52,69,-85,-109,47,64,95,40,99,684687
-1,16,26,15,32,16,-67,44,6,-50,-209,-21,-24,21,69,-52,2,9,63,-45,-140,-12,38,38,-73,-65,30,38,47,20,16,684688
7,5,0,9,16,17,-159,-94,-38,-84,-128,-9,-81,40,32,-48,-37,-27,13,-43,-96,-20,-1,7,-53,22,-3,2,11,-14,-53,684689
-20,-3,11,-2,13,12,-253,-186,24,-131,-40,-6,-126,102,26,-33,20,19,58,-23,-113,0,45,57,-55,-20,42,47,52,31,80,684690
-27,15,15,-1,10,3,-133,-50,16,-116,-66,-77,-58,211,10,14,71,61,96,21,-55,42,77,92,4,65,80,93,88,83,86,684691
-197,-11,47,12,-14,-25,-162,-30,44,61,-267,-74,-42,-135,-23,-191,88,98,202,-187,-550,-89,73,212,-393,-659,218,157,164,140,442,684692
-318,-17,79,47,-13,-17,-280,-306,78,56,-314,-127,-119,-43,-89,-346,115,124,330,-329,-975,-185,112,320,-718,-1358,315,237,260,213,584,684693
-271,-8,79,55,8,7,-282,-247,51,64,-226,21,-100,-30,-34,-309,119,121,342,-277,-936,-152,138,303,-644,-1364,290,238,269,209,503,684694
-140,-2,39,51,27,29,-154,-169,-46,60,-190,77,-137,-109,-7,-186,64,46,205,-153,-642,-94,93,183,-387,-935,168,146,179,115,250,684695
23,8,-4,38,40,26,71,33,-95,3,-71,67,-89,199,58,-32,-1,-18,43,7,-183,-4,31,37,-27,-250,31,39,66,7,-53,684696
44,18,-9,41,36,25,169,105,-127,-42,44,83,-47,229,15,-5,-6,-23,-7,35,-52,18,22,-8,35,-32,-11,9,9,-20,-112,684697
19,23,-14,58,26,17,150,16,-115,22,-4,8,-142,-33,48,-30,-12,-34,-2,10,-96,3,20,-3,-12,-70,-9,4,-9,-17,-24,684698
6,18,0,43,29,20,58,53,102,36,34,-44,-65,-82,33,-27,2,-15,15,-9,-117,8,42,22,-26,-104,17,17,15,-1,-55,684699
-5,3,3,11,28,11,-24,-65,8,-79,47,69,99,-223,24,0,34,22,21,19,-81,30,63,46,4,-43,43,43,42,24,-34,684700
-22,4,15,33,21,16,-62,-79,32,-5,-160,152,94,-93,50,1,73,61,66,20,-96,36,97,85,-20,-93,88,78,64,57,63,684701
-160,-9,35,31,-3,-9,-196,-64,108,-27,-210,1,34,93,-32,-130,119,118,203,-112,-446,-40,146,216,-295,-649,203,162,148,136,396,684702
-260,-20,71,44,-8,-14,-269,-111,174,81,173,-41,45,37,-35,-260,155,161,345,-229,-824,-105,189,338,-542,-1263,331,254,253,224,561,684703
-218,-13,49,54,8,-7,-179,-57,133,116,118,-54,-8,-20,-8,-252,123,115,326,-208,-803,-108,163,302,-506,-1276,284,236,248,212,463,684704
-106,4,9,49,23,4,-54,4,28,21,95,-112,-54,13,-13,-155,77,54,201,-94,-521,-54,105,186,-283,-876,153,140,175,132,201,684705
62,6,-44,15,31,17,129,118,-48,-44,153,-57,2,102,115,36,-11,-33,-17,91,12,39,31,-15,142,-54,-29,-9,14,-28,-208,684706
37,-4,-38,5,19,12,56,-107,11,61,29,-27,-29,62,94,10,-11,-22,-4,51,-12,17,35,5,94,-69,0,4,9,-20,-69,684707
43,11,-18,14,35,25,49,-149,-4,45,-19,89,-48,106,8,26,23,-3,24,63,-8,36,57,41,99,-60,36,36,39,25,13,684708
4,5,-13,17,13,19,62,-79,44,62,-56,166,-7,51,-22,13,47,23,52,35,-74,33,73,67,40,-135,71,63,54,41,49,684709
24,22,-19,31,15,15,196,64,1,-64,59,112,17,174,33,62,54,35,30,89,36,62,82,43,125,7,58,46,46,31,-100,684710
-15,29,-20,36,3,-3,175,121,33,85,161,-57,73,115,23,6,11,-2,-9,22,-39,-5,35,17,40,-65,15,4,-2,-13,-3,684711
-185,15,30,56,-6,-19,-113,-87,33,-72,17,-64,172,-68,4,-203,53,53,145,-178,-561,-127,63,169,-374,-839,170,107,105,88,357,684712
-222,-4,41,54,-12,-16,-188,111,58,117,-91,-29,161,-13,-44,-278,50,51,199,-228,-735,-164,74,210,-486,-1157,205,137,155,115,372,684713
-164,-4,39,54,3,-2,-106,4,30,-40,151,-21,-17,-106,7,-243,55,41,193,-175,-658,-135,81,191,-401,-1085,184,122,150,113,289,684714
-83,-4,9,37,11,13,3,-186,1,123,-86,43,-99,-4,48,-164,16,-11,111,-100,-443,-92,45,98,-231,-780,87,69,88,55,65,684715
40,2,-36,25,18,18,115,82,-47,51,63,-11,-115,104,76,-12,-15,-53,-9,46,-60,-2,7,-9,66,-185,-20,0,7,-22,-140,684716
55,15,-28,17,13,19,109,3,-136,202,55,99,-68,105,125,70,27,-12,4,115,91,63,47,7,166,50,10,28,33,-8,-81,684717
15,6,-35,-10,1,11,60,-146,-123,191,141,53,-113,128,78,44,41,8,37,73,55,61,73,40,124,-20,39,54,38,16,5,684718
-10,8,-34,3,-8,-1,58,-109,-64,85,79,-36,-165,97,-24,-12,17,-2,6,13,-31,24,35,35,37,-124,17,20,2,4,19,684719
1,27,-21,31,7,6,81,166,-91,152,35,14,-58,123,-42,-14,22,5,4,19,-41,18,24,35,31,-127,32,15,2,7,-52,684720
11,12,-27,31,0,2,35,135,32,-41,111,-29,63,-10,-102,-17,0,-19,3,11,-44,12,1,21,32,-116,15,-4,-4,-5,-51,684721
-43,-4,-9,45,7,2,-99,132,-67,-26,-63,19,94,-127,8,-103,5,-7,43,-73,-239,-46,7,62,-136,-414,51,21,20,18,113,684722
-121,-14,30,45,10,14,-209,-10,9,162,269,37,-20,-2,72,-165,79,64,164,-118,-459,-67,79,181,-281,-788,170,119,122,124,314,684723
-139,-5,35,34,4,12,-175,-161,102,76,214,-71,-7,24,4,-167,112,88,220,-116,-512,-48,123,215,-305,-910,190,159,172,159,329,684724
-63,27,6,57,22,14,-7,-54,148,-6,181,30,-71,57,0,-117,62,30,140,-52,-358,-28,91,143,-173,-691,100,99,106,86,55,684725
5,12,-21,45,12,12,77,66,91,-196,102,-35,-30,45,-48,-68,-23,-44,-20,-13,-164,-42,-4,9,-34,-363,-21,-2,-11,-29,-101,684726
-14,-14,-2,27,17,17,45,94,44,106,28,-48,-60,-1,-60,-123,-58,-81,-65,-74,-232,-94,-54,-26,-98,-419,-48,-43,-52,-70,-88,684727
33,-5,-6,26,32,40,120,63,43,154,108,-30,-60,-14,16,-108,-84,-124,-115,-56,-152,-96,-79,-79,-55,-304,-99,-98,-99,-111,-168,684728
69,16,-9,46,32,43,205,197,-47,8,205,-29,-334,-122,-41,-57,-75,-106,-119,-15,-45,-55,-75,-83,31,-145,-101,-85,-95,-111,-263,684729
83,7,-45,21,5,21,224,122,-136,37,154,26,-178,26,-5,-14,-66,-98,-116,25,44,-25,-60,-86,100,9,-105,-87,-102,-108,-228,684730
90,23,-33,16,15,30,167,-9,-55,6,305,41,-45,-51,58,40,-28,-43,-76,65,99,23,-25,-44,141,76,-62,-52,-55,-63,-176,684731
-52,-7,-4,-20,-20,5,-94,-57,13,34,19,62,-50,-23,15,-87,-1,-7,4,-65,-208,-56,-24,61,-122,-378,44,21,4,12,123,684732
-176,-33,27,-16,-26,-3,-260,-121,88,-39,-470,-66,85,14,3,-235,48,49,150,-197,-617,-121,28,196,-425,-1020,175,118,114,111,367,684733
-166,-28,42,29,-10,15,-196,-82,19,5,-114,-113,94,-57,-23,-248,51,42,175,-205,-658,-114,36,198,-440,-1128,168,115,141,112,275,684734
-108,-15,9,31,-6,3,-48,168,20,0,-106,-22,30,208,-28,-160,51,30,117,-99,-445,-54,41,124,-248,-850,91,79,106,67,172,684735
17,-7,-40,-6,-1,-2,106,141,57,88,88,110,14,202,34,18,12,-19,-27,68,2,44,14,-23,97,-185,-47,-5,7,-23,-68,684736
73,12,-52,-10,14,-3,116,100,56,-93,-21,77,-6,38,57,83,-8,-34,-76,123,197,76,12,-53,237,139,-80,-42,-35,-53,-214,684737
34,-3,-54,-31,-17,-21,47,55,-55,-257,-96,51,4,26,37,31,-25,-57,-92,71,154,42,-8,-54,179,115,-89,-65,-61,-69,-186,684738
30,-6,-24,-11,-7,6,79,-18,-79,-151,-155,29,-109,128,-38,22,-12,-33,-68,66,132,42,-6,-25,146,81,-61,-44,-42,-41,-79,684739
31,1,15,20,13,52,60,-37,-27,77,-153,-76,-89,10,-21,-46,-36,-58,-73,-14,0,-17,-51,-34,25,-83,-62,-62,-57,-56,-7,684740
14,-14,17,21,16,37,12,-155,26,32,-354,-121,24,-197,-20,-94,-65,-79,-79,-78,-102,-61,-86,-34,-65,-210,-69,-68,-77,-67,-46,684741
-40,-18,18,39,2,16,-4,-129,19,26,-136,-110,-115,-290,-6,-138,-47,-46,-16,-114,-239,-86,-52,14,-159,-441,-30,-23,-35,-28,64,684742
-117,-13,1,39,-20,-2,-41,-35,38,24,-12,-169,-38,-260,-56,-207,-10,-10,49,-171,-432,-118,-15,67,-299,-764,36,18,21,18,160,684743
-124,-24,5,22,-20,-3,-116,-221,95,48,27,-9,95,-83,-22,-206,17,15,100,-156,-475,-112,12,103,-318,-857,73,55,64,51,151,684744
-33,-6,-2,15,4,4,-40,-114,48,80,122,100,14,-38,32,-73,23,0,67,-18,-222,-20,26,79,-93,-495,42,48,70,55,-67,684745
24,-10,-35,3,-6,5,48,-68,19,-91,221,80,8,-47,-7,-16,-17,-38,-28,39,-33,3,-16,-13,50,-182,-42,-29,-11,-16,-73,684746
55,-1,-9,19,20,38,95,177,45,-5,252,56,112,29,5,6,-30,-44,-67,62,35,0,-35,-43,101,-48,-67,-51,-47,-43,-103,684747
17,-14,-24,6,-2,19,70,223,5,-115,117,48,59,-138,-3,-3,-18,-33,-64,32,-26,-23,-23,-30,51,-118,-60,-41,-34,-34,-90,684748
-7,0,7,34,0,18,75,85,21,54,93,59,77,-196,-11,-10,36,11,21,32,-83,-17,23,41,14,-229,4,34,37,15,6,684749
-29,-2,2,36,4,22,82,-23,-9,120,-29,25,125,-129,-35,-28,28,16,40,1,-138,-26,41,53,-30,-321,19,54,49,24,73,684750
26,-14,-7,-1,6,36,47,-96,-75,44,-152,65,79,-15,35,-33,-11,-24,-16,9,-85,-21,-7,7,6,-249,-37,1,5,-25,-1,684751
163,14,-18,-6,27,52,94,139,-55,47,55,35,-65,86,99,76,-44,-51,-135,111,215,47,-43,-89,239,195,-120,-68,-64,-88,-180,684752
159,0,-59,-26,-2,17,113,225,-65,102,98,20,-45,9,88,108,-74,-74,-193,140,357,67,-73,-152,321,429,-166,-114,-132,-128,-334,684753
142,-8,-69,-27,-8,14,136,175,-92,-97,-145,21,60,-9,12,134,-58,-71,-167,150,408,100,-52,-141,342,529,-164,-98,-129,-125,-298,684754
120,10,-21,-1,12,24,89,78,-22,85,55,56,193,57,-5,99,-27,-27,-108,113,325,87,-32,-83,247,398,-95,-65,-78,-69,-142,684755
-20,-23,-2,-6,-16,-1,-93,-132,19,172,-142,-117,20,-69,-47,-56,-14,-8,-17,-43,-43,-17,-32,4,-58,-142,-12,-12,-35,-17,59,684756
-42,-35,10,-9,-11,15,-154,-276,142,48,125,-95,4,-125,-13,-88,-15,-3,26,-80,-149,-36,-21,41,-125,-327,25,15,7,6,142,684757
-24,-20,21,-14,-2,33,-113,-138,77,28,272,-37,-15,51,32,-59,1,12,20,-44,-99,-4,-13,33,-71,-295,17,31,19,16,94,684758
1,-21,6,-27,-15,17,-85,-116,-58,51,-107,4,73,-91,-15,-39,-7,-2,-5,-21,-34,2,-33,7,-23,-212,-14,11,-6,-14,69,684759
20,-19,12,-31,3,35,-69,-257,-92,-103,-275,-29,-70,-93,4,-51,-10,-7,15,-34,-40,3,-32,5,-39,-231,-8,3,-3,-16,56,684760
38,-21,-4,-22,12,27,-25,-47,-54,-7,-2,9,-72,-3,33,-18,-7,-10,-7,1,18,21,-28,-10,13,-138,-24,-3,0,-18,-3,684761
40,-16,-21,-26,-2,-2,36,-18,-2,-87,154,64,75,-88,-45,23,3,-4,-28,48,98,48,-7,-17,88,-9,-32,-7,-2,-13,-16,684762
48,12,-23,-6,-10,-6,111,84,6,-79,298,121,92,68,9,91,23,19,-14,118,206,95,23,-1,174,156,-12,18,12,18,-26,684763
20,0,-31,-19,-26,-8,-7,-13,62,67,221,136,114,98,22,76,16,12,-20,97,181,70,9,-9,159,153,-12,9,4,-4,38,684764
-27,-22,-27,-40,-29,-12,-177,-112,-31,23,-185,70,80,8,41,9,7,14,-4,9,27,5,0,-4,36,-37,-3,12,-5,-11,100,684765
-44,-16,-2,-3,-11,-16,-214,-96,37,99,-336,90,-89,231,-37,-15,43,53,49,-11,-100,-9,26,51,-66,-229,60,61,37,53,167,684766
23,-15,-1,-3,6,6,-68,-148,1,28,25,102,-17,224,-31,53,42,46,33,66,25,41,46,39,53,-34,36,59,47,55,-10,684767
5,-21,-13,1,-9,10,70,-73,6,-121,29,21,19,134,-52,3,-16,-4,-20,17,-21,-19,-13,-7,12,-52,-18,1,2,-4,30,684768
39,1,-22,10,5,11,200,-161,-67,40,14,-93,91,28,29,14,-40,-48,-73,26,51,-30,-47,-67,51,51,-85,-59,-54,-42,-21,684769
85,6,-31,-10,11,10,224,112,8,108,-190,-32,35,-130,58,57,-72,-82,-145,67,181,-26,-83,-130,155,285,-138,-118,-119,-85,-134,684770
78,7,-21,-9,8,14,146,44,-16,102,-171,136,17,-24,-6,62,-54,-50,-121,69,180,0,-62,-99,148,287,-101,-90,-91,-64,-80,684771
-35,-10,-3,-6,-15,-5,-73,-72,-131,72,-43,-5,-104,118,-78,-57,-20,-9,-7,-53,-107,-49,-37,-5,-92,-194,-8,-19,-17,10,68,684772
-29,-10,4,8,-3,-8,-105,-19,-49,115,108,-23,129,-141,-1,-71,-16,-13,-10,-57,-120,-49,-30,-17,-97,-238,-22,-22,-15,-6,86,684773
-47,-27,-8,0,-11,-23,-67,6,54,196,166,35,234,-75,-9,-61,2,11,13,-49,-139,-26,3,11,-94,-301,5,7,15,13,131,684774
-27,-15,4,8,-8,-9,-21,33,124,1,253,-4,104,-25,24,-25,44,58,59,-15,-88,20,42,50,-65,-275,39,48,55,58,192,684775
11,-1,2,11,4,24,18,-9,20,-89,148,37,118,-134,-31,27,43,33,26,45,40,61,38,13,35,-106,2,30,40,34,-63,684776
32,-17,-2,-14,14,24,-7,107,-56,40,281,27,16,-160,-66,28,1,-13,-4,49,103,59,-11,-32,82,-15,-38,-3,-2,-12,-134,684777
72,-14,-1,-17,19,27,10,173,-14,49,22,0,-34,6,-27,40,-12,-12,-36,59,148,52,-40,-63,103,59,-57,-29,-23,-37,-69,684778
71,-10,-8,-14,12,16,16,10,-100,-105,-91,117,85,157,38,47,5,4,-30,61,140,57,-19,-52,89,54,-36,-23,-17,-31,-57,684779
38,-3,-17,4,3,-11,37,-180,-77,-98,-39,104,-14,263,83,40,28,25,17,56,101,60,2,-14,64,-9,-7,18,13,-2,-34,684780
3,3,-25,2,-6,-23,71,6,-86,65,-134,38,-121,227,-3,21,11,20,3,32,68,31,-7,-29,50,-52,-14,3,11,-9,10,684781
-35,-10,-3,-1,-13,-18,15,-134,2,158,-266,-125,-166,134,-60,-42,-11,4,7,-49,-76,-21,-30,-29,-73,-238,-2,-13,1,-19,87,684782
-52,-13,10,10,0,-7,-47,-136,-35,62,-206,-104,51,1,-55,-104,-26,-17,26,-98,-206,-64,-37,-4,-189,-436,-10,-5,11,-16,126,684783
-39,-40,6,4,-3,-8,-47,-55,-49,-47,-72,-29,76,-28,-78,-84,-22,-14,-6,-72,-177,-57,-38,-17,-131,-389,-28,-15,11,-16,68,684784
-7,-49,3,-11,2,7,-13,107,-32,108,-26,-35,-57,-24,-9,-25,7,10,7,-10,-84,-5,-17,5,-33,-254,12,15,30,9,-1,684785
46,-11,6,9,16,16,46,84,-35,295,26,44,43,-75,-4,34,13,15,11,48,40,36,12,1,69,-65,7,23,28,23,-48,684786
75,6,-12,14,20,18,76,-78,-36,20,-59,47,72,-18,27,60,-19,-16,-51,64,127,35,-14,-58,126,117,-55,-24,-16,-7,-118,684787
54,-13,-13,-21,9,14,-7,55,-124,31,-18,-59,-11,-64,21,34,-24,-3,-50,19,77,7,-34,-63,77,101,-60,-22,-33,-7,-45,684788
45,-27,-19,-42,1,4,-34,22,-27,-63,44,32,-171,28,4,45,-4,-2,-45,29,85,12,-11,-51,85,123,-45,-24,-23,5,-76,684789
-8,-21,2,-13,0,-4,-103,-101,94,-22,97,-84,-186,-68,8,-19,5,10,0,-33,-66,-25,-4,-10,-38,-89,-3,-4,3,40,-3,684790
-19,-29,9,2,3,-16,-90,-155,5,10,55,35,-134,-98,19,-30,27,22,45,-34,-109,-19,20,18,-67,-169,41,28,30,75,28,684791
76,-9,-11,-1,19,0,98,76,27,148,129,107,-95,21,15,110,28,16,-6,104,190,79,41,-41,177,270,-25,3,5,30,-150,684792
169,9,-35,-15,24,1,246,102,-155,154,361,73,-91,59,-44,248,9,-8,-119,234,549,160,5,-141,433,799,-120,-70,-77,-40,-329,684793
150,-2,-60,-54,1,-18,178,-26,-61,-29,18,107,-65,161,20,256,-20,-35,-175,241,632,153,-35,-182,474,955,-160,-101,-127,-88,-425,684794
124,-3,-31,-34,7,3,36,26,16,-251,-6,71,-55,66,48,197,-14,-21,-130,181,521,129,-34,-140,362,808,-107,-75,-108,-75,-250,684795
1,-22,5,-39,-9,-9,-156,-29,-18,-100,86,24,129,-50,-28,27,5,11,-29,20,125,40,-16,-24,36,190,-1,-21,-32,-12,39,684796
-38,-26,18,-22,-11,-12,-172,165,85,8,-93,-37,163,56,-34,-35,17,32,21,-28,-46,2,-4,12,-87,-96,34,10,-1,9,107,684797
-26,-31,13,-13,-12,-12,-53,324,58,-85,-236,22,41,37,2,0,27,39,28,4,-11,29,-8,6,-37,-59,38,21,17,9,17,684798
-29,-23,14,7,-2,-1,12,149,19,-46,27,3,-108,-90,51,12,35,36,47,17,4,37,8,3,-21,-59,43,27,33,6,26,684799
-26,-28,-3,-8,-13,-15,33,137,97,3,214,103,-36,-267,21,23,39,29,47,39,28,39,37,-14,7,-42,15,33,32,-3,22,684800
43,6,20,7,23,17,88,231,87,-8,207,67,70,-73,103,84,55,50,41,113,155,87,63,-9,110,138,11,45,38,4,-37,684801
323,32,-66,-31,47,46,395,409,-56,-26,243,146,-60,233,89,390,-52,-87,-260,407,979,249,-53,-296,752,1434,-273,-153,-164,-189,-696,684802
536,41,-127,-93,45,48,531,381,-146,-111,76,322,-104,254,66,614,-218,-241,-601,581,1715,335,-226,-612,1266,2708,-563,-401,-455,-434,-1133,684803
489,39,-112,-112,18,17,367,379,-196,-119,35,297,-122,125,63,606,-221,-223,-623,529,1762,309,-260,-589,1233,2908,-539,-423,-493,-428,-1014,684804
269,24,-36,-108,-18,-2,71,208,-153,23,-136,155,89,-10,57,403,-120,-86,-399,296,1201,187,-181,-353,745,2127,-296,-255,-332,-246,-392,684805
-119,-10,77,-63,-36,-22,-251,-221,-28,62,-245,-91,136,-274,22,-12,49,109,49,-127,12,-47,-18,70,-180,329,115,32,-8,67,397,684806
-107,0,46,-17,-18,-39,-89,-143,-20,-74,-313,-26,35,-153,-31,-8,61,103,118,-104,-96,-35,25,109,-186,137,132,70,69,128,333,684807
-105,21,39,12,-14,-39,-67,-126,-43,-37,-133,-63,-6,-113,-33,-28,67,112,138,-106,-171,-37,43,128,-206,26,146,106,99,145,324,684808
-122,9,33,11,-14,-39,-97,5,93,41,-242,-82,274,60,-21,-65,44,77,121,-131,-234,-65,30,90,-241,-84,115,87,73,137,275,684809
-71,11,65,24,6,-3,-75,84,62,27,-122,23,289,42,-30,-34,59,85,114,-80,-177,-35,37,86,-182,-27,115,87,80,143,170,684810
8,9,43,23,19,13,8,15,27,-165,-37,51,133,48,28,24,29,41,43,-21,-26,-9,15,21,-48,213,49,49,36,93,-20,684811
317,16,-68,-8,35,17,441,113,-53,-71,338,124,-11,128,104,390,-68,-91,-262,347,924,210,-70,-276,710,1644,-253,-162,-184,-113,-667,684812
490,57,-106,-27,48,22,656,129,-83,-82,532,145,-145,163,79,613,-134,-154,-477,538,1560,320,-144,-473,1144,2678,-431,-306,-351,-266,-876,684813
418,59,-93,-59,22,-1,538,263,-131,30,402,191,-238,98,46,538,-156,-159,-516,431,1494,248,-187,-496,1010,2665,-436,-352,-407,-316,-668,684814
202,47,-18,-51,-4,-16,249,-86,-66,77,130,-20,-34,-187,-56,318,-102,-67,-315,191,927,120,-141,-281,516,1836,-224,-218,-282,-199,-280,684815
-90,22,57,-12,-36,-46,-89,-444,-76,24,-230,-168,46,-221,-77,-10,40,90,62,-101,22,-25,-12,71,-166,413,118,30,-12,54,310,684816
-99,32,69,21,-32,-35,-83,-424,-52,217,-120,-141,108,-87,-94,-36,85,118,146,-83,-108,-11,48,118,-223,129,157,79,73,109,361,684817
-65,16,43,13,-17,-34,-66,-188,127,288,-51,-72,18,-240,-16,-7,44,73,95,-36,-6,9,27,45,-127,239,83,34,34,44,186,684818
-54,8,49,10,0,-18,-87,-95,161,153,-50,-4,-14,-158,65,15,38,64,96,-8,19,21,23,43,-86,262,83,48,48,39,120,684819
-31,19,30,6,1,-17,-32,-25,44,52,86,-4,110,54,26,64,53,76,114,41,86,71,40,62,-19,331,98,71,74,57,160,684820
-35,23,28,8,3,-10,-7,30,-16,42,126,-17,60,31,15,35,49,66,104,25,59,59,40,54,-42,277,86,48,67,50,139,684821
104,30,2,0,24,11,151,102,-41,102,182,72,70,133,65,146,-6,-8,-52,122,380,104,0,-93,205,787,-61,-51,-39,-51,-174,684822
244,23,-43,-31,22,14,352,95,-41,-29,134,77,3,131,55,309,-59,-70,-220,252,812,171,-63,-255,529,1506,-213,-160,-172,-167,-437,684823
284,42,-46,-21,23,12,492,93,2,-182,201,32,-63,167,28,355,-85,-90,-293,270,964,179,-100,-302,619,1807,-253,-203,-241,-206,-526,684824
165,49,6,5,18,19,362,-68,-8,-103,107,-50,-88,157,-35,220,-69,-49,-213,113,647,87,-96,-207,331,1380,-168,-164,-185,-141,-161,684825
-33,19,56,7,4,-14,12,-184,17,-116,-34,-139,-215,108,-39,-11,-14,3,-11,-107,47,-55,-54,-23,-118,503,15,-45,-46,-3,142,684826
-57,25,60,10,2,-22,-120,-123,-24,-69,-198,-104,-115,15,-23,-36,26,39,63,-112,-91,-64,-14,39,-183,282,64,18,16,57,230,684827
-53,23,63,-1,9,-5,-152,-151,49,169,11,-77,16,104,-3,5,68,74,110,-50,-79,-24,39,88,-135,277,119,62,69,108,208,684828
-16,10,60,-2,25,9,-142,16,42,42,112,-58,-34,127,-8,32,61,74,102,-23,-38,-2,47,86,-76,346,109,67,77,111,108,684829
-8,-1,49,-5,9,-4,-118,17,64,163,263,-51,-101,43,-21,19,20,33,46,-49,-40,-27,3,25,-84,366,50,37,36,56,140,684830
-30,5,49,8,7,-11,-55,39,66,127,267,-111,67,-115,-2,39,2,16,7,-30,5,-32,1,-12,-58,431,20,23,2,36,57,684831
29,8,25,1,11,-4,86,46,61,-117,-34,0,154,-9,23,135,-4,-1,-27,87,244,45,-6,-56,138,769,-26,-21,-30,1,-178,684832
332,46,-45,-42,30,29,462,305,-70,-116,263,269,-11,233,118,488,-76,-102,-316,426,1178,253,-86,-335,851,2208,-293,-197,-237,-196,-701,684833
408,65,-51,-73,30,32,500,420,-111,-26,426,122,-128,30,87,554,-131,-142,-450,461,1480,284,-155,-438,1010,2731,-387,-297,-352,-290,-776,684834
245,36,-7,-73,10,17,239,330,-78,-53,-35,-46,18,-57,0,319,-139,-121,-339,207,990,133,-171,-314,570,2073,-266,-251,-312,-239,-351,684835
-15,47,87,16,17,19,-90,161,59,33,-77,-85,129,59,17,8,-6,34,14,-94,104,-25,-52,34,-106,716,68,-17,-48,13,310,684836
-47,35,64,31,8,-1,-66,159,-58,-1,-259,1,30,14,1,5,24,51,52,-93,12,-19,-13,48,-134,534,78,5,-1,46,222,684837
-57,30,63,8,9,-2,-95,0,-82,49,-274,-46,184,-93,-77,-24,11,34,49,-107,-39,-40,-8,25,-160,434,50,-6,10,30,170,684838
-49,14,75,0,19,22,-137,134,122,14,-190,-135,190,-43,-57,-50,5,22,59,-127,-98,-56,-16,38,-185,316,61,5,11,34,139,684839
-66,-2,74,-5,2,13,-143,243,70,-22,-315,-134,207,-69,-21,-52,8,27,65,-128,-136,-54,-13,54,-203,239,77,18,21,48,162,684840
-42,18,76,16,14,24,-97,10,54,-100,-75,-14,131,-140,27,-18,14,29,71,-87,-88,-21,-1,59,-150,296,78,29,38,62,122,684841
152,24,4,12,29,18,114,83,-19,13,120,-21,43,94,44,174,-74,-86,-148,120,477,73,-83,-163,301,1160,-139,-126,-126,-89,-376,684842
341,34,-38,-10,52,39,315,230,-107,57,273,55,40,-9,103,378,-118,-142,-341,312,1061,190,-123,-346,736,2109,-321,-255,-264,-228,-740,684843
404,43,-36,-33,53,45,453,298,-191,102,199,94,124,30,128,462,-120,-136,-405,376,1283,232,-142,-388,858,2528,-354,-283,-320,-262,-704,684844
285,67,2,-20,35,26,449,201,-119,-26,239,31,174,-57,17,334,-126,-109,-349,223,999,132,-148,-310,586,2181,-272,-248,-292,-215,-422,684845
-72,37,78,12,-7,-10,7,-2,91,-209,58,-170,244,-128,-63,-61,-37,4,-33,-167,4,-96,-69,-6,-201,690,4,-57,-79,-18,230,684846
-120,16,76,2,-20,-15,-163,-58,-27,-166,-152,-172,97,-316,-124,-116,-10,19,28,-196,-203,-131,-54,31,-329,338,53,-22,-23,23,216,684847
-72,15,84,-14,-1,0,-210,-156,-17,-66,-163,-27,196,-324,-25,-58,24,30,43,-126,-157,-75,-18,50,-262,357,72,10,18,47,133,684848
-63,6,79,-12,1,-2,-217,-111,124,-79,-174,-48,256,-209,-76,-30,39,63,80,-85,-160,-41,6,82,-229,333,99,62,63,67,125,684849
-28,39,62,28,22,11,-125,-72,66,49,-91,11,86,76,-12,23,76,89,113,-21,-71,14,56,105,-135,412,117,95,99,92,167,684850
-22,30,45,37,11,-3,-70,78,86,5,-188,-39,-94,50,42,33,65,72,93,-6,-28,7,40,82,-107,455,93,78,71,80,95,684851
249,55,-45,-6,23,-5,290,-27,-45,-56,101,116,92,89,108,336,-30,-48,-171,302,780,172,-50,-186,541,1702,-163,-104,-105,-96,-519,684852
544,64,-137,-59,23,3,606,61,-178,-205,170,357,-53,321,171,684,-137,-162,-507,605,1745,359,-146,-473,1246,3259,-439,-320,-356,-316,-1055,684853
482,98,-78,-37,29,8,492,134,-145,-95,15,219,-193,263,162,615,-113,-119,-492,493,1636,295,-141,-424,1074,3221,-390,-303,-362,-307,-843,684854
204,68,2,-40,-5,-15,172,-82,-98,-91,-135,102,12,0,35,335,-59,-24,-280,184,941,122,-105,-212,486,2238,-170,-180,-236,-169,-307,684855
-74,31,103,-29,-18,-19,-179,-161,73,-68,-272,18,106,-83,-36,5,24,90,47,-126,66,-58,-14,61,-173,902,87,16,-21,31,313,684856
-88,24,103,-8,-4,5,-160,-220,181,-138,-431,-84,4,-39,9,-49,12,50,83,-154,-82,-80,-20,82,-252,642,103,27,21,55,280,684857
-84,45,96,34,12,26,-94,-98,98,24,-13,-110,97,7,14,-30,25,48,87,-120,-67,-53,6,93,-210,627,112,44,45,78,259,684858
-88,43,76,34,1,4,-86,7,-9,84,68,-96,199,-2,-16,-47,18,45,75,-124,-95,-59,7,72,-209,564,81,30,52,72,203,684859
-80,23,67,11,-9,-1,-126,96,17,106,84,-178,118,-6,-28,-66,-11,20,32,-144,-116,-78,-15,33,-218,522,56,-2,26,51,201,684860
-64,14,73,12,1,9,-142,-237,155,84,82,-109,84,79,-45,-65,0,18,62,-138,-144,-73,-2,50,-220,467,77,26,42,68,164,684861
-42,19,58,18,3,1,-60,-66,24,-97,2,31,152,46,-61,-47,-3,4,50,-104,-97,-51,-2,36,-158,539,62,13,51,53,63,684862
-19,30,49,26,11,6,53,107,13,-96,141,13,124,-42,-35,-1,5,14,29,-68,-12,-28,2,22,-85,657,46,17,39,30,-31,684863
-35,41,56,58,26,16,66,51,68,-10,25,-105,-51,16,-24,-24,24,34,82,-92,-107,-43,18,57,-168,487,87,54,62,51,137,684864
-94,15,49,47,1,-16,-51,-31,139,-51,-16,-138,31,35,-71,-102,19,29,110,-153,-282,-92,22,83,-293,220,109,55,77,63,179,684865
-78,14,40,29,-7,-11,-98,-32,134,-74,-17,-72,-102,156,-33,-80,4,7,72,-110,-221,-82,7,65,-237,287,78,39,61,48,86,684866
-37,23,27,22,-5,-18,-72,-28,65,14,149,-46,31,2,41,-12,20,17,78,-19,-60,-12,30,56,-106,477,67,53,55,42,4,684867
-36,17,28,34,1,-14,-47,47,121,-17,31,36,-69,55,-18,25,51,57,129,26,-11,27,77,96,-73,504,108,83,101,71,99,684868
-51,13,34,22,-6,-9,-74,-81,78,-64,61,28,-98,33,-18,0,32,52,94,-2,-71,-12,46,90,-129,423,107,51,94,65,161,684869
-81,13,54,11,-3,8,-142,-294,61,-67,-82,-38,48,-39,-2,-60,47,63,127,-59,-235,-44,56,125,-246,182,128,77,112,69,256,684870
-42,19,45,24,9,17,-99,-156,-4,-111,-92,-112,-63,188,-93,-31,44,50,104,-27,-166,-14,49,84,-170,267,87,56,93,42,129,684871
-164,19,83,41,2,13,-257,-35,-1,-36,-257,-132,11,29,-126,-198,54,73,183,-206,-553,-127,65,167,-487,-337,180,109,137,100,425,684872
-479,-15,169,76,-22,2,-628,-255,148,-51,-685,-294,3,-105,-64,-587,136,180,497,-575,-1566,-337,139,472,-1240,-1932,465,318,370,308,1036,684873
-450,-25,153,92,1,20,-563,-266,40,-11,-168,-260,112,-124,-57,-582,158,174,562,-519,-1624,-305,176,503,-1206,-2150,487,352,450,365,916,684874
-264,-23,80,71,23,28,-272,-28,45,220,109,-131,136,-63,-15,-374,114,87,391,-298,-1096,-172,151,318,-754,-1442,301,250,344,250,554,684875
35,7,5,62,55,49,83,3,59,-40,148,67,-65,81,15,-52,-10,-45,44,4,-199,-7,44,-15,-57,-57,-19,36,86,10,-172,684876
39,-5,-9,30,40,32,54,-7,-35,17,346,141,-113,43,32,-22,-23,-43,5,-9,-104,-9,22,-26,-18,140,-31,8,37,-3,-154,684877
-3,7,3,44,17,6,18,21,-56,-53,443,83,-87,88,-22,-22,33,20,86,-20,-153,7,65,65,-68,54,58,83,100,73,14,684878
-9,18,-3,40,15,-18,31,5,-9,149,116,103,1,236,-12,-8,30,28,75,-23,-110,22,61,54,-36,134,66,68,87,70,33,684879
-18,24,8,45,19,-11,2,-74,14,48,-75,32,-37,204,33,-31,13,8,38,-46,-123,-5,44,39,-58,133,45,49,58,42,36,684880
-70,10,17,28,9,-1,-104,-44,3,-46,-84,-40,116,80,5,-103,33,28,68,-120,-295,-59,55,85,-205,-138,83,73,83,55,200,684881
-359,-21,138,66,8,12,-488,-230,179,123,-147,-114,32,-316,0,-438,178,202,462,-438,-1246,-223,199,445,-938,-1646,442,328,350,321,898,684882
-632,-41,213,124,11,12,-737,-477,279,76,-261,-296,129,-210,-70,-754,293,320,803,-684,-2151,-372,324,764,-1586,-3166,728,550,622,561,1457,684883
-691,-52,211,158,12,5,-745,-538,256,149,-221,-286,170,-299,-58,-863,301,319,862,-732,-2450,-419,357,796,-1738,-3778,757,593,698,600,1478,684884
-456,-54,118,145,35,21,-469,-173,173,151,33,-41,-80,-104,-6,-622,248,220,686,-447,-1886,-257,321,603,-1202,-3027,551,485,588,469,831,684885
109,-6,-40,89,77,71,163,178,-102,124,265,240,-173,201,97,19,84,8,153,205,-234,117,180,73,113,-539,32,158,222,95,-213,684886
121,1,-47,51,62,59,152,309,-27,243,386,241,-126,230,123,93,56,-3,26,228,28,125,130,-3,226,-82,-16,79,103,-11,-249,684887
48,-12,-30,33,38,40,29,135,45,-23,110,214,-29,277,93,12,23,-10,11,138,-81,50,85,2,87,-197,3,48,62,-26,-101,684888
77,1,-28,29,42,51,-4,69,-65,-16,164,238,-45,390,95,40,31,2,17,163,-22,73,79,9,119,-99,9,48,65,-12,-70,684889
110,-11,-65,-13,25,29,35,146,-71,-163,295,176,-83,292,99,87,-1,-40,-48,200,149,87,45,-43,236,172,-54,-14,-1,-63,-258,684890
89,-21,-48,-30,16,26,52,104,-82,-83,86,87,-128,22,29,70,9,-22,-44,175,143,76,46,-21,201,187,-39,-28,-2,-60,-96,684891
-574,-47,174,66,-18,11,-767,-295,155,-83,-456,-286,101,-292,-118,-725,191,230,570,-629,-1857,-388,205,585,-1408,-2860,556,384,409,341,1455,684892
-1127,-111,319,160,-38,-11,-1459,-706,376,80,-548,-558,213,-587,-212,-1430,362,425,1206,-1262,-3784,-756,393,1150,-2792,-5964,1089,782,884,767,2364,684893
-1072,-127,305,222,2,33,-1370,-707,421,118,-623,-436,341,-259,-103,-1399,427,449,1338,-1162,-3939,-680,474,1226,-2729,-6473,1157,888,1038,890,2097,684894
-616,-113,133,194,48,51,-693,-230,220,166,-163,-16,35,144,58,-864,334,269,949,-599,-2675,-349,416,804,-1606,-4737,738,673,819,642,1006,684895
148,-52,-109,89,88,82,372,542,-26,122,470,299,-120,236,160,-11,23,-93,50,201,-308,105,149,-53,214,-1132,-85,85,186,25,-539,684896
219,-15,-115,71,85,70,446,408,-47,-98,324,228,-79,130,154,87,-32,-120,-145,226,102,115,71,-180,410,-386,-201,-38,-13,-119,-603,684897
201,-1,-93,55,73,55,359,146,-50,-216,182,216,-9,187,120,99,-5,-74,-123,201,126,123,71,-116,372,-290,-130,-10,-11,-79,-432,684898
154,-5,-92,33,53,41,293,56,-75,-166,284,175,8,225,68,75,-18,-71,-112,161,111,102,51,-94,332,-253,-106,-13,-20,-58,-277,684899
139,-6,-84,33,45,45,248,84,32,5,203,203,-200,208,17,56,-17,-70,-111,147,122,88,42,-88,303,-195,-105,-14,-39,-55,-288,684900
82,-27,-57,5,31,37,148,90,-37,-68,26,169,-204,131,30,21,-11,-53,-90,92,37,51,32,-56,197,-300,-70,-8,-35,-41,-198,684901
-328,-48,94,36,-6,23,-389,-209,135,-23,-164,-43,52,-198,-54,-429,152,163,359,-362,-1188,-194,161,386,-792,-2173,371,286,272,255,835,684902
-857,-89,228,131,-30,-11,-1028,-544,277,170,-396,-396,105,-263,-122,-1079,316,356,937,-944,-2933,-539,334,914,-2081,-4972,868,639,694,622,1805,684903
-914,-103,214,172,-10,2,-1092,-609,314,125,-646,-359,84,-110,-107,-1170,348,361,1067,-952,-3273,-564,414,990,-2228,-5695,920,724,835,701,1823,684904
-586,-110,93,138,16,22,-770,-169,182,142,-315,-136,-28,-74,24,-814,274,231,818,-533,-2430,-330,367,709,-1460,-4594,645,576,693,531,1026,684905
155,-55,-119,61,78,73,94,201,-135,230,216,360,-32,99,146,30,41,-48,62,305,-199,156,167,-18,289,-1227,-53,108,167,29,-488,684906
225,-31,-126,33,65,71,180,305,-22,182,231,308,-264,310,150,157,-11,-87,-124,374,243,197,81,-133,520,-465,-151,-13,1,-101,-559,684907
191,-19,-99,28,61,56,238,92,-10,215,121,252,-179,282,98,135,3,-58,-136,333,257,178,68,-117,469,-376,-130,-15,-25,-97,-435,684908
126,-10,-77,42,39,48,344,129,-62,181,206,193,-204,50,61,70,-12,-61,-114,252,171,128,61,-100,347,-477,-108,-17,-50,-95,-272,684909
125,-17,-86,25,35,41,327,242,-106,16,136,112,-81,47,38,28,-52,-97,-149,202,150,81,11,-137,291,-461,-145,-69,-107,-128,-371,684910
102,-14,-71,17,30,39,191,121,9,219,37,133,59,69,57,-34,-25,-52,-86,119,-18,47,24,-55,146,-688,-74,-27,-47,-76,-141,684911
-378,-47,96,78,1,30,-391,-163,184,218,-82,-189,-48,-251,-42,-564,131,155,395,-432,-1437,-255,174,419,-966,-2852,389,298,279,245,1067,684912
-904,-94,245,184,-4,22,-950,-488,463,210,-386,-483,202,-296,-233,-1191,294,341,986,-1010,-3147,-598,335,944,-2214,-5606,887,670,717,637,1920,684913
-825,-103,192,222,23,33,-796,-547,376,224,-292,-257,100,-72,-157,-1140,300,305,1004,-898,-3153,-540,368,916,-2073,-5812,854,690,787,662,1595,684914
-366,-59,40,194,66,66,-225,-297,150,240,87,-28,-232,56,-1,-629,193,146,597,-342,-1897,-228,304,513,-989,-4023,441,442,543,408,475,684915
198,-28,-159,88,67,62,453,66,-20,78,225,234,-402,212,92,64,-5,-101,-54,299,-50,146,118,-102,433,-1202,-150,30,78,-27,-681,684916
253,-17,-150,34,60,53,448,161,79,74,278,224,-27,237,103,155,-14,-94,-163,341,271,182,78,-163,589,-605,-197,-16,-26,-99,-496,684917
192,-21,-107,25,59,63,324,176,57,-21,155,215,-79,239,137,94,-14,-71,-129,234,170,126,58,-108,433,-685,-143,-7,-48,-92,-352,684918
148,-16,-91,24,55,61,271,14,-13,-6,66,228,-61,-22,67,44,-14,-65,-121,177,102,87,44,-92,337,-739,-125,-12,-62,-94,-287,684919
160,10,-72,50,62,63,268,-164,57,52,261,211,-71,-9,44,67,-6,-40,-125,184,128,89,42,-89,341,-676,-121,-37,-67,-92,-279,684920
114,-10,-79,31,28,28,214,-20,-132,97,294,70,-240,-84,54,50,-3,-30,-123,155,104,72,33,-91,286,-679,-111,-43,-72,-92,-199,684921
-56,-8,-49,26,7,2,53,-53,-63,18,83,13,-175,-98,50,-89,67,50,44,15,-285,11,88,84,-39,-1287,55,96,46,27,188,684922
-232,-40,-29,19,-25,-17,-158,-319,28,51,-347,24,-151,53,-49,-256,116,109,224,-135,-756,-80,141,257,-392,-2049,230,208,185,158,549,684923
-247,-46,-16,28,-15,2,-257,-205,55,30,-223,53,-139,30,-11,-302,117,113,271,-163,-904,-97,168,281,-483,-2324,251,216,219,179,456,684924
-113,-20,-25,56,16,34,-81,-1,57,-51,-250,121,-194,166,58,-151,126,94,233,-1,-584,16,186,216,-212,-1913,176,204,204,153,213,684925
118,-12,-99,34,33,32,304,114,-115,17,133,154,-147,104,39,81,23,-34,-43,219,93,131,68,-45,290,-870,-66,21,9,-46,-328,684926
146,-15,-78,24,48,56,346,125,21,-112,264,108,81,144,44,59,-25,-58,-126,190,151,94,7,-97,295,-727,-116,-44,-69,-104,-279,684927
130,-9,-53,20,44,62,314,282,1,42,156,71,65,77,33,27,-48,-65,-149,147,117,60,-19,-109,248,-741,-130,-67,-102,-112,-225,684928
56,-5,-47,32,24,39,220,182,-81,74,-17,95,-62,-6,119,-11,-27,-58,-86,97,29,42,0,-68,168,-867,-92,-40,-77,-88,-138,684929
47,-15,-72,33,9,9,211,55,-31,96,-93,112,-115,-84,16,9,-26,-44,-65,126,74,63,5,-51,198,-774,-78,-34,-62,-61,-115,684930
67,-7,-71,25,22,24,180,-133,55,131,204,112,18,-33,40,15,-23,-50,-65,130,97,62,0,-55,219,-717,-75,-25,-46,-48,-105,684931
