-613,-65,172,107,-11,10,-633,-321,294,78,-123,-194,86,-184,-89,-733,239,269,779,-664,-2101,-344,277,704,-1470,-3380,674,441,466,565,1304,734356
-483,-72,114,115,4,13,-416,-364,226,-40,-34,-205,221,-147,-40,-671,160,160,629,-554,-1878,-308,238,524,-1227,-3165,486,333,405,411,902,734357
-21,-36,-24,80,49,52,114,-43,-17,46,218,-25,31,75,9,-197,8,-47,147,-57,-612,-60,96,51,-187,-1231,21,50,178,52,-131,734358
119,-31,-73,40,42,30,210,240,22,-42,26,102,-70,219,24,-16,-51,-112,-87,90,-60,13,18,-131,161,-326,-140,-90,-1,-148,-329,734359
68,-19,-54,34,24,16,150,252,23,-55,-91,72,-192,121,95,-30,-11,-54,-45,55,-96,7,41,-71,68,-374,-54,-57,-9,-140,-121,734360
79,-1,-41,31,32,38,190,126,45,29,-69,125,-118,347,42,25,19,-18,-22,96,-2,41,65,-38,114,-239,-19,-37,8,-133,-107,734361
51,-1,-25,28,33,31,143,83,61,129,37,6,4,200,52,-11,11,-18,-15,41,-96,9,44,-16,32,-342,-4,-36,-13,-147,-15,734362
24,-5,-39,4,15,22,65,144,-9,136,-65,41,115,5,52,-44,-10,-21,-5,16,-130,-8,14,-23,-8,-381,1,-42,-21,-147,-34,734363
-136,-16,27,24,16,26,-239,-42,45,111,-250,-4,46,-163,-66,-225,33,45,150,-187,-611,-121,50,143,-411,-1117,155,44,51,-29,353,734364
-533,-57,145,78,0,11,-742,-258,205,110,-381,-106,-7,-200,-123,-699,174,205,569,-639,-1883,-364,185,550,-1374,-3156,533,289,275,280,1200,734365
-513,-61,151,118,22,34,-648,-180,167,132,-237,-91,103,-11,-89,-695,238,244,686,-583,-1993,-302,274,624,-1333,-3512,602,397,428,412,1210,734366
-342,-65,73,90,15,24,-358,-203,79,193,-119,18,-76,254,-30,-460,203,190,549,-316,-1466,-149,264,470,-831,-2798,440,344,429,356,720,734367
13,-56,-40,35,41,34,76,76,-25,35,106,180,-122,293,60,-72,48,0,143,84,-379,52,127,83,42,-1126,41,120,249,101,-159,734368
138,-31,-64,23,51,38,209,114,-66,258,88,141,-16,289,56,50,-21,-66,-40,171,40,94,41,-67,306,-395,-102,3,111,-9,-296,734369
108,-29,-52,26,43,37,184,136,-44,235,72,49,68,290,60,-3,-27,-75,-70,102,-3,44,19,-70,231,-399,-103,-36,45,-19,-210,734370
109,13,-31,54,52,50,161,12,-47,291,-66,-49,135,142,102,-1,-7,-35,-47,103,-17,40,41,-27,197,-417,-71,-12,48,17,-127,734371
87,10,-32,41,40,30,108,124,7,234,4,110,142,144,19,18,15,-15,-22,111,20,52,48,6,214,-361,-31,14,55,55,-73,734372
55,1,-40,16,27,26,55,295,48,-11,21,150,41,70,27,31,29,-5,-12,108,33,57,62,8,208,-320,-12,21,49,61,30,734373
-61,-39,-32,-11,-13,-7,-82,360,28,27,-67,175,62,27,33,-80,28,20,38,-6,-226,-17,71,55,-4,-692,39,24,37,73,175,734374
-260,-53,35,10,-18,-18,-327,78,139,30,-253,-15,120,142,22,-307,91,103,276,-238,-851,-132,129,279,-492,-1706,256,158,149,217,606,734375
-309,-30,50,65,0,3,-359,-27,155,13,117,-58,-74,173,-86,-398,120,133,385,-301,-1125,-161,154,363,-666,-2211,333,230,230,283,656,734376
-208,-29,16,80,15,10,-221,-12,123,38,168,-48,-110,31,-41,-335,80,69,279,-210,-928,-121,115,246,-468,-1943,209,160,193,185,397,734377
35,-27,-39,53,35,29,75,202,2,-90,233,-2,-60,220,31,-72,3,-36,33,41,-246,13,44,2,85,-898,-15,16,67,-1,-226,734378
107,-21,-58,28,30,24,193,189,-26,-77,208,137,-94,245,14,22,-25,-73,-86,105,54,43,-1,-93,260,-398,-106,-55,-23,-99,-247,734379
45,-13,-52,19,14,11,157,-63,-19,-3,75,153,-128,-33,12,-45,-44,-64,-88,21,-49,-14,-24,-79,124,-514,-88,-75,-40,-108,-124,734380
79,-5,-43,23,18,23,184,-57,14,-87,-140,91,-3,-1,26,38,-29,-48,-87,88,80,36,4,-64,214,-302,-74,-58,-29,-107,-177,734381
106,-5,-41,14,21,22,160,-124,-3,38,-102,25,-62,26,13,61,3,-30,-63,107,128,60,38,-46,242,-219,-72,-24,-15,-90,-130,734382
94,-11,-45,-8,22,-5,81,-28,-43,-41,-92,8,-29,-38,-13,54,3,-20,-57,88,128,56,42,-42,219,-211,-51,-17,-14,-71,-36,734383
-49,-8,-2,-3,-1,-20,-91,-106,25,79,-30,64,112,-99,1,-61,87,87,113,-31,-222,3,107,126,-69,-776,121,88,79,66,221,734384
-173,-23,35,8,-20,-12,-250,-16,61,21,-230,99,24,36,-76,-225,100,103,206,-169,-631,-89,95,231,-377,-1431,236,142,133,146,453,734385
-177,-35,52,20,0,-3,-264,-59,36,-63,-378,39,-149,-47,-31,-246,108,105,261,-169,-719,-84,116,264,-384,-1620,258,175,168,194,477,734386
-136,-30,26,17,1,-7,-168,-46,101,82,-137,-12,-58,78,12,-186,86,73,216,-89,-583,-42,129,185,-237,-1440,170,151,156,136,281,734387
16,-27,-27,-4,13,-1,52,52,17,187,17,43,36,106,97,11,45,0,29,99,-99,46,74,16,148,-706,8,63,82,23,-12,734388
95,-15,-40,-1,36,27,131,247,41,-27,155,52,137,202,57,73,22,-19,-59,154,109,84,37,-27,288,-360,-37,18,25,-21,-110,734389
105,-1,-33,11,37,21,121,157,42,-183,-10,73,81,112,-61,54,-5,-25,-87,144,116,74,13,-53,282,-309,-40,5,-19,-41,-104,734390
72,-8,-43,2,19,1,65,-3,4,-129,-268,65,88,67,-79,20,-10,-38,-96,105,81,49,1,-63,228,-342,-55,-21,-54,-65,-118,734391
46,-10,-47,-1,0,-15,-4,-198,-44,59,88,82,-97,-112,-47,3,-34,-60,-113,81,82,14,-13,-91,212,-344,-93,-56,-87,-99,-135,734392
23,-2,-49,-5,-5,-28,-28,65,11,144,278,113,-95,103,60,56,14,-11,-53,129,137,65,30,-33,265,-268,-24,-7,-41,-39,-94,734393
1,-6,-41,-22,-11,-29,-75,177,-52,209,171,121,46,228,60,50,24,19,2,119,97,54,38,19,228,-320,41,31,-8,1,1,734394
-65,-36,-10,-22,-23,-31,-142,-67,-103,25,-219,97,82,198,90,-20,60,66,96,48,-118,25,78,93,59,-647,112,96,43,61,148,734395
-54,-19,-4,6,-7,-13,-65,-154,-171,65,-404,-33,-63,31,5,-70,40,36,66,-8,-203,-6,63,68,-10,-783,71,67,33,31,94,734396
11,-6,-2,26,31,15,7,-117,-20,149,-113,3,-83,-70,-57,-63,3,-15,-3,13,-140,-18,15,13,46,-679,17,21,4,-9,-22,734397
56,-17,-29,6,6,8,59,-208,34,-7,-137,91,-172,-218,-51,-5,-28,-53,-71,50,22,1,-14,-51,178,-401,-57,-23,-15,-48,-170,734398
59,-16,-49,-8,-6,-14,96,1,-114,-15,65,-4,35,-132,2,32,-25,-65,-108,71,138,35,-11,-82,243,-195,-76,-39,-25,-51,-177,734399
52,-1,-59,-15,-14,-27,74,97,-52,-116,24,88,-140,-16,19,63,-17,-51,-113,92,198,55,-11,-77,275,-86,-75,-33,-19,-23,-199,734400
61,-5,-62,-20,-10,-23,39,3,-66,-177,-8,202,-90,57,61,74,-19,-36,-108,99,217,60,-27,-64,279,-20,-55,-24,0,7,-137,734401
80,2,-20,-8,11,1,30,62,-19,-133,7,166,0,-52,31,81,-4,-19,-74,100,236,68,2,-40,273,1,-33,-7,21,49,-104,734402
31,13,-1,2,11,0,35,-134,22,-2,266,129,-65,67,35,47,16,-14,-40,71,160,65,11,-10,221,-104,-4,11,32,85,-43,734403
77,0,-47,-27,-16,-25,142,-32,-55,47,72,58,-19,140,-11,132,-7,-30,-118,155,351,93,-10,-81,378,212,-70,-22,-10,33,-234,734404
123,12,-56,-23,1,-7,199,186,-55,-71,-91,113,135,-154,-3,195,-18,-34,-154,221,528,127,-6,-129,500,501,-120,-60,-57,-21,-214,734405
94,7,-44,-30,-4,-12,149,226,-168,-9,-92,46,21,89,35,181,-20,-29,-110,203,492,126,-8,-100,466,473,-85,-45,-77,-26,-154,734406
84,0,-38,-49,-6,-21,91,50,-71,-34,182,8,-237,59,13,141,-29,-38,-140,162,429,88,-40,-120,403,390,-96,-70,-113,-62,-217,734407
49,8,-9,-21,-7,-2,30,55,48,6,125,95,-87,-101,19,63,15,8,-62,92,227,49,-3,-45,238,56,-47,-24,-98,-43,-9,734408
49,17,8,10,-6,4,-2,206,-27,-197,33,179,49,34,-11,64,40,32,13,97,180,60,33,-2,227,-39,7,22,-64,-19,-11,734409
23,23,-11,-1,-11,-22,-46,133,-33,-212,-204,18,-50,67,-24,64,19,6,-37,98,179,42,-5,-42,234,-21,-20,1,-91,-58,-64,734410
3,22,-16,-11,-24,-23,-87,-6,-83,-170,-134,36,-130,42,-80,67,14,11,-53,96,165,50,-5,-42,221,-49,-20,0,-89,-77,-58,734411
15,0,-7,-37,-22,-20,-65,-12,-23,11,44,42,-49,-13,-41,91,33,47,-4,120,184,70,22,-6,246,-38,37,26,-50,-58,43,734412
55,-13,5,-45,-4,-10,67,-29,18,-56,88,12,36,81,22,125,72,77,48,148,202,96,62,37,272,-9,77,68,-14,-15,25,734413
101,-8,-24,-23,13,2,169,-54,35,-14,203,-81,31,0,-26,118,5,5,-42,144,289,79,12,-58,322,137,-32,10,-64,-92,-95,734414
216,32,-53,16,31,31,295,228,-11,59,125,-96,62,-81,9,162,-123,-135,-277,184,564,67,-110,-272,515,630,-235,-158,-212,-261,-430,734415
210,45,-41,13,19,13,246,-77,-104,-17,180,-37,-75,41,51,158,-131,-138,-312,167,601,52,-140,-286,521,763,-260,-183,-229,-262,-429,734416
149,29,-32,-8,4,2,151,107,-17,0,69,91,-36,58,-5,143,-82,-77,-218,139,527,46,-105,-201,439,666,-162,-111,-157,-160,-274,734417
30,2,-10,-26,-14,-21,33,-18,67,51,-16,167,-70,-47,-1,35,-38,-34,-131,23,249,-3,-54,-104,202,264,-69,-53,-96,-65,7,734418
3,14,8,-8,-5,-13,37,-198,-50,-55,123,44,-79,-208,18,12,3,-6,-64,1,131,-5,-23,-38,117,78,-15,-8,-22,25,-37,734419
0,23,-11,-1,-13,-24,25,-240,9,1,-11,19,-56,-97,32,34,-14,-17,-71,-3,147,-3,-39,-32,148,115,-41,-1,-5,52,-53,734420
-85,15,-8,-7,-26,-40,-133,-165,25,-10,-296,-52,43,142,3,-41,-2,9,13,-69,-49,-35,-25,38,3,-182,25,48,44,130,113,734421
-66,5,-8,-5,-18,-30,-135,-151,-63,-88,12,38,-60,59,-70,-21,17,12,5,-36,-14,-3,-4,21,41,-137,15,52,63,156,85,734422
-28,-3,-3,-14,-6,-15,-51,-43,-148,71,68,-4,-113,128,-40,11,26,4,-8,-10,44,17,0,14,98,-74,6,52,69,157,47,734423
171,19,-26,-22,26,24,251,233,-62,41,-48,89,-81,183,33,172,-30,-74,-161,185,508,109,-55,-136,479,650,-150,-47,-20,39,-282,734424
305,33,-73,-29,25,22,442,230,-104,-219,-43,79,-17,-142,-2,310,-133,-173,-371,307,970,157,-154,-346,800,1430,-348,-188,-186,-160,-646,734425
311,43,-86,-21,18,10,419,187,-131,-134,273,85,-22,-150,20,311,-167,-184,-437,282,1027,116,-194,-405,797,1633,-392,-260,-292,-250,-689,734426
250,52,-45,-32,22,27,303,92,-33,-57,90,21,8,-144,10,249,-151,-150,-384,204,872,67,-190,-339,630,1442,-315,-225,-308,-240,-513,734427
11,36,28,-13,-7,2,-4,-117,114,59,-164,-108,147,-139,-34,30,-27,-6,-92,-41,190,-31,-78,-53,81,396,-20,-46,-176,-77,19,734428
-95,9,43,-5,-30,-30,-64,-114,-15,164,24,-154,24,-112,-19,-48,44,70,104,-96,-120,-52,7,88,-112,-163,120,82,-46,19,281,734429
-58,10,34,1,-14,-28,14,-70,-6,88,24,-58,57,-125,-36,-42,1,25,81,-69,-92,-56,-10,34,-58,-152,55,54,-58,-30,148,734430
1,16,16,4,7,-11,139,3,119,100,132,20,205,-80,-14,7,-49,-25,-24,-13,68,-29,-53,-68,87,100,-34,-22,-110,-121,29,734431
18,23,11,11,8,-10,154,-108,62,1,178,-36,103,-79,-21,5,-64,-38,-46,-23,67,-40,-69,-90,85,106,-61,-37,-123,-150,16,734432
5,22,-9,4,-5,-19,82,-191,-8,-97,35,-109,-119,-42,-61,-51,-94,-67,-86,-73,5,-83,-114,-117,15,4,-96,-69,-159,-188,-161,734433
123,36,-18,3,18,7,170,-106,3,-46,-102,-59,-228,-53,17,96,-72,-75,-140,80,314,23,-108,-156,281,478,-135,-80,-140,-190,-345,734434
300,40,-90,-50,7,2,319,130,-183,-95,184,60,-103,-26,60,347,-111,-124,-318,323,962,182,-131,-315,776,1514,-296,-169,-197,-280,-653,734435
307,36,-101,-79,-16,-30,271,88,-256,-26,-92,136,-10,148,65,426,-98,-104,-371,374,1173,229,-115,-340,880,1926,-322,-193,-231,-294,-595,734436
215,42,-51,-71,-18,-29,139,21,-148,-114,-120,69,-173,200,72,365,-37,-18,-256,290,967,204,-67,-205,683,1654,-184,-107,-162,-173,-341,734437
0,33,29,-50,-35,-41,-59,-101,-1,-115,-1,-2,-146,52,48,133,27,65,-38,49,340,72,-21,11,177,706,33,23,-49,14,84,734438
-58,18,37,-33,-30,-27,-103,-101,-11,87,142,2,-141,10,58,32,12,50,28,-39,85,3,-13,47,10,302,56,59,16,90,119,734439
-12,23,28,-11,-2,-5,-80,34,-52,90,124,-78,-54,-44,-27,34,-1,16,-11,-18,135,17,-27,15,79,361,9,30,22,96,-11,734440
7,10,30,-18,-1,-4,-105,84,-23,120,165,-92,-11,-214,-4,24,8,17,-17,-14,127,22,-27,6,93,350,4,29,29,123,-15,734441
11,-4,30,-32,-14,-10,-92,126,-40,-18,135,-85,12,-114,2,55,7,39,1,11,166,36,-17,20,124,387,31,48,48,153,-7,734442
40,10,13,-11,-10,-11,46,141,60,-91,265,-132,77,-66,-15,91,14,34,-15,47,232,58,1,11,180,491,17,48,42,145,-51,734443
3,8,9,5,-11,-20,66,-131,-10,-48,147,-154,-29,-126,23,7,-26,-8,-36,-33,80,-2,-19,-25,67,294,-29,9,-14,79,27,734444
168,19,-38,-18,5,-18,257,-177,-120,-9,-36,-62,6,-35,65,173,-109,-118,-237,136,566,67,-100,-222,446,1072,-231,-110,-131,-95,-446,734445
173,28,-27,-35,1,-9,220,24,16,-103,-74,-110,115,-1,54,174,-117,-130,-272,130,607,49,-129,-259,431,1192,-251,-149,-189,-161,-467,734446
110,30,-28,-19,-11,-26,133,163,-54,-227,39,-57,24,-186,8,130,-69,-73,-184,75,466,25,-88,-180,286,983,-162,-98,-174,-135,-254,734447
20,42,19,21,4,-12,4,106,-14,-33,61,-49,27,-150,-22,28,-34,-18,-57,-32,157,-30,-65,-64,37,512,-33,-34,-118,-70,-46,734448
-20,19,31,9,4,2,-37,-70,-18,-90,-50,-71,-76,-254,12,-37,-61,-36,-33,-83,1,-78,-86,-47,-76,278,-25,-40,-117,-80,-5,734449
-6,23,36,-1,-2,12,17,-81,-14,-43,93,22,41,-126,-9,11,-10,13,38,-36,37,-30,-26,6,-32,292,13,15,-60,-33,67,734450
-29,14,30,-3,-12,3,24,102,-21,-87,146,-32,-18,-190,-82,6,12,21,66,-48,-19,-38,0,27,-66,194,39,36,-34,-22,93,734451
-3,11,38,-10,14,13,42,-86,36,-98,-109,9,-12,-152,10,-3,-19,-2,20,-52,-8,-40,-31,-4,-63,221,6,5,-57,-53,8,734452
-21,1,40,4,7,-1,-17,-28,-2,-58,-56,-17,-91,-217,-52,-65,-57,-48,-22,-106,-81,-89,-79,-48,-130,106,-45,-36,-95,-104,-19,734453
7,23,39,18,14,12,27,-8,37,-196,-46,-43,-123,-288,-3,-37,-44,-37,-38,-80,-37,-63,-73,-46,-85,162,-59,-25,-69,-95,-12,734454
-4,36,32,23,12,11,26,-16,24,-77,114,26,-135,-307,-19,-17,-3,2,-4,-57,-39,-34,-29,-5,-75,138,-3,10,-18,-39,-20,734455
29,16,16,-14,-2,3,47,207,76,-94,246,69,14,-147,71,61,18,9,-12,27,145,32,0,-28,73,403,-24,14,-12,-31,-111,734456
40,23,28,-12,7,13,53,89,36,63,126,9,41,50,104,89,39,40,26,53,180,56,31,6,100,433,3,46,19,13,17,734457
4,24,23,-1,15,3,-14,-12,-12,117,-130,-18,41,119,27,45,23,33,39,5,80,27,18,27,15,282,25,60,30,35,138,734458
-5,5,29,5,19,21,-79,27,59,83,-206,6,91,-113,-34,14,5,24,23,-11,15,9,-13,27,-22,196,22,45,27,52,73,734459
8,-4,35,-2,20,16,-50,79,93,68,-112,-81,85,-105,-15,27,29,31,43,20,37,32,18,39,2,191,48,73,45,74,57,734460
-16,2,35,6,5,-2,-16,144,71,125,58,-53,60,-62,-14,-28,16,11,49,-42,-69,-3,10,23,-79,29,16,53,31,56,28,734461
-24,7,4,11,8,-10,17,-16,3,128,-33,3,98,66,16,-48,-32,-27,-3,-57,-71,-35,-32,-22,-71,45,-30,3,-12,7,-42,734462
-22,8,13,12,5,-5,-41,-122,52,-12,-14,22,-10,14,21,-66,-27,-19,-17,-69,-99,-44,-43,-23,-99,9,-28,-2,-20,-4,-91,734463
17,9,5,1,5,-4,-33,-53,-12,-207,68,23,-91,-26,22,25,-1,-11,-18,11,50,14,-9,-19,30,220,-16,7,4,10,-65,734464
80,13,-17,-21,5,-12,58,2,-58,129,389,-6,-88,68,97,147,22,14,-13,131,301,106,19,-21,223,594,-8,33,22,22,-192,734465
79,5,-37,-32,-8,-33,85,58,53,32,251,-62,88,52,15,152,-10,-14,-76,116,347,77,-12,-78,222,710,-71,-26,-26,-41,-235,734466
76,30,-8,2,11,-18,67,-75,-13,-76,138,2,-113,-16,-59,123,-6,-10,-76,76,301,52,-14,-62,161,665,-61,-32,-39,-37,-72,734467
-25,17,19,-7,2,-17,-77,151,19,-110,21,7,-196,-99,-88,10,3,25,19,-34,26,-8,-2,29,-65,250,38,11,10,23,126,734468
-64,0,19,-13,-13,-18,-104,-100,102,-79,53,-11,-227,-130,9,-37,1,24,31,-80,-101,-39,0,29,-158,63,46,18,16,29,27,734469
-60,-7,22,-11,-11,-12,-46,-84,106,111,70,-26,-116,-63,6,-64,-3,7,16,-107,-141,-57,-7,18,-196,-15,10,-10,10,2,6,734470
-37,-10,23,-2,-11,-15,23,169,23,18,44,-43,-154,90,27,-45,8,7,28,-81,-131,-50,-11,18,-171,6,20,-9,40,11,-19,734471
-15,15,8,14,10,-1,75,125,18,-46,-157,32,18,129,55,14,35,28,61,-28,-52,7,21,45,-99,111,35,30,72,48,-41,734472
-4,29,21,26,7,16,27,-77,-43,-21,94,-63,92,233,-35,-5,7,2,25,-50,-58,-16,10,18,-117,106,0,24,51,26,-8,734473
36,21,8,16,15,20,40,19,1,-138,154,24,175,206,-53,39,-12,-21,-29,4,72,11,1,-32,0,317,-49,-10,25,-13,-104,734474
180,32,-27,-19,36,26,183,92,-24,-14,121,118,6,77,5,213,-30,-49,-150,171,525,109,-20,-147,345,1007,-148,-83,-25,-84,-326,734475
174,28,-19,-34,32,29,147,99,32,86,158,129,29,20,-55,239,-36,-42,-172,185,583,116,-43,-149,350,1122,-144,-90,-68,-82,-285,734476
103,18,-20,-48,-5,9,80,130,-86,-55,224,53,-30,134,-39,185,-42,-44,-144,109,472,85,-40,-132,236,997,-136,-95,-96,-83,-213,734477
-51,7,30,-17,-20,-16,-105,224,-23,42,123,-71,188,73,19,21,16,37,12,-35,45,9,3,28,-102,320,22,5,-34,10,117,734478
-63,15,39,-9,-20,-13,-118,49,58,63,-93,-38,6,58,11,8,51,75,97,-24,-58,25,40,91,-145,104,84,60,21,62,207,734479
-64,-8,27,-14,-17,-32,-63,1,6,11,-29,-97,79,-186,-19,-4,16,40,59,-20,-54,5,16,38,-126,94,41,18,-16,8,137,734480
-37,1,28,-8,-2,-12,16,11,136,198,197,-67,60,-138,22,13,-3,13,7,5,18,13,10,-4,-64,201,-5,-16,-54,-38,48,734481
-66,2,40,-11,-2,-7,-40,-105,127,155,-80,-44,108,-9,43,-64,-7,7,39,-64,-145,-47,-8,19,-193,-45,29,-9,-56,-50,92,734482
-26,7,24,-11,4,2,-54,59,82,129,-45,-1,134,-200,55,-40,-12,4,50,-39,-111,-43,-5,21,-154,-24,24,-1,-45,-57,4,734483
46,23,-4,-9,4,6,12,212,45,98,193,98,3,-113,11,77,-7,6,15,63,142,32,-4,-13,55,347,-18,-13,-30,-67,-134,734484
74,15,-10,-9,6,6,7,-85,1,-95,300,65,-55,80,-10,114,-14,4,-33,89,247,60,-7,-38,115,534,-43,-34,-31,-78,-167,734485
72,5,-10,-31,3,15,-2,-219,-53,-38,111,65,63,-5,-92,99,-34,-24,-101,69,264,37,-24,-87,86,616,-91,-78,-68,-102,-207,734486
17,7,16,-6,7,19,-23,-81,-108,59,58,-33,62,37,-45,34,-30,-6,-58,-9,102,-6,-19,-36,-59,405,-25,-58,-29,-49,-89,734487
-60,-4,8,-8,-20,-16,-63,-119,-173,-113,-38,-171,-53,-6,-112,-33,-25,-7,-20,-74,-63,-42,-20,-4,-179,166,8,-33,2,-8,31,734488
-50,11,9,-6,-10,-20,-23,-108,-49,24,92,-97,-130,-18,-115,-9,-7,10,-21,-54,-36,-16,-3,10,-141,201,2,-20,33,36,38,734489
-25,6,24,-11,3,-2,-16,-116,22,-55,147,13,-21,-23,-9,5,22,37,20,-40,-24,4,20,54,-134,189,39,18,82,78,43,734490
-6,-2,23,-23,13,0,-32,8,57,10,1,49,103,99,18,-21,21,31,34,-49,-50,-5,13,56,-162,142,51,24,79,97,-6,734491
-21,4,-3,-25,1,-13,-19,324,68,-27,-33,-79,-40,70,22,-22,0,-7,-18,-57,-41,-21,-19,17,-151,180,18,-26,47,68,-91,734492
-43,7,-11,-18,-17,-14,-85,58,22,78,82,31,-17,29,24,-15,5,10,6,-52,-55,-10,2,45,-160,162,42,-6,80,99,76,734493
71,11,-39,-27,-5,-13,-8,121,-39,-47,12,116,-60,275,34,108,-20,-23,-83,75,268,57,-7,-70,108,646,-82,-59,24,19,-245,734494
316,22,-95,-70,9,5,240,248,-196,-55,18,231,34,247,32,404,-71,-94,-288,366,1032,219,-69,-266,695,1859,-286,-162,-89,-127,-683,734495
463,32,-124,-100,9,4,358,392,-135,3,128,263,-30,101,68,588,-121,-147,-442,528,1549,293,-138,-395,1045,2738,-405,-264,-205,-241,-874,734496
463,57,-105,-113,3,2,286,440,-168,-184,172,202,27,85,117,621,-140,-148,-521,529,1655,292,-180,-427,1068,3039,-423,-323,-297,-285,-826,734497
12,22,31,-100,-32,-16,-326,-17,-51,-246,-201,-85,181,-45,-28,153,35,93,-47,51,390,65,-39,38,22,1101,59,-57,-120,21,165,734498
-122,5,55,-73,-35,-28,-365,-181,124,-161,-349,-108,135,182,-32,7,117,175,196,-52,-92,18,67,208,-270,266,228,79,11,134,360,734499
-100,15,53,-48,-31,-24,-206,-399,-34,-244,-177,-44,-5,42,-15,-40,60,97,145,-60,-138,-28,42,108,-263,165,113,17,-50,20,218,734500
-101,-6,29,-35,-36,-31,-131,-237,-169,-168,58,-4,-132,-199,-99,-53,24,49,98,-71,-166,-61,17,61,-266,120,77,-23,-86,-48,164,734501
-71,3,29,-9,-15,-18,-80,-22,94,-84,13,-30,-140,-53,-70,-23,29,45,105,-39,-130,-38,23,79,-221,131,92,-14,-61,-55,145,734502
-3,23,43,13,20,17,5,177,133,-81,8,100,35,-18,22,27,5,19,33,24,-5,-8,-1,4,-105,326,27,-56,-78,-100,-10,734503
355,51,-85,5,42,26,488,335,-107,33,340,135,32,54,50,406,-146,-170,-379,412,1061,188,-132,-397,761,1999,-377,-293,-244,-360,-969,734504
1130,108,-317,-126,74,57,1424,883,-334,53,880,434,-216,564,237,1290,-421,-504,-1264,1241,3513,630,-403,-1196,2603,6004,-1173,-799,-684,-897,-2463,734505
1187,132,-309,-200,38,36,1415,829,-449,-25,727,529,-110,349,226,1416,-472,-508,-1448,1258,4002,658,-509,-1279,2767,7051,-1255,-910,-855,-976,-2363,734506
834,117,-190,-191,-14,-14,941,494,-320,-97,332,326,-19,63,84,1083,-377,-354,-1148,839,3203,465,-463,-949,1972,6030,-933,-756,-776,-734,-1527,734507
-71,51,74,-95,-100,-87,-140,-370,28,-212,-165,-239,166,-227,-104,97,-79,33,-219,-165,613,-57,-206,-61,-118,2074,-67,-230,-352,-92,419,734508
-266,64,150,-11,-66,-70,-350,-407,138,59,-153,-266,300,-142,-161,-140,77,163,174,-335,-205,-117,-21,248,-619,630,231,15,-31,213,695,734509
-210,35,112,-9,-46,-52,-312,-15,103,-18,-173,-91,175,-152,-120,-97,73,127,153,-245,-170,-69,-7,193,-488,613,189,15,39,215,480,734510
-184,18,115,-17,-46,-30,-323,-23,-10,-143,-198,-72,77,-23,-73,-67,83,134,171,-201,-164,-31,25,200,-429,560,187,52,96,234,433,734511
-180,14,103,-1,-31,-23,-280,93,-72,26,-190,-165,117,-19,-83,-92,53,106,148,-209,-203,-52,19,172,-437,459,154,39,103,217,310,734512
-114,21,85,23,-7,-2,-144,-65,25,-60,-52,-161,332,-154,-86,-64,23,65,96,-163,-117,-40,0,105,-342,568,94,-8,72,175,182,734513
122,30,-9,-11,-11,-15,165,-143,-44,39,267,-107,136,-207,-43,174,-56,-51,-130,99,525,83,-72,-125,190,1553,-119,-135,-28,19,-364,734514
526,66,-120,-52,25,9,688,280,-61,26,543,87,-194,122,35,634,-196,-223,-575,532,1746,300,-209,-532,1135,3547,-512,-387,-262,-279,-1167,734515
892,104,-207,-115,55,41,1135,717,-215,-374,734,290,-230,78,108,1050,-346,-385,-1036,900,2945,477,-376,-940,1988,5590,-908,-676,-556,-605,-1879,734516
698,89,-144,-160,-4,6,877,463,-173,-239,329,176,-61,-127,10,858,-352,-340,-991,647,2593,316,-412,-847,1531,5267,-814,-686,-668,-618,-1280,734517
-78,50,108,-75,-57,-46,-96,-98,31,75,-99,-256,216,-376,-108,2,-65,21,-161,-212,311,-130,-160,-65,-313,1779,-35,-246,-342,-108,427,734518
-221,45,126,-21,-47,-57,-284,-129,43,36,-250,-290,203,-193,-123,-151,55,108,132,-304,-276,-173,-28,143,-632,739,159,-76,-129,52,547,734519
-187,32,96,-17,-56,-54,-251,-24,52,-89,-78,-126,168,35,-127,-94,38,97,167,-219,-252,-142,-3,138,-523,708,168,-38,-63,44,448,734520
-127,31,77,-9,-36,-31,-142,-25,111,-63,-76,-140,4,96,-110,-31,4,74,138,-128,-138,-98,-8,111,-387,845,137,-29,-34,13,281,734521
-94,30,54,5,-27,-28,-90,-15,-8,22,-251,-133,52,-198,-141,-49,-35,9,61,-121,-110,-114,-48,28,-341,891,49,-80,-83,-60,182,734522
-110,39,75,40,-10,-16,-166,-86,-3,76,-265,-145,114,-267,-112,-110,-52,-7,61,-191,-252,-164,-73,24,-445,663,37,-98,-94,-86,253,734523
126,41,17,2,3,2,67,104,-23,82,34,78,110,10,25,171,-72,-45,-105,104,432,24,-85,-122,121,1644,-121,-150,-103,-148,-342,734524
462,54,-95,-74,9,14,477,532,-62,-19,400,230,-90,42,121,588,-165,-166,-480,489,1552,242,-176,-460,965,3433,-451,-352,-255,-348,-906,734525
530,79,-106,-89,7,7,557,427,-159,47,397,212,-208,-38,143,692,-190,-179,-592,544,1887,293,-214,-534,1146,4067,-520,-405,-345,-390,-912,734526
320,67,-34,-96,-22,-13,287,385,-38,35,222,104,-3,17,105,473,-165,-116,-453,270,1380,161,-209,-369,676,3393,-361,-346,-327,-281,-422,734527
-96,27,79,-67,-58,-51,-203,-30,135,-39,-156,-161,136,-14,-53,6,-41,48,-49,-190,164,-78,-90,27,-293,1505,27,-114,-134,16,392,734528
-186,16,90,-31,-50,-58,-297,-130,106,13,-283,-244,221,-76,-20,-109,19,85,118,-256,-193,-101,-22,146,-494,853,137,-1,3,142,463,734529
-181,7,66,-16,-42,-53,-285,-156,34,36,-353,-242,174,-156,-29,-131,-5,54,100,-244,-211,-116,-35,104,-467,766,106,-13,12,125,323,734530
-138,13,86,6,-10,-17,-259,-277,26,130,-187,-158,177,-164,-55,-130,-11,46,104,-238,-223,-104,-24,105,-430,702,102,2,27,127,314,734531
-120,16,92,20,-11,-3,-256,-173,34,17,1,-165,208,-168,-36,-141,-3,39,107,-244,-270,-102,-6,94,-437,606,99,4,40,125,313,734532
-106,12,45,9,-16,-26,-176,-153,54,8,-119,-139,97,-209,-18,-92,8,46,89,-185,-185,-68,8,69,-346,695,90,-3,51,101,204,734533
-40,23,35,-1,-19,-47,-40,-249,5,335,-166,-44,101,49,10,18,11,39,44,-60,44,-2,8,31,-129,1028,51,-17,50,76,44,734534
-10,11,39,-11,-15,-35,13,-132,99,120,66,13,180,139,-32,53,-21,14,0,-37,126,-7,-19,-6,-80,1177,5,-47,8,28,-5,734535
-153,-4,71,8,-23,-37,-137,-417,19,85,21,-202,258,-26,-70,-126,22,69,145,-215,-339,-103,27,128,-442,454,141,41,64,102,292,734536
-115,8,49,28,-11,-27,-54,-232,37,117,-98,-185,180,-10,-34,-92,38,52,138,-156,-287,-78,42,117,-349,509,116,43,83,102,236,734537
-39,29,36,30,1,-9,60,38,18,-38,40,-82,-76,-164,-50,-42,4,6,66,-92,-107,-54,12,39,-197,786,32,-17,44,34,116,734538
-35,23,36,17,-3,-16,-3,26,-24,-218,73,-52,100,-205,-51,-38,-22,-3,48,-99,-113,-71,-5,19,-207,809,34,-25,44,23,60,734539
-78,8,48,3,-12,-8,-143,103,-42,5,164,-35,175,2,14,-58,9,30,109,-139,-233,-87,7,89,-296,644,100,13,78,70,187,734540
-78,-5,60,-1,0,5,-232,90,-20,65,84,62,92,97,-3,-85,33,46,130,-155,-310,-96,22,115,-347,518,130,34,100,94,238,734541
-68,5,60,20,3,16,-155,88,43,131,110,17,-86,42,10,-52,49,75,127,-131,-285,-70,50,121,-318,534,134,54,129,120,225,734542
-111,8,44,24,-9,-13,-104,-90,-28,27,-70,-58,34,256,-46,-82,35,58,129,-155,-345,-89,43,128,-352,430,119,46,127,123,270,734543
-90,2,31,14,-2,-6,-84,-146,-23,-18,-114,-7,194,-31,-26,-57,34,49,128,-114,-263,-63,42,115,-267,512,101,57,126,112,216,734544
-127,-6,42,18,-9,-17,-149,-152,7,-176,-397,0,201,-218,-14,-111,35,59,158,-164,-383,-94,42,135,-356,286,129,76,129,121,295,734545
-197,7,90,52,-4,-1,-237,-95,49,-8,-246,-32,91,-53,14,-194,86,114,255,-241,-621,-111,92,243,-514,-154,238,162,178,195,483,734546
-229,-23,73,26,-30,-20,-280,28,83,67,-187,-81,237,-71,30,-232,102,122,295,-245,-715,-112,105,259,-545,-383,257,184,200,208,471,734547
-70,0,53,35,14,21,-101,92,99,146,-139,31,128,215,83,-89,70,70,172,-89,-350,-28,79,130,-224,129,125,107,135,110,164,734548
-61,8,46,33,26,32,-92,51,62,39,-112,46,170,198,76,-106,23,33,105,-102,-318,-47,43,74,-210,179,68,49,58,29,128,734549
-64,5,28,31,17,24,-90,-118,25,-39,-24,-23,206,135,41,-91,24,24,107,-89,-290,-43,50,77,-185,207,71,65,49,13,157,734550
-82,1,1,19,-7,-1,-69,-172,50,43,-28,-100,104,-72,4,-54,33,28,116,-64,-224,-21,70,78,-126,273,69,79,47,8,143,734551
-63,8,19,21,-5,-10,-62,-298,96,-33,85,3,19,77,-40,-48,45,31,108,-39,-180,-4,68,73,-90,306,71,89,44,0,156,734552
-43,8,13,17,6,-9,-39,89,142,-50,-126,66,-25,-44,-60,-20,52,39,102,2,-112,12,71,63,-16,402,68,87,46,1,99,734553
-108,-9,35,10,-13,-2,-88,-29,-6,-104,-54,52,-148,-61,-76,-91,46,56,150,-79,-293,-42,64,117,-174,125,125,93,59,22,330,734554
-292,-39,71,26,-36,-14,-275,-327,53,-9,-198,-106,-2,-69,-36,-308,73,97,278,-299,-846,-173,75,247,-601,-730,235,155,109,115,593,734555
-490,-39,140,85,-29,-5,-493,-422,214,-38,-347,-211,62,-33,-73,-571,154,191,516,-545,-1571,-295,164,474,-1126,-1917,453,305,263,285,978,734556
-469,-35,123,104,-5,0,-421,-422,204,77,-281,-138,29,-123,-46,-579,158,169,544,-525,-1647,-287,189,477,-1090,-2140,454,336,356,315,771,734557
-64,-14,-5,81,35,37,121,-236,99,-59,-98,74,22,78,28,-146,-8,-34,114,-97,-504,-69,51,50,-151,-397,22,84,199,52,-82,734558
27,-17,-30,57,25,31,194,-38,-22,160,71,155,56,58,8,-50,-77,-98,-77,-33,-143,-57,-20,-86,67,263,-126,-19,90,-44,-203,734559
42,2,-9,54,43,46,143,97,83,209,-32,133,112,73,9,-14,-8,-30,-26,-24,-114,-18,33,7,58,363,-27,35,155,79,-115,734560
47,12,-2,34,41,51,93,-120,76,-104,-224,1,60,70,91,-14,22,-10,3,-36,-114,-12,46,26,39,370,-6,52,173,130,-35,734561
28,-1,-17,25,23,24,22,56,16,-149,-41,-19,43,43,-29,-20,20,-10,9,-54,-120,-18,46,31,34,382,-15,59,166,151,-16,734562
-16,-16,-5,6,1,9,-48,143,-28,3,-143,-76,-129,79,-75,-7,72,48,90,-44,-140,15,103,104,29,345,71,112,216,210,109,734563
-230,-27,83,12,-7,13,-323,-56,21,-83,-454,-110,-62,120,-15,-249,152,152,322,-273,-776,-95,180,318,-484,-666,311,253,296,362,696,734564
-521,-47,150,61,-16,3,-655,-384,115,-22,-517,-186,-28,-39,-120,-594,251,260,638,-580,-1719,-277,261,599,-1174,-2242,603,435,425,534,1181,734565
-562,-65,139,91,-15,-9,-665,-574,164,-26,-494,-251,-64,-52,-157,-659,261,265,704,-589,-1940,-297,275,636,-1246,-2756,629,472,472,523,1183,734566
-390,-51,97,90,7,11,-452,-401,200,107,-129,-182,138,-21,-73,-481,238,216,600,-358,-1536,-173,282,502,-842,-2291,496,435,422,405,791,734567
4,-23,-13,45,56,46,17,77,-8,92,33,210,131,57,132,-50,127,71,231,95,-403,73,195,140,63,-596,137,228,229,110,-53,734568
100,-31,-46,21,45,44,113,59,-62,-88,-102,200,-89,66,121,50,34,-19,28,176,-22,87,98,-37,297,48,-14,89,51,-82,-200,734569
38,-38,-45,10,24,19,56,-155,-59,155,-166,17,-108,162,90,13,9,-33,17,113,-82,42,74,-31,206,-18,-10,67,-15,-113,-94,734570
32,-16,-46,22,19,19,76,-80,43,88,13,9,-108,47,131,28,13,-22,-1,132,-25,47,53,-34,232,64,-16,53,-36,-134,-101,734571
32,-12,-35,19,11,21,46,-62,24,-49,-72,46,-132,57,117,42,55,24,56,142,-16,75,87,15,227,49,36,102,-9,-109,63,734572
-2,-19,-30,13,7,-2,2,21,1,172,-102,-44,-264,81,67,8,58,27,63,95,-85,50,93,27,160,-36,41,107,-10,-123,75,734573
-136,-19,11,19,4,4,-147,20,8,207,-151,38,-26,-46,17,-105,119,100,202,-35,-426,-12,145,181,-121,-563,190,203,75,-15,365,734574
-439,-42,112,53,-12,-11,-489,-384,147,-65,-296,-108,52,-13,-11,-424,247,251,547,-336,-1313,-152,270,503,-790,-2021,512,406,273,239,1006,734575
-601,-62,152,78,-11,-25,-628,-405,133,4,-465,-157,45,158,-40,-645,284,296,717,-543,-1921,-272,307,650,-1201,-3057,648,508,409,380,1200,734576
-462,-67,99,95,19,5,-415,-337,54,224,-326,-109,179,10,-37,-583,211,200,628,-436,-1731,-226,263,531,-973,-2863,513,457,428,335,795,734577
69,-33,-58,69,66,53,238,63,-26,179,5,130,-33,120,4,-66,-1,-72,70,82,-277,13,78,-2,206,-584,-34,141,211,4,-358,734578
168,-22,-75,42,56,66,284,254,-86,141,275,74,-112,-13,47,-5,-110,-172,-177,83,65,5,-43,-177,381,87,-209,-13,67,-95,-409,734579
130,-27,-51,48,62,55,197,178,-22,9,91,39,46,33,69,-17,-64,-112,-132,27,6,1,-24,-95,275,55,-122,27,123,32,-252,734580
79,1,-18,59,55,42,152,-128,8,38,0,-3,222,-37,45,-6,8,-30,-55,21,-36,15,31,0,229,5,-35,94,182,149,-142,734581
52,2,-16,36,28,16,96,36,-25,61,25,75,148,28,119,22,42,7,-45,42,5,49,65,13,253,84,-16,115,201,196,-129,734582
-25,-37,-36,-18,-7,-24,-28,-104,9,-70,-127,22,-67,25,-14,-27,51,26,14,-9,-112,26,62,63,148,-67,38,146,205,238,3,734583
-367,-57,71,17,-27,-31,-467,-457,217,-3,-280,-136,-61,100,-53,-428,142,150,360,-406,-1151,-192,133,385,-694,-1680,373,319,295,435,801,734584
-771,-86,195,102,-37,-33,-941,-524,293,195,-637,-283,139,-71,-145,-904,298,319,861,-833,-2499,-428,291,814,-1677,-3957,798,601,517,685,1589,734585
-802,-100,195,138,-16,-18,-940,-398,328,174,-323,-203,116,-99,-128,-973,344,343,1011,-823,-2775,-426,373,889,-1776,-4630,867,687,617,710,1543,734586
-526,-81,111,139,31,24,-583,-370,135,158,-128,-95,95,16,-70,-699,298,254,816,-483,-2135,-260,364,666,-1169,-3822,652,585,550,517,1011,734587
51,-45,-61,77,79,58,111,73,-101,141,368,170,-193,85,54,-69,103,0,211,164,-464,62,179,87,167,-1273,96,239,244,62,-235,734588
185,-43,-112,17,50,40,236,342,-81,-149,259,343,-310,189,158,86,8,-89,-59,280,88,101,65,-147,485,-320,-123,64,13,-182,-463,734589
153,-15,-65,25,48,48,200,104,-108,42,225,166,-316,232,123,73,29,-38,-40,239,74,101,83,-100,402,-289,-73,76,-21,-184,-253,734590
124,-15,-67,33,43,31,177,237,47,126,276,148,-89,346,117,48,41,-32,-41,200,47,87,75,-81,350,-307,-63,61,-66,-193,-176,734591
120,-20,-56,26,43,39,162,44,31,-56,121,169,-79,281,38,51,27,-31,-45,197,62,81,47,-80,348,-251,-69,53,-74,-208,-163,734592
105,-26,-34,7,37,40,121,-39,-111,64,-14,165,-72,188,92,28,-6,-34,-34,166,39,55,26,-65,302,-259,-49,54,-81,-197,-124,734593
-60,-27,6,22,31,37,-70,33,99,-164,-124,12,-70,131,94,-127,42,29,117,-20,-379,-29,61,80,-52,-906,94,146,-22,-84,212,734594
-352,-49,60,52,-15,-3,-418,-143,55,-119,-281,-90,129,4,-47,-449,117,117,364,-338,-1213,-195,127,322,-699,-2221,332,278,121,98,730,734595
-532,-53,122,99,-17,-7,-630,-287,166,115,-316,-177,189,-104,-59,-670,193,206,604,-531,-1862,-295,221,542,-1159,-3339,539,436,306,300,1121,734596
-470,-60,102,119,24,20,-593,-274,139,-23,-241,-94,42,32,-99,-643,194,179,604,-482,-1843,-263,244,517,-1051,-3433,511,462,400,339,853,734597
57,-49,-61,53,67,57,25,-23,-98,-146,68,179,-161,124,97,-71,22,-54,71,102,-331,38,106,16,185,-1114,-6,182,208,38,-326,734598
157,-43,-86,15,52,52,198,89,-78,-119,59,158,-102,82,153,67,-17,-80,-116,202,122,103,51,-95,450,-334,-118,81,114,-15,-354,734599
135,-23,-67,16,29,24,206,43,-17,-15,-147,188,-180,219,148,79,24,-28,-115,185,158,129,53,-50,433,-238,-80,101,139,78,-247,734600
81,-10,-55,21,19,2,141,89,-47,28,-182,127,-60,113,83,47,20,-16,-89,137,104,112,51,-21,368,-272,-57,111,133,119,-142,734601
2,-13,-39,7,0,-15,-6,-146,-52,-25,-1,25,-72,156,103,8,62,30,16,100,-23,99,84,80,253,-466,36,175,183,208,-46,734602
-48,-24,-45,-26,-15,-21,-134,-111,-146,33,121,105,-103,262,120,3,109,79,114,105,-83,122,135,155,201,-571,134,247,236,286,3,734603
-291,-53,16,-27,-32,-28,-469,-223,66,-47,-68,-82,-94,173,-17,-256,175,170,324,-170,-781,-33,168,362,-375,-1644,367,340,296,397,643,734604
-821,-87,180,67,-58,-52,-1095,-641,308,32,-300,-239,89,64,-96,-897,356,390,906,-776,-2525,-372,342,877,-1702,-4473,869,642,527,709,1737,734605
-744,-105,150,115,-22,-18,-944,-365,267,-130,-327,-155,110,112,-95,-891,342,341,938,-702,-2600,-345,382,838,-1627,-4782,817,655,577,668,1482,734606
-456,-101,77,131,45,38,-488,-446,81,-9,-379,-88,-106,163,-32,-654,237,193,694,-423,-1980,-229,310,568,-1067,-3926,541,510,466,437,819,734607
44,-47,-60,107,80,78,233,70,-189,39,137,81,-52,159,46,-141,38,-59,132,94,-526,16,148,10,77,-1709,-14,186,167,-17,-260,734608
183,-24,-85,76,71,78,410,264,-102,93,242,156,-56,24,0,44,-21,-108,-78,229,32,85,64,-141,410,-777,-147,65,2,-173,-419,734609
167,-18,-64,47,69,74,329,368,-125,-50,329,234,-103,-165,42,52,-18,-89,-92,208,80,73,37,-129,386,-625,-131,31,-47,-178,-378,734610
141,-19,-62,30,50,48,270,155,-125,-134,346,201,-116,-107,38,45,-11,-79,-94,185,70,52,37,-112,326,-587,-114,17,-75,-185,-323,734611
144,-15,-77,36,39,30,293,158,-147,106,296,173,-98,-187,23,61,-39,-86,-142,194,160,50,3,-143,370,-406,-140,-21,-106,-217,-365,734612
113,-11,-49,36,31,48,241,-31,-48,-19,165,168,19,135,81,27,-34,-81,-129,138,80,23,-14,-114,281,-482,-118,-19,-111,-198,-224,734613
23,-14,-16,42,33,54,89,10,63,-103,111,-16,164,-110,64,-97,-10,-45,-50,2,-206,-44,4,-43,41,-901,-50,29,-87,-131,-31,734614
-40,-11,-11,59,32,40,10,172,60,78,16,-57,199,-265,17,-184,7,-25,21,-71,-412,-76,38,31,-115,-1242,24,71,-26,-66,16,734615
71,-27,-51,28,32,30,57,33,1,156,102,65,-57,-107,31,-73,-37,-79,-79,49,-95,-14,-17,-80,144,-762,-83,4,-58,-122,-193,734616
135,-19,-28,9,42,54,11,86,7,30,262,170,-72,-89,83,32,-16,-52,-90,144,122,61,-3,-81,304,-433,-73,24,-40,-89,-203,734617
98,-30,-56,-28,5,4,-1,198,15,-20,205,161,-123,-14,67,48,-24,-43,-108,151,169,70,-16,-83,313,-323,-68,18,-50,-72,-200,734618
64,-8,-57,-5,7,8,74,30,-9,13,-1,-30,-124,150,-1,34,-13,-36,-84,135,135,67,-13,-56,259,-367,-42,34,-39,-39,-121,734619
82,3,-45,23,20,26,120,6,12,-54,-83,-92,-119,167,-95,10,-36,-56,-127,127,145,49,-28,-93,241,-355,-90,6,-56,-53,-153,734620
70,-9,-51,26,8,4,141,149,-90,-91,253,6,-61,33,-16,18,-23,-40,-112,117,139,49,-18,-71,201,-373,-78,15,-43,-32,-159,734621
36,-15,-40,19,-3,8,185,57,-7,-66,30,-18,116,-92,18,-52,-44,-72,-82,60,23,1,-35,-75,79,-528,-69,5,-68,-39,-103,734622
92,3,-43,56,21,30,305,189,20,69,55,-65,141,-236,35,-42,-82,-111,-162,66,104,-8,-72,-144,105,-398,-150,-55,-127,-109,-176,734623
100,15,-45,67,17,38,335,300,-22,102,142,19,-40,-59,32,-32,-92,-109,-194,63,124,-1,-75,-171,96,-326,-180,-92,-154,-140,-257,734624
95,17,-42,52,21,35,315,225,-11,190,153,-36,-71,27,16,8,-74,-77,-151,90,166,39,-47,-126,122,-238,-131,-63,-118,-107,-250,734625
102,24,-55,34,16,23,320,150,55,170,190,-15,-209,38,76,71,-49,-65,-130,147,257,67,-29,-111,199,-72,-105,-41,-96,-86,-245,734626
99,22,-69,5,11,4,261,196,35,-148,204,78,-287,194,56,61,-92,-115,-206,124,305,33,-90,-177,206,81,-179,-113,-160,-154,-362,734627
43,7,-26,4,3,23,88,122,117,8,-7,-22,-182,52,-93,-29,-78,-88,-130,16,79,-35,-79,-103,18,-236,-104,-86,-130,-97,-101,734628
41,-3,-17,8,10,27,35,-35,19,34,13,-143,-39,-6,-125,-21,-39,-48,-59,21,39,-33,-42,-37,12,-308,-45,-21,-61,-34,-40,734629
45,8,-17,12,12,13,45,34,73,9,46,-80,28,-95,-17,-10,-42,-34,-58,9,27,-26,-47,-45,32,-319,-46,-28,-50,-27,-73,734630
40,-1,-28,1,4,9,47,70,-54,-139,-144,24,35,-63,22,-32,-68,-62,-102,-16,7,-42,-73,-90,19,-306,-83,-63,-72,-65,-123,734631
29,-9,-33,-15,-3,-2,62,230,-47,-5,-111,-16,-173,-79,-60,-29,-58,-54,-97,-10,21,-48,-56,-76,25,-281,-83,-61,-57,-47,-201,734632
44,-18,-33,-17,-1,-1,76,144,-67,-144,86,35,-35,-18,38,8,-31,-36,-89,23,75,-8,-30,-58,79,-201,-76,-52,-36,-19,-183,734633
75,-11,-38,-2,11,0,100,42,-60,23,23,-33,-17,-62,9,10,-46,-61,-127,54,142,-7,-46,-108,126,-69,-127,-77,-70,-55,-205,734634
31,-2,-19,18,19,9,35,153,14,154,-5,-93,-187,-129,9,-60,-50,-52,-68,-29,-27,-56,-47,-59,-20,-320,-77,-51,-62,-31,-8,734635
76,10,-37,14,17,12,122,284,-106,109,163,-87,-177,-96,17,9,-61,-69,-101,53,149,-2,-42,-100,130,-68,-111,-62,-68,-55,-126,734636
90,26,-37,33,4,2,207,131,101,64,248,-12,-68,68,-21,88,-42,-53,-115,128,308,50,-23,-122,232,169,-125,-71,-95,-72,-90,734637
-41,12,-14,21,-22,-33,48,66,98,181,231,-65,0,67,-23,-11,22,24,17,27,-4,19,24,15,-23,-337,24,19,-36,12,59,734638
-34,11,-11,12,-7,-23,53,-85,40,16,175,6,-79,201,-12,33,63,61,69,89,28,73,60,53,22,-341,72,62,1,35,13,734639
-53,-6,-13,-28,-19,-10,-4,-109,-71,-64,260,-62,-142,45,-113,-28,22,17,47,37,-34,23,22,4,-49,-470,28,21,-67,-52,17,734640
37,-12,-27,-31,3,18,23,255,-99,79,48,-57,-49,18,-128,-15,-38,-43,-38,67,71,21,-34,-87,26,-309,-54,-41,-140,-137,-118,734641
91,-14,-27,-21,20,40,71,135,-139,101,78,-28,63,54,-67,9,-72,-76,-123,98,191,27,-71,-142,90,-125,-113,-91,-191,-206,-190,734642
78,-7,-5,-12,15,31,117,-90,-36,-78,334,28,-14,35,40,4,-78,-76,-141,77,175,11,-73,-138,46,-129,-110,-106,-197,-217,-130,734643
-108,-9,60,31,8,15,-69,40,0,18,-4,-74,-30,-263,-64,-181,-7,9,43,-136,-360,-107,-7,41,-391,-936,56,-8,-103,-96,278,734644
-231,-12,95,50,8,5,-257,-132,67,223,-150,-163,123,-258,-12,-325,68,81,235,-255,-797,-163,76,213,-689,-1641,219,116,49,67,462,734645
-263,-29,75,33,-4,5,-345,-147,130,114,-298,-122,198,-158,28,-328,112,123,325,-263,-909,-156,131,285,-738,-1860,291,184,170,158,521,734646
-248,-49,31,19,-10,-16,-351,-85,169,-16,-327,-26,118,-102,25,-301,89,103,313,-244,-877,-133,115,272,-671,-1840,263,188,229,181,418,734647
11,-36,-54,-14,4,-5,16,-118,115,-110,-80,174,-64,89,104,10,22,10,63,65,-107,44,60,48,-27,-639,44,78,175,86,-132,734648
97,5,-61,-12,19,12,186,88,-13,-20,109,160,-56,47,46,91,-24,-30,-86,124,182,65,10,-68,156,-124,-67,-15,72,19,-231,734649
113,12,-57,7,20,9,208,88,1,11,72,121,-118,30,-24,94,-50,-50,-156,131,270,55,-12,-111,193,60,-125,-74,27,-14,-259,734650
59,6,-33,-3,15,8,112,12,-62,49,-105,6,-9,-142,-93,21,-44,-43,-115,43,135,9,-16,-79,63,-106,-96,-66,27,21,-152,734651
19,-11,-23,-17,-1,7,41,54,-79,178,-122,-8,130,-9,2,-24,-52,-43,-86,-13,16,-31,-30,-45,-33,-258,-58,-63,24,61,-136,734652
8,-10,-14,-17,-4,12,26,54,-10,68,47,-32,13,-69,-29,-12,-25,-32,-55,-11,-3,-22,-21,-20,-38,-285,-29,-39,41,97,-41,734653
-220,-31,58,-4,-23,-6,-263,-78,90,44,-141,-166,66,-29,-34,-284,31,53,166,-290,-695,-169,34,186,-613,-1357,178,72,117,221,460,734654
-461,-47,124,55,-26,-4,-555,-168,66,28,-330,-188,-72,-5,-78,-590,128,164,486,-560,-1560,-314,131,460,-1237,-2781,436,253,285,416,914,734655
-502,-48,134,103,-1,-5,-566,-114,82,17,-346,-154,38,-158,-70,-659,182,197,596,-582,-1826,-324,177,545,-1359,-3337,512,326,362,471,1023,734656
-488,-51,105,124,-6,-17,-470,-107,91,4,-261,-175,10,-128,-5,-628,202,204,602,-511,-1810,-286,221,532,-1285,-3469,498,350,387,433,861,734657
4,-24,-55,80,27,23,129,196,-70,53,94,148,-73,81,53,-72,74,12,140,67,-387,42,122,64,-109,-1363,47,103,182,86,-179,734658
131,-16,-80,30,34,31,237,126,-38,203,109,232,-138,132,78,96,24,-16,-19,204,107,107,66,-73,197,-574,-67,6,10,-88,-281,734659
53,-18,-48,10,21,19,118,21,-12,208,130,127,-23,32,130,17,13,-12,27,135,-10,59,66,-34,60,-725,-40,4,-60,-147,-126,734660
33,-33,-70,-3,5,4,108,152,23,44,147,74,-174,78,126,15,-9,-40,-24,117,25,41,34,-68,57,-662,-65,-47,-123,-217,-131,734661
57,-17,-69,-5,20,14,137,128,39,-41,104,97,-181,37,36,55,-12,-32,-43,142,111,63,21,-76,106,-520,-62,-60,-140,-242,-122,734662
94,12,-32,23,43,45,172,114,-9,123,166,99,-118,127,53,70,8,-24,-45,136,128,61,26,-80,103,-491,-84,-63,-140,-256,-104,734663
-115,-8,36,49,23,34,-73,-49,55,180,-9,-89,129,-120,-4,-208,36,31,105,-148,-509,-112,59,78,-452,-1437,70,22,-77,-150,394,734664
-692,-56,201,127,-5,6,-735,-307,255,26,-191,-306,79,-454,-139,-890,190,249,701,-812,-2315,-461,208,651,-1833,-4291,636,361,266,305,1507,734665
-689,-70,176,155,12,18,-680,-390,293,131,-120,-251,-49,-214,-90,-926,188,221,774,-792,-2495,-445,231,666,-1819,-4731,650,411,431,408,1306,734666
-434,-56,87,142,26,32,-362,-23,171,105,-55,-133,59,-88,-51,-636,138,117,535,-470,-1796,-277,191,432,-1161,-3764,410,296,423,311,577,734667
40,-36,-86,59,41,31,159,162,-175,-78,97,131,-149,69,164,-49,11,-58,33,95,-295,40,82,-15,34,-1437,-39,35,242,55,-438,734668
135,-46,-116,3,24,15,214,42,-130,-58,156,178,38,251,131,125,-3,-50,-110,216,184,135,67,-80,319,-620,-114,-35,157,14,-403,734669
85,-31,-96,7,21,26,151,326,-23,-27,24,146,-12,401,65,95,22,-18,-76,159,131,119,47,-27,234,-641,-60,-5,152,82,-296,734670
88,-14,-78,9,26,38,136,2,-81,-7,44,63,-321,198,80,89,6,-11,-85,158,159,111,22,-28,230,-548,-44,-15,142,98,-245,734671
64,-15,-49,-10,26,42,65,-41,-37,80,-83,107,-122,73,153,57,20,3,-47,117,79,94,42,15,126,-644,-14,-3,134,134,-126,734672
62,-11,-56,-17,15,32,43,204,-11,-71,26,83,-193,76,65,19,11,-19,-57,71,32,61,36,-15,74,-701,-32,-33,99,109,-155,734673
-55,-17,-7,11,1,13,-83,-65,6,65,-76,33,-127,91,10,-124,44,29,49,-61,-312,-17,59,105,-215,-1234,94,19,121,175,166,734674
-231,-36,46,30,-17,4,-289,-155,101,120,-334,-72,-28,21,17,-316,102,113,270,-240,-847,-115,125,286,-625,-2115,272,138,207,297,543,734675
-311,-61,44,26,-15,3,-338,-207,197,-16,-445,-39,-1,60,10,-378,147,142,370,-288,-1086,-136,172,350,-763,-2569,341,187,257,323,591,734676
-254,-56,22,41,-1,4,-199,-58,115,16,-437,20,-161,129,45,-299,171,147,377,-182,-955,-74,191,330,-608,-2449,319,200,269,285,481,734677
69,-6,-48,58,45,49,160,60,-80,151,-79,149,14,339,94,33,97,41,110,161,-108,100,125,62,82,-1180,55,58,129,53,-130,734678
130,-3,-51,36,44,57,155,168,-93,169,297,171,47,10,95,84,44,-2,-25,188,97,83,62,-44,183,-817,-45,-29,-27,-95,-201,734679
106,-6,-41,29,43,52,126,151,-121,110,290,205,-43,-121,178,59,22,-19,-34,146,78,49,39,-70,143,-815,-48,-67,-106,-172,-171,734680
59,-20,-60,-2,17,29,122,-63,-10,-160,62,136,-87,7,107,47,-6,-41,-61,142,94,31,12,-95,144,-752,-78,-106,-147,-238,-160,734681
52,-24,-66,-10,10,15,113,-53,4,-154,-29,208,-46,-15,63,55,-31,-38,-71,142,113,34,-3,-107,152,-699,-72,-110,-150,-251,-153,734682
75,-16,-74,-15,4,6,143,65,-22,-71,-114,201,-153,28,3,83,-42,-44,-94,161,179,54,-24,-123,214,-563,-84,-126,-154,-266,-171,734683
83,-5,-58,-9,5,14,154,-29,-89,-49,-42,56,-164,131,-20,75,-39,-33,-105,143,195,39,-24,-116,195,-530,-104,-129,-143,-244,-145,734684
-76,-22,-8,9,-9,1,-22,-79,-56,-87,-81,13,-74,-24,-36,-101,18,36,71,-48,-245,-39,33,61,-161,-1218,49,-23,-21,-81,144,734685
-120,-15,22,33,-1,6,-67,-95,-42,110,1,16,-35,-16,-94,-158,58,64,146,-104,-428,-50,61,131,-278,-1530,117,25,79,26,193,734686
-56,-7,5,36,14,19,-12,-109,-48,199,33,86,-55,48,-27,-81,61,57,95,-27,-278,7,83,84,-121,-1322,69,25,121,70,148,734687
56,-1,-58,2,17,6,61,77,-66,51,146,153,-121,-32,69,52,11,-11,-53,113,101,86,38,-36,181,-718,-53,-60,75,26,-193,734688
43,-13,-70,-21,-3,-10,12,82,-75,107,68,110,-221,19,82,38,-28,-43,-105,82,143,75,-17,-68,186,-611,-82,-99,45,18,-246,734689
53,-7,-57,-24,-4,-7,19,-88,-17,-15,245,89,-154,196,74,41,-7,-28,-80,97,147,77,-15,-34,173,-596,-48,-71,64,63,-101,734690
91,-8,-44,-29,15,22,18,-7,-49,98,-101,49,41,121,79,67,-6,-24,-82,116,213,91,-14,-34,230,-462,-64,-77,58,79,-96,734691
71,-8,-25,-29,12,33,-3,13,-26,-27,-147,-12,-12,156,49,59,4,-14,-62,99,182,93,8,-27,198,-504,-53,-67,47,95,-26,734692
66,10,-17,0,11,31,26,170,60,-44,-77,99,23,130,6,87,43,29,-38,117,194,116,39,12,198,-497,0,-40,68,133,-35,734693
-24,-21,-24,-6,-17,-10,-51,178,47,18,-34,54,-28,181,-26,13,49,55,23,39,16,68,29,84,54,-787,78,-18,92,168,99,734694
-124,-18,7,6,-21,-17,-176,-110,30,13,-213,-50,-17,74,3,-103,66,71,131,-63,-292,6,51,145,-179,-1261,130,39,123,195,300,734695
-130,-17,-1,9,-19,-12,-194,-37,40,-17,-353,-56,43,93,12,-97,73,76,149,-58,-326,7,80,152,-178,-1315,134,60,131,186,296,734696
-114,-29,-18,-12,-17,-10,-212,-43,-73,-14,-365,-36,16,187,-7,-107,55,55,145,-65,-331,-14,65,134,-172,-1353,128,40,106,141,152,734697
30,-21,-41,-27,1,14,-70,-74,-95,-44,-220,5,-176,433,37,52,59,40,65,107,37,77,80,43,132,-825,51,-6,54,60,-44,734698
80,-12,-43,-26,7,10,37,-6,41,-104,-186,118,-62,195,33,120,49,41,3,155,189,107,62,-3,235,-566,-1,-46,6,-18,-118,734699
84,8,-46,2,9,0,153,118,-16,-85,-98,100,-116,62,21,105,-6,-11,-61,125,205,73,4,-73,243,-479,-53,-108,-80,-114,-137,734700
55,10,-31,8,1,-3,182,64,-39,69,-111,11,-35,-32,46,67,-23,-30,-62,109,167,44,-6,-95,209,-486,-65,-108,-102,-167,-159,734701
90,21,-11,7,13,24,159,155,-24,119,150,99,-144,49,30,119,10,-7,-58,136,256,72,7,-87,282,-350,-60,-104,-85,-172,-140,734702
123,16,-24,-11,15,25,82,98,40,-16,40,116,-182,60,39,137,13,-4,-72,144,302,72,-6,-97,317,-264,-57,-118,-93,-170,-110,734703
-49,-20,-2,-11,-11,-12,-140,-266,19,-92,-107,-14,55,-88,-12,-33,41,48,69,-41,-133,-25,17,53,-30,-939,80,-34,-22,-58,193,734704
-137,-18,16,0,-6,-9,-222,-242,-69,-117,-371,-154,-10,-6,-20,-126,69,70,159,-119,-376,-56,47,135,-186,-1366,139,28,57,33,314,734705
-127,-12,30,11,2,-5,-293,-127,-3,-129,-323,-76,6,120,-13,-150,62,61,150,-123,-418,-50,46,141,-183,-1467,128,31,84,70,245,734706
-84,-25,17,8,-2,5,-301,-124,-22,66,-263,26,34,-143,30,-76,74,73,123,-48,-263,12,72,120,-37,-1281,116,41,118,101,110,734707
64,-12,-31,0,18,8,-114,68,-56,63,-130,100,38,-29,82,85,12,-14,-47,127,182,102,7,-44,337,-574,-60,-66,47,3,-275,734708
118,-14,-43,-28,6,7,48,120,13,187,17,43,100,-64,127,127,-35,-45,-143,155,346,111,-40,-117,434,-268,-126,-114,-2,-43,-233,734709
79,-19,-21,-26,2,14,153,51,-113,41,-71,56,-7,-82,50,87,-23,-19,-88,101,265,87,-44,-51,342,-382,-56,-78,0,10,-129,734710
51,-20,-29,-24,-9,0,146,-58,-14,65,97,113,-88,60,-63,47,-30,-33,-95,68,204,52,-43,-60,277,-468,-65,-94,-16,9,-68,734711
43,6,-9,8,5,7,85,-162,104,-155,284,84,130,-16,-2,30,-11,-19,-60,51,144,48,-32,-45,230,-544,-52,-77,-15,17,54,734712
33,11,-2,11,23,15,37,-49,38,-13,134,1,39,33,-13,-1,-50,-44,-71,34,124,24,-62,-69,212,-564,-85,-93,-47,-2,-22,734713
24,5,-1,9,35,28,-20,248,-13,20,68,-16,-47,-61,-18,-52,-79,-81,-104,-27,45,-25,-88,-115,139,-664,-135,-135,-97,-53,-35,734714
-46,3,9,27,13,8,-38,-94,40,-18,24,-86,42,-263,-18,-91,-12,-21,-14,-70,-121,-31,-39,-22,15,-946,-22,-71,-44,7,115,734715
-45,1,11,40,4,4,48,-186,107,82,90,-13,89,-174,6,-69,25,28,50,-47,-144,-10,5,33,19,-1006,30,-25,8,48,145,734716
15,-7,-7,23,7,16,98,-107,7,149,49,36,-97,-165,4,-53,-17,-5,-5,-31,-91,-19,-27,-14,81,-889,-18,-60,-26,0,20,734717
79,5,-9,24,36,31,163,-45,28,19,49,84,-21,-248,21,-6,-59,-49,-81,5,49,-12,-65,-82,190,-637,-91,-108,-73,-66,-213,734718
77,-11,-29,1,9,0,121,-8,-37,-193,78,-65,-14,-103,-28,-21,-94,-91,-134,-16,75,-34,-98,-129,194,-558,-142,-154,-118,-129,-185,734719
88,-5,-40,-9,3,-4,92,132,-6,74,76,-49,-98,-101,36,33,-66,-66,-134,22,150,-10,-84,-116,244,-431,-126,-134,-100,-116,-169,734720
45,26,-14,10,1,-4,47,-95,-21,122,-48,74,1,36,-25,48,4,16,-34,23,91,21,-19,-17,216,-527,-27,-54,-13,-38,16,734721
-10,15,-19,11,-17,-27,12,-82,-19,8,-164,12,-175,60,-6,20,47,43,43,-1,-23,19,20,39,146,-714,31,-5,34,17,110,734722
-4,12,-6,2,-3,-12,19,-23,19,-163,-284,-48,55,-82,28,19,55,49,52,18,-8,34,33,51,185,-723,43,13,45,45,-7,734723
150,6,-46,-35,-2,-4,162,149,-35,-74,-39,171,77,111,80,200,-2,-21,-101,208,470,143,-34,-102,580,5,-89,-67,-11,-49,-392,734724
265,14,-82,-47,1,3,314,112,-41,-5,177,237,-66,174,27,311,-68,-92,-266,308,837,177,-95,-251,822,617,-240,-181,-123,-165,-540,734725
276,15,-91,-30,7,-8,417,144,-156,33,217,118,-34,-53,60,280,-152,-159,-393,267,889,112,-174,-348,836,803,-339,-280,-250,-256,-652,734726
274,24,-56,-20,12,13,423,364,-154,-55,186,47,-78,61,57,234,-160,-160,-393,211,825,89,-181,-343,758,783,-333,-292,-282,-270,-522,734727
76,29,12,10,5,11,159,143,7,57,-37,-12,-89,81,-36,47,-66,-46,-150,9,284,-5,-104,-120,324,-54,-108,-146,-182,-112,0,734728
-20,14,8,7,-15,-20,-48,-19,-44,-181,-218,-93,22,112,-53,-33,-16,-7,-11,-46,27,-32,-56,-10,162,-490,-1,-55,-97,-29,77,734729
-16,14,-11,-4,-19,-35,-138,23,-8,-117,-143,-103,70,-103,8,-17,1,-3,20,-26,33,-6,-32,-9,190,-521,-10,-37,-68,-24,15,734730
13,12,-13,-2,-14,-23,-97,168,8,87,38,-45,2,136,27,37,3,0,12,26,125,24,-17,-19,281,-413,-9,-30,-57,-19,-44,734731
38,-12,-16,-5,-4,-16,0,12,-42,102,27,18,-99,71,-28,35,-21,-25,-46,38,172,10,-52,-69,317,-338,-48,-62,-82,-67,-89,734732
49,12,-8,23,6,-5,110,-191,-45,157,34,35,6,-59,-30,37,-30,-28,-65,43,167,3,-64,-83,312,-315,-71,-77,-100,-89,-142,734733
182,26,-49,14,7,-3,316,-22,-186,-19,291,64,14,-31,-7,215,-68,-68,-186,207,590,102,-89,-199,659,350,-177,-134,-148,-157,-417,734734
412,37,-108,-30,18,11,530,262,-87,45,240,136,-28,173,-16,463,-146,-167,-458,441,1295,218,-181,-425,1181,1508,-388,-282,-269,-323,-826,734735
449,32,-118,-57,14,16,487,254,-107,4,76,185,-20,158,-57,493,-186,-189,-538,443,1450,215,-220,-477,1228,1861,-442,-341,-339,-378,-898,734736
387,47,-77,-54,13,13,399,288,-85,-90,399,24,-62,-89,5,418,-210,-207,-554,330,1328,151,-266,-474,1077,1796,-434,-376,-380,-368,-696,734737
20,19,38,-33,-15,-22,1,-34,127,-31,106,-193,-15,-327,10,29,-125,-80,-202,-71,347,-54,-197,-141,270,326,-114,-190,-224,-137,125,734738
-64,15,52,-17,-21,-22,-84,-145,69,4,-20,-66,4,-219,7,-57,-49,-14,-37,-118,51,-55,-110,-14,102,-189,-14,-83,-84,-11,152,734739
-7,7,13,-22,-26,-22,-70,-99,49,64,-98,-6,173,-82,-104,0,-54,-29,-94,-61,154,-28,-125,-64,210,-54,-61,-95,-62,-7,24,734740
6,21,43,-10,-3,2,-106,-180,68,75,-84,58,201,-25,-42,-25,-37,-8,-57,-83,68,-26,-104,-29,154,-215,-20,-65,-25,44,43,734741
-9,15,49,2,0,11,-106,14,-11,88,-32,-50,227,-37,-56,-61,-32,-6,-48,-107,-9,-43,-90,-19,112,-337,-19,-59,-6,63,32,734742
3,9,15,4,-5,-5,-37,-158,34,50,-93,-14,330,-127,-30,-32,-54,-29,-76,-74,62,-36,-92,-48,198,-226,-42,-64,-6,54,-78,734743
203,25,-61,-11,1,-11,245,97,29,60,102,106,6,-67,52,219,-108,-123,-265,167,676,94,-141,-232,716,741,-223,-165,-95,-80,-462,734744
558,48,-171,-81,5,-10,676,360,-140,1,195,144,-52,143,84,653,-226,-274,-684,582,1855,312,-258,-624,1602,2652,-607,-403,-339,-374,-1160,734745
577,54,-135,-109,2,5,663,417,-188,-254,-20,182,150,-54,113,701,-204,-228,-695,595,2019,318,-247,-613,1629,3020,-595,-421,-427,-410,-995,734746
421,42,-89,-113,-20,-22,466,9,-139,-194,203,40,-7,-89,91,522,-172,-163,-543,400,1587,205,-228,-451,1225,2462,-431,-341,-420,-335,-626,734747
29,18,39,-65,-46,-36,22,-188,102,202,-81,-215,215,-49,-155,68,-65,-12,-129,-42,398,-28,-147,-76,273,651,-46,-122,-259,-100,215,734748
-52,34,85,-5,-15,-9,-92,-160,89,137,-215,-160,34,-215,-130,-35,0,43,51,-114,19,-68,-81,41,49,-6,76,-24,-142,-11,268,734749
-45,12,65,-25,-25,-28,-157,-385,86,74,-210,-37,8,-158,-70,-32,-13,24,19,-99,11,-69,-63,-3,74,-50,32,-46,-142,-46,165,734750
-60,8,48,-17,-30,-52,-128,-6,113,-20,-201,24,158,-164,-35,-19,0,36,48,-89,-25,-58,-43,18,69,-154,49,-10,-108,-41,152,734751
-40,31,18,7,-28,-57,-21,94,70,12,31,-58,54,-43,-36,9,-5,33,27,-43,48,-26,-54,-11,163,-70,27,-5,-91,-74,111,734752
-48,6,2,-22,-39,-59,-48,89,-23,152,-97,-67,34,-114,2,-3,-20,20,7,-49,33,-42,-58,-24,144,-92,9,-22,-92,-90,133,734753
52,13,-12,-38,-24,-32,20,26,-35,-65,36,38,-59,-124,48,132,-1,26,-26,67,289,46,-24,-49,351,272,-27,-17,-77,-92,-54,734754
208,32,-16,-39,6,8,187,58,-22,-152,415,233,-40,74,59,288,-28,-23,-168,228,709,136,-60,-157,681,936,-137,-87,-109,-161,-360,734755
266,43,-27,-41,15,-3,245,161,-52,48,746,78,-123,43,78,314,-94,-94,-285,239,901,127,-128,-264,793,1305,-232,-168,-192,-233,-506,734756
194,29,-36,-57,-24,-26,189,46,-41,-20,404,-52,58,-167,46,251,-116,-98,-296,161,812,83,-145,-268,669,1249,-232,-196,-211,-235,-391,734757
-65,6,41,-34,-46,-36,-92,-72,57,-33,-46,-144,241,-330,-71,-15,-37,-6,-86,-114,107,-51,-79,-40,95,195,-23,-60,-87,-44,148,734758
-106,-1,50,-14,-33,-28,-146,81,92,-101,-15,-125,138,-157,-68,-72,-27,12,11,-163,-79,-61,-55,30,3,-123,34,5,17,66,187,734759
-67,-12,25,-28,-32,-29,-159,62,93,-114,63,-57,139,-175,-59,-7,7,44,35,-86,32,-5,-23,67,112,-15,59,59,111,145,76,734760
-26,-3,28,-21,-13,-18,-196,57,63,-72,166,-36,68,-129,-16,20,16,35,13,-80,65,1,-16,55,141,14,41,50,121,169,74,734761
20,-3,20,-30,-4,-5,-178,16,36,57,188,-56,67,-110,17,48,3,15,-29,-38,155,22,-27,17,216,158,-5,19,100,157,43,734762
-2,-29,27,-59,-17,-9,-171,-85,29,129,164,-52,86,72,-4,41,-4,-1,-27,-51,147,11,-27,12,195,151,-15,13,89,150,7,734763
54,-6,16,-35,3,3,9,-121,2,51,227,-69,-17,54,-11,70,-19,-26,-56,-3,237,23,-23,-38,290,300,-56,-9,49,108,-135,734764
285,22,-51,-39,15,21,345,110,-30,-47,331,8,-15,55,11,296,-122,-147,-327,225,884,116,-144,-298,784,1376,-299,-176,-130,-114,-601,734765
271,34,-41,-51,3,21,357,45,-24,118,261,31,-38,-2,-11,323,-115,-129,-317,240,954,134,-159,-284,789,1546,-281,-165,-180,-157,-507,734766
158,30,-27,-58,-28,-22,261,120,-24,-43,190,-47,-44,57,-118,231,-83,-85,-211,148,717,74,-131,-183,573,1209,-181,-120,-188,-138,-312,734767
-18,20,31,-39,-37,-26,63,-91,116,-211,30,-133,34,-1,-112,67,1,24,-19,-35,185,-23,-54,7,135,368,23,0,-113,-36,111,734768
-42,24,39,-17,-32,-13,15,-107,116,-37,-17,-50,147,-99,-69,44,53,61,50,-43,47,-28,17,54,53,107,63,49,-80,-23,214,734769
-25,9,16,-29,-36,-20,0,67,-12,-2,-66,-98,166,-162,-27,44,25,23,-3,-27,77,-33,9,-6,95,155,7,13,-103,-96,59,734770
-18,22,28,-16,-29,-28,27,-48,62,-78,158,9,-39,-115,3,73,14,34,28,7,102,-1,5,13,129,173,29,36,-86,-94,30,734771
-32,19,16,-10,-24,-29,-7,-159,42,-52,238,37,29,-137,3,59,8,31,53,-8,63,-9,-14,33,100,114,32,53,-64,-88,-10,734772
-3,14,15,-3,-12,-22,-57,-157,-15,-145,-80,-40,139,-84,32,60,18,34,78,2,65,-3,6,41,104,108,43,76,-40,-81,68,734773
58,21,0,-11,-15,-7,29,-321,-25,95,-271,44,23,46,46,128,-5,16,-1,78,243,37,-10,-24,233,391,-14,39,-48,-109,-70,734774
169,32,-18,-34,-1,17,173,-13,-154,-54,82,101,29,101,13,256,-47,-33,-148,184,591,94,-58,-146,498,961,-142,-47,-106,-185,-337,734775
187,34,-14,-58,5,13,174,138,-126,-159,53,55,-44,2,21,263,-67,-61,-216,182,685,96,-83,-186,541,1148,-189,-91,-145,-207,-368,734776
117,33,-17,-55,-14,-15,118,30,-40,-193,296,32,71,5,-93,206,-53,-38,-182,123,572,80,-75,-146,426,1007,-151,-59,-117,-152,-222,734777
-23,33,31,-18,-10,-12,-43,10,8,-41,268,-53,98,-23,-23,47,15,41,-5,-30,140,4,-20,31,80,326,12,53,6,19,74,734778
-32,13,48,-16,-3,0,-125,61,33,-14,86,-58,21,-97,14,-9,14,38,36,-68,12,-25,-9,69,-11,117,54,72,71,102,163,734779
-35,-9,51,-23,-6,6,-159,-152,16,-12,-44,-115,145,-94,-41,-19,8,36,34,-80,-11,-14,4,72,-3,60,57,80,117,145,65,734780
-7,-15,41,-25,-4,10,-110,-78,-17,-48,-154,-57,-4,-20,-52,14,-1,20,9,-47,69,14,-8,58,63,167,25,71,122,179,-16,734781
-35,-9,32,-16,-10,-15,-86,-109,24,-114,-256,-19,-97,18,14,-12,-11,7,3,-75,6,-9,-25,67,8,81,33,76,117,202,11,734782
-77,-7,19,-6,-22,-30,-87,-13,-9,41,-13,-16,-57,12,-23,-59,-29,0,21,-113,-79,-31,-33,69,-53,-25,26,79,106,193,51,734783
86,23,-11,-1,6,-2,83,179,32,19,96,25,-6,-82,46,105,-63,-46,-112,73,340,60,-56,-82,289,604,-110,-8,30,84,-244,734784
290,35,-49,-27,20,18,274,210,4,-5,198,175,83,16,89,335,-110,-111,-319,275,922,159,-123,-271,721,1541,-273,-132,-114,-87,-628,734785
278,25,-70,-69,-15,-7,297,78,-212,-57,256,91,-78,75,40,377,-99,-103,-346,296,1025,158,-121,-282,731,1769,-276,-150,-187,-154,-506,734786
191,42,-37,-63,-12,-5,280,130,-161,-71,137,3,-48,159,-32,329,-57,-51,-258,238,855,136,-83,-198,558,1545,-180,-104,-188,-126,-187,734787
-2,34,33,-23,-23,-3,38,43,-56,12,159,-135,92,65,-75,75,-7,22,-55,-23,208,-16,-36,-25,19,566,0,-9,-138,-56,191,734788
-58,25,41,-4,-13,-11,-80,-136,2,-88,168,-70,-59,178,-82,-27,-16,23,20,-90,-32,-67,-36,18,-154,164,45,26,-106,-47,81,734789
-64,32,34,11,-17,-19,-89,-63,7,55,148,86,3,154,-82,0,9,35,53,-55,-33,-34,-3,30,-138,124,54,48,-64,-49,146,734790
-94,33,47,32,-16,-15,-94,90,6,-156,29,-57,209,-23,7,-7,36,60,100,-61,-108,-34,22,77,-188,-19,90,87,-28,-44,176,734791
-93,8,8,1,-37,-38,-94,78,-52,-66,-53,-100,-86,14,-4,32,27,50,56,-36,-47,-21,15,55,-127,68,55,70,-39,-71,122,734792
-86,1,15,-30,-32,-29,-161,-103,20,-157,-35,-47,-13,80,-3,63,55,80,75,-14,-10,10,61,79,-105,94,100,96,0,-48,157,734793
28,8,10,-67,-8,1,-101,-3,75,-25,74,36,42,99,21,147,57,69,30,106,229,75,61,27,106,432,46,80,23,-62,-80,734794
224,7,-49,-102,2,2,104,204,-107,-7,330,83,-101,123,70,337,-40,-39,-190,282,784,162,-21,-193,518,1340,-173,-56,-94,-197,-498,734795
251,32,-51,-85,-1,2,165,71,-233,-56,111,101,-36,149,86,369,-44,-43,-221,292,894,175,-46,-208,555,1564,-188,-70,-117,-182,-437,734796
179,43,-20,-52,-1,-9,133,109,-46,-112,-103,53,81,234,62,328,2,17,-137,238,753,171,-7,-106,419,1365,-102,-8,-52,-83,-264,734797
-30,21,29,-35,-38,-24,-103,-66,-11,-165,-150,-60,-5,219,-63,89,44,78,26,-10,173,41,25,61,-54,492,71,76,25,56,161,734798
-73,18,40,-21,-36,-22,-145,-169,-69,69,-170,-37,43,58,-52,-5,20,52,46,-77,-15,-14,5,86,-174,200,86,88,69,109,200,734799
-81,27,49,0,-22,-23,-99,-224,-54,-198,-130,26,-18,49,18,-17,20,59,65,-78,-51,-5,17,106,-186,116,91,106,112,164,222,734800
-78,5,37,-7,-16,-22,-76,-116,45,-42,-38,-77,-52,50,33,-19,28,64,78,-78,-72,5,34,120,-189,65,97,116,138,196,178,734801
-73,-2,43,-9,-12,-4,-76,-35,138,-49,11,-34,39,41,21,-55,3,34,59,-111,-126,-31,16,96,-217,-9,69,93,116,188,120,734802
-14,11,31,15,9,23,-20,115,44,57,143,-11,-34,-107,5,-32,-35,-3,-5,-73,-34,-22,-18,31,-136,131,-5,41,72,144,87,734803
87,14,-14,-22,1,18,74,228,-130,-110,69,9,-12,-41,20,82,-79,-59,-124,49,293,26,-56,-98,119,648,-131,-36,-7,32,-244,734804
177,37,-22,-40,11,28,151,314,23,-95,233,54,140,32,53,227,-57,-46,-178,182,611,115,-39,-139,338,1140,-160,-58,-47,-19,-321,734805
158,39,-34,-53,-5,1,109,265,0,-39,142,-9,54,183,-11,261,-38,-16,-151,195,642,131,-30,-108,324,1213,-128,-43,-63,-36,-269,734806
64,43,-4,-32,-8,-2,-34,6,-24,125,-68,4,20,43,1,163,-18,8,-66,83,384,58,-27,-58,80,848,-56,-7,-71,-29,-24,734807
-58,18,26,-10,-11,-8,-222,-18,-70,47,9,-57,89,-253,-4,-33,-14,19,12,-94,-59,-60,-26,17,-292,186,17,15,-55,-24,159,734808
-61,7,49,-1,2,7,-168,106,79,-92,177,-80,97,-189,-51,-53,3,35,48,-115,-165,-71,5,49,-359,-22,52,43,-17,2,209,734809
-30,18,65,16,9,39,-54,113,133,-30,63,-140,117,-97,-12,-27,10,45,60,-69,-137,-47,4,73,-316,-9,78,59,8,5,156,734810
9,17,52,-3,8,32,-91,-84,13,79,8,-73,-44,-97,20,33,28,44,53,-5,-6,7,35,55,-201,176,59,60,13,-9,97,734811
7,23,46,-14,4,22,-209,45,-1,-57,-6,-12,167,46,8,57,52,62,74,16,28,24,70,66,-193,206,74,69,33,-3,120,734812
-25,-1,31,-35,-17,-3,-244,87,-2,19,-176,-22,157,86,-27,41,48,59,64,8,5,23,54,69,-217,170,77,69,36,1,116,734813
-22,-3,26,-23,-16,-17,-83,148,19,-65,-142,61,72,80,-46,37,22,25,33,5,12,18,34,46,-205,182,39,49,29,-15,24,734814
-16,5,19,-1,-8,-26,96,20,-12,7,13,-28,109,-61,-9,39,7,15,8,1,38,27,32,22,-192,232,5,35,10,-26,-10,734815
16,21,14,2,-7,-11,132,-259,32,21,-5,33,43,-107,16,65,-7,1,-39,25,124,35,7,-23,-132,366,-37,10,-11,-43,2,734816
35,18,8,-14,-7,-3,57,-13,-116,155,-208,99,-15,175,32,59,-8,5,-29,26,136,34,12,-17,-130,387,-32,16,-7,-30,-17,734817
2,14,27,-19,-4,2,-50,69,-131,-60,-32,-11,5,231,-1,20,14,36,16,-12,22,8,27,31,-217,211,15,44,21,32,82,734818
17,17,23,-1,7,9,-44,-23,-91,-100,-139,-59,187,94,-43,64,36,44,19,27,81,42,49,43,-154,288,32,66,53,74,21,734819
-1,41,44,26,14,25,-19,17,46,41,-107,-73,0,141,-17,23,26,29,35,-12,5,19,41,53,-203,178,41,58,47,89,71,734820
8,31,21,19,4,9,59,117,49,154,-15,-133,-15,-10,-20,17,-4,-7,-2,-3,44,2,12,5,-154,261,-9,21,15,57,-26,734821
31,28,7,13,1,-3,133,-16,-97,26,67,-94,-66,-34,-57,49,-21,-20,-46,24,144,19,8,-38,-89,414,-49,-8,-14,25,-73,734822
17,27,3,7,2,-9,96,69,-162,-56,114,-13,-69,2,-58,38,-21,-15,-55,11,121,2,-3,-46,-126,390,-52,-20,-37,4,13,734823
-90,10,40,14,-7,-3,-105,47,57,3,-37,-61,80,-84,-109,-104,15,34,88,-126,-257,-70,19,89,-437,-210,74,64,27,84,239,734824
-59,3,44,19,8,14,-103,43,-42,-124,101,-16,14,-81,-41,-77,22,34,96,-78,-214,-43,32,87,-370,-180,68,78,61,73,174,734825
-15,15,41,34,20,27,-86,-29,15,46,95,-33,78,-39,12,-40,9,30,52,-56,-145,-29,27,50,-314,-98,44,58,45,46,76,734826
-18,7,30,18,10,27,-77,-39,172,21,-91,35,141,-120,-12,-22,4,24,40,-32,-100,-22,16,31,-295,-54,33,40,36,27,96,734827
23,23,23,25,18,23,11,47,40,-72,-80,103,46,-4,54,37,13,29,17,23,42,10,29,15,-190,163,10,27,30,17,90,734828
35,12,16,9,5,9,33,233,-125,23,55,104,87,37,48,59,-11,10,-18,33,106,26,1,-2,-154,282,-12,-8,21,6,26,734829
27,12,20,12,15,16,14,226,-53,22,16,8,14,-20,-7,40,-15,6,-14,8,67,10,5,0,-203,232,-4,-7,18,1,54,734830
15,13,18,9,13,23,-14,-52,-45,-62,-142,-57,55,-3,-56,-33,-29,-37,-55,-56,-25,-43,-18,-52,-294,130,-51,-45,-26,-42,11,734831
19,18,37,10,23,40,12,5,19,-14,-289,4,177,4,-87,-38,-8,-14,-15,-72,-80,-43,0,-10,-343,42,8,-14,8,1,-11,734832
24,1,32,16,23,40,119,30,18,183,174,-67,52,-32,-72,-13,-7,-8,6,-42,-53,-22,-9,16,-304,77,33,4,32,19,-82,734833
38,23,39,57,34,48,156,102,76,127,385,-75,17,-68,-33,-10,-22,-40,-47,-33,-15,-30,-21,-41,-276,150,-29,-36,-2,-27,-47,734834
14,30,17,44,24,28,63,21,26,-2,-106,-34,36,-63,-7,-11,-10,-32,-39,-19,2,-21,-1,-36,-262,157,-39,-30,0,-23,14,734835
-2,5,-9,0,-4,10,3,11,-10,-151,-110,22,-54,26,-41,26,-11,-15,-26,16,66,6,1,-13,-203,246,-17,-2,6,-8,-11,734836
13,17,23,1,8,20,-23,113,40,-124,-159,8,27,54,21,57,6,11,-3,41,85,21,10,19,-180,263,11,30,16,29,111,734837
-6,8,20,-15,1,8,-39,20,-13,-123,-53,15,-19,-40,52,33,2,12,11,18,37,2,-3,13,-217,211,17,16,7,20,159,734838
-36,3,7,-21,-17,-14,-17,-145,-26,109,-143,54,-113,167,63,24,36,35,36,9,-18,6,25,30,-244,102,44,26,11,24,54,734839
-24,25,25,13,-2,-3,45,33,36,-17,-89,13,-34,85,99,28,47,30,52,9,-16,10,46,24,-238,88,32,34,-10,9,88,734840
-37,20,13,8,-12,-11,34,63,-70,6,45,7,33,-92,-18,-6,9,0,34,-19,-44,-17,25,2,-252,67,0,9,-49,-41,98,734841
-29,30,11,23,4,11,37,27,-48,56,63,-45,149,36,-7,3,25,27,49,-3,-41,-6,33,23,-230,47,24,34,-29,-41,104,734842
-30,32,9,24,4,12,43,-64,29,-68,-4,-50,119,115,-32,19,44,44,62,19,-31,2,42,32,-211,36,52,48,-21,-31,59,734843
34,25,-12,7,4,10,67,-127,45,-48,-29,27,192,178,-14,82,17,16,-9,76,140,48,6,-20,-96,308,-6,-1,-30,-56,-22,734844
55,29,-2,8,24,9,34,-190,-124,21,-160,76,-6,-46,8,109,30,26,-9,93,172,77,30,-9,-75,381,-3,8,-16,-30,-18,734845
63,22,17,6,33,25,-21,90,-17,-70,-43,25,0,-118,-9,68,-10,-18,-64,54,156,21,-9,-59,-129,379,-52,-46,-52,-63,-39,734846
26,-6,21,2,16,26,-96,-21,115,-30,-22,-33,102,-112,52,10,-23,-8,-51,-16,43,-23,-25,-35,-238,237,-36,-49,-32,-35,-91,734847
-31,-2,27,-4,-8,5,-104,-179,94,73,-25,-13,95,-50,97,-9,3,20,17,-28,-31,-4,12,29,-274,109,23,-1,34,43,64,734848
-16,6,47,-1,6,19,-81,-305,-55,58,-116,51,-179,76,60,3,3,26,28,-13,-18,8,6,44,-256,107,53,11,70,76,74,734849
-5,-6,49,-16,20,29,-87,-256,-18,-70,3,2,-74,114,48,-10,1,25,32,-38,-65,-14,-8,42,-292,41,47,11,66,92,101,734850
35,-6,26,-3,30,33,24,-137,52,-59,8,-43,2,19,19,-30,-44,-34,-55,-39,5,-39,-45,-42,-250,173,-45,-62,9,28,-99,734851
11,6,10,19,17,12,105,-41,-26,-3,6,-113,-55,-22,1,-64,-49,-45,-58,-66,-54,-56,-32,-44,-304,99,-42,-75,6,31,-53,734852
6,24,7,41,11,2,168,20,-94,75,-23,-41,-177,39,10,-69,-52,-57,-57,-70,-75,-64,-42,-54,-316,70,-57,-75,2,41,-51,734853
-6,11,-4,24,-6,-20,92,-6,-133,-10,59,5,-23,-130,-6,-21,-12,-28,-4,-28,-23,-22,-6,-13,-245,142,-17,-27,31,64,-27,734854
34,-4,-5,-12,-10,-14,-3,-7,43,59,-52,56,1,43,57,64,9,-3,-20,48,148,29,9,-9,-118,391,2,-24,29,69,-43,734855
9,1,10,-18,-8,-2,-74,157,99,-16,-36,18,12,-44,24,61,13,6,-28,46,134,26,15,-12,-142,362,11,-28,17,65,-42,734856
6,-3,2,-20,-14,3,-104,7,41,74,16,34,-81,-92,-22,11,-50,-56,-98,-10,106,-27,-54,-84,-179,344,-67,-106,-70,-37,-92,734857
-43,-11,5,-22,-21,-11,-160,-43,-52,141,-149,17,-19,-71,-101,-49,-43,-45,-51,-77,-57,-81,-66,-48,-306,95,-18,-89,-79,-41,-53,734858
-44,-2,14,-11,-7,-9,-87,41,97,89,-14,-6,20,102,-40,-37,-19,-17,1,-52,-73,-64,-37,-33,-279,35,10,-54,-89,-56,-29,734859
-5,-7,1,-2,-3,-15,49,92,-61,183,17,7,-138,84,-46,1,-26,-32,-25,-1,15,-38,-25,-55,-195,167,-25,-62,-127,-116,-59,734860
0,15,6,20,5,5,67,20,-39,-68,85,-4,-98,112,66,-5,-34,-33,-42,-6,6,-38,-50,-64,-203,158,-32,-85,-155,-158,16,734861
0,15,15,15,8,15,8,-70,15,6,146,-33,169,8,7,11,-11,5,9,3,-18,-13,-24,-33,-214,102,3,-62,-123,-151,50,734862
24,5,6,5,-2,9,16,27,30,27,9,-57,-68,11,36,60,27,20,24,51,60,23,11,-23,-151,177,26,-27,-89,-132,-20,734863
111,11,-23,-6,13,-1,131,-68,-33,13,78,59,-259,194,60,183,21,6,-50,165,346,106,6,-69,83,625,-27,-47,-85,-151,-174,734864
120,28,-40,-14,10,-5,172,-153,-31,-15,8,92,-210,302,56,199,-9,-14,-95,170,438,109,-9,-113,141,841,-80,-78,-91,-164,-205,734865
103,32,-36,0,3,-2,166,23,51,-54,-2,83,-92,213,-12,156,-42,-32,-131,128,420,91,-49,-127,112,863,-103,-111,-79,-138,-259,734866
73,35,-11,9,0,-6,118,20,71,-12,-24,87,-96,37,31,120,-37,-14,-123,83,340,70,-50,-79,41,764,-72,-103,-41,-69,-281,734867
-42,19,34,1,-9,-14,-4,-23,40,-165,-95,-20,-134,8,34,12,15,36,3,-21,55,20,-3,40,-187,305,32,-29,38,61,-57,734868
-78,-3,21,-1,-13,-5,-38,-57,36,-31,-372,-112,-77,-158,-37,-63,-4,-2,25,-94,-86,-40,-20,26,-284,109,7,-39,48,75,42,734869
-73,-9,-1,-5,-15,-12,-3,-161,48,-37,-258,-42,-94,-225,-46,-91,-43,-49,-23,-126,-110,-78,-60,-22,-285,110,-38,-75,26,65,-16,734870
-74,-14,6,-17,-16,-5,18,-98,60,23,-78,-12,-150,-74,-19,-55,-9,-2,8,-86,-102,-40,-29,33,-262,103,19,-31,82,137,71,734871
-23,-5,21,-7,7,11,48,-47,48,98,-13,-13,-38,-21,19,-35,3,0,13,-62,-71,-23,-13,31,-221,144,17,-17,98,160,21,734872
-2,4,19,21,10,16,60,-41,75,-5,-19,40,-75,-95,5,-56,-16,-26,-1,-78,-85,-43,-23,-4,-216,123,-28,-41,75,121,-9,734873
55,12,-2,30,16,16,99,-61,64,-200,-26,-36,37,78,18,9,-55,-50,-68,-14,96,-13,-40,-67,-75,395,-77,-87,17,77,-192,734874
87,26,-6,31,28,27,124,158,4,-72,129,17,49,200,11,60,-75,-72,-112,37,238,4,-80,-107,26,638,-116,-114,-34,22,-264,734875
73,9,-14,4,13,15,128,329,-9,97,375,-18,153,-6,-42,52,-105,-96,-133,41,272,-2,-112,-126,49,716,-134,-140,-82,-33,-262,734876
83,4,8,-8,21,33,103,94,-4,74,122,-13,141,-141,-3,64,-81,-78,-117,35,273,-3,-104,-114,54,727,-95,-140,-111,-46,-203,734877
17,7,38,-3,25,24,14,142,146,269,-163,-13,77,-264,1,-6,-55,-40,-57,-41,66,-43,-71,-53,-132,382,-46,-111,-116,-51,11,734878
-5,16,47,2,26,22,5,149,64,28,12,-55,-86,-109,-17,13,14,24,47,-12,-4,-4,5,27,-153,234,25,-37,-72,-41,68,734879
-19,-4,26,-27,3,10,-64,-24,-3,13,205,5,162,-53,-9,36,34,43,69,13,14,3,19,25,-122,231,56,-23,-83,-76,65,734880
-19,-20,-4,-52,-12,-15,-133,-22,-36,-113,70,20,52,-59,13,49,19,29,33,38,61,0,1,-18,-88,290,34,-44,-111,-143,-3,734881
8,-20,-6,-53,-11,-15,-181,11,-30,-151,-168,57,-19,93,-5,63,20,22,29,57,85,13,-1,-23,-56,338,42,-44,-115,-157,-40,734882
30,-7,15,-34,-2,-10,-143,21,-49,-211,-181,39,223,50,-11,92,51,52,74,76,105,44,41,25,-38,333,76,-5,-62,-122,-30,734883
2,7,21,3,2,-15,-30,-125,-23,-59,-115,13,81,42,-39,63,56,65,92,48,53,37,58,45,-74,258,82,7,-31,-91,103,734884
86,10,-29,-9,6,-15,137,92,-103,-160,67,35,-273,68,18,146,-30,-19,-93,132,343,60,-32,-98,171,771,-77,-105,-89,-154,-208,734885
109,2,-37,-38,-8,-18,128,-84,-117,-49,32,86,-61,97,-3,155,-75,-67,-198,136,463,54,-98,-167,250,1026,-144,-171,-113,-168,-311,734886
108,7,-1,-28,4,-1,20,91,-107,-147,35,-31,67,152,17,121,-54,-47,-157,75,391,42,-83,-131,183,951,-100,-141,-77,-99,-212,734887
14,-4,20,-40,-14,-11,-112,-152,29,-146,9,-70,55,80,-30,38,0,8,-34,-22,131,12,-27,-10,-4,562,7,-53,2,28,73,734888
-29,7,30,-12,-14,-9,-69,-145,141,59,42,-95,171,-121,26,19,56,67,56,-22,20,36,22,64,-57,374,72,16,87,122,124,734889
-47,7,15,9,-11,-27,-3,35,0,-4,-77,-90,35,29,-19,-31,20,20,23,-74,-49,-8,-4,36,-108,269,22,-15,65,113,59,734890
-42,9,13,26,1,-13,58,89,59,-135,85,-86,224,115,-77,-45,1,8,24,-86,-80,-22,-18,50,-126,204,34,-8,86,145,111,734891
-8,10,32,22,12,7,92,16,79,-93,126,-32,83,-146,-44,-18,-16,3,1,-33,5,3,-25,34,-29,332,4,-31,72,148,18,734892
-1,22,32,27,16,17,68,10,74,-263,241,-36,-25,-189,-47,3,-12,-2,-7,-25,33,10,-18,21,3,376,-4,-31,63,148,-35,734893
225,42,-42,-6,30,31,275,158,-46,-115,147,149,-95,-16,39,256,-66,-69,-190,230,663,144,-77,-173,521,1355,-181,-138,-27,16,-457,734894
615,71,-167,-72,47,39,706,474,-205,-108,435,366,-229,49,87,707,-209,-246,-616,656,1904,365,-216,-581,1457,3376,-573,-393,-271,-292,-1247,734895
742,71,-191,-106,38,19,852,475,-320,-173,597,277,-212,203,103,871,-294,-323,-865,762,2449,406,-320,-786,1781,4422,-767,-563,-492,-483,-1506,734896
551,65,-116,-112,11,-3,600,134,-126,-226,478,182,-71,-28,37,712,-224,-217,-719,563,2058,312,-284,-614,1361,3950,-579,-484,-492,-402,-1008,734897
-97,13,64,-48,-62,-67,-189,-239,121,-123,-61,-129,143,-327,-56,14,-11,53,-65,-140,221,-46,-94,14,-141,1104,43,-123,-234,-26,336,734898
-190,17,83,5,-50,-63,-241,-81,100,-7,-57,-253,80,-210,-81,-129,-4,64,116,-233,-236,-125,-55,113,-390,308,119,-50,-128,21,380,734899
-83,24,54,-6,-25,-33,-137,-150,64,-16,-42,-150,-126,-56,-60,-64,-44,17,30,-136,-92,-99,-92,18,-226,483,38,-98,-153,-87,207,734900
-37,27,49,-5,-19,-22,-101,-113,128,-22,-80,-91,-6,28,-54,-10,-8,45,58,-57,-26,-51,-49,26,-157,525,59,-55,-114,-92,200,734901
-52,6,30,-27,-37,-29,-83,-202,103,-3,-103,-85,20,47,-82,-4,-13,19,44,-56,-36,-62,-51,9,-155,509,42,-62,-120,-118,123,734902
-74,12,56,-17,-12,-15,-123,-167,162,16,-151,-133,-7,-112,-66,-63,-23,17,57,-114,-165,-98,-44,23,-233,296,45,-60,-95,-102,160,734903
376,39,-61,-40,37,15,379,245,-209,-28,332,173,-140,131,82,435,-137,-163,-360,398,1118,194,-146,-383,830,2290,-359,-283,-231,-355,-963,734904
1072,81,-259,-160,56,54,1193,823,-346,154,713,438,-232,285,171,1230,-411,-466,-1162,1135,3334,582,-423,-1103,2495,5918,-1077,-737,-633,-852,-2279,734905
985,84,-232,-213,6,11,1085,595,-324,-10,453,268,-208,100,149,1187,-438,-441,-1248,1010,3440,518,-489,-1106,2385,6365,-1069,-803,-776,-852,-1919,734906
563,79,-100,-190,-38,-52,587,470,-288,-36,364,46,-61,62,34,757,-302,-257,-875,534,2391,281,-392,-715,1443,4896,-686,-607,-643,-552,-894,734907
-95,43,99,-102,-76,-79,-199,-153,24,15,-120,-243,117,-198,-179,30,-57,47,-146,-190,412,-92,-172,-33,-111,1843,-14,-192,-277,-33,393,734908
-233,36,110,-47,-76,-88,-306,-404,125,-111,-213,-314,131,-282,-141,-114,36,108,116,-278,-122,-125,-47,148,-370,923,149,-27,-68,162,517,734909
-165,42,88,-27,-49,-65,-215,-310,102,-130,-113,-284,189,-150,-82,-28,51,108,146,-170,-26,-54,-5,145,-193,983,146,19,21,201,350,734910
-165,16,75,-43,-38,-63,-285,-146,-11,126,-82,-228,138,-45,-101,-35,56,112,180,-169,-96,-50,1,165,-213,828,173,51,70,239,388,734911
-149,-3,75,-44,-40,-49,-402,-182,25,42,-147,-230,78,-186,-66,-65,32,72,139,-191,-140,-66,-18,131,-209,733,136,24,52,204,357,734912
-156,-15,71,-62,-46,-40,-509,-181,22,34,-207,-167,165,-98,-56,-69,34,80,125,-185,-145,-58,1,115,-199,681,116,19,59,197,377,734913
-16,13,31,-64,-22,-34,-310,-87,34,28,-257,-36,65,99,-15,129,52,76,58,25,261,84,12,55,168,1240,46,3,61,152,26,734914
204,27,-38,-76,-18,-22,43,-30,33,70,-91,-26,-98,146,31,358,-45,-30,-180,254,884,183,-74,-165,662,2256,-172,-132,-70,-35,-462,734915
277,34,-41,-71,-11,-12,283,131,8,-4,87,45,-114,50,60,405,-91,-73,-277,286,1077,188,-133,-250,759,2631,-250,-212,-159,-117,-524,734916
203,45,-22,-49,-9,-28,339,117,-79,37,230,-15,-128,18,-30,323,-76,-36,-214,199,897,138,-117,-194,581,2399,-183,-202,-166,-95,-326,734917
-63,52,62,-3,-28,-43,13,-97,15,16,-36,-125,34,-9,-85,35,34,83,67,-84,120,-5,-5,61,-38,1205,78,-35,-58,60,290,734918
-116,27,63,10,-35,-30,-133,-87,11,-3,-248,-170,99,-216,-87,-54,20,57,112,-154,-113,-75,-13,90,-205,806,102,-15,-29,59,294,734919
-134,6,61,-7,-35,-29,-241,-88,51,-21,-172,-77,216,-150,-85,-81,15,52,119,-176,-223,-104,-23,95,-258,643,103,-8,-9,40,251,734920
-119,2,75,3,-16,-24,-200,-104,95,43,-25,-117,100,-3,-89,-79,31,59,152,-172,-274,-94,16,103,-283,522,118,20,32,42,235,734921
-112,13,97,24,1,-10,-114,-83,130,-68,-59,-127,-79,-264,-56,-103,23,37,149,-178,-310,-105,12,100,-310,418,113,18,36,35,209,734922
-82,23,79,26,9,1,-86,138,55,-5,39,-135,-72,-117,-36,-79,-2,24,98,-145,-236,-89,-8,57,-228,509,62,-7,22,5,122,734923
76,33,19,-3,4,10,46,214,-21,64,271,50,-115,-13,42,107,-56,-51,-71,56,252,11,-59,-101,196,1263,-92,-91,-43,-84,-252,734924
146,12,-26,-53,-25,-24,104,128,22,124,310,60,212,40,23,196,-119,-110,-211,122,559,43,-114,-210,406,1760,-190,-171,-133,-152,-402,734925
139,26,-30,-46,-26,-45,132,89,0,-10,232,63,191,-97,16,237,-62,-53,-136,142,629,92,-52,-145,450,1882,-133,-111,-102,-99,-258,734926
25,28,-1,-42,-32,-50,76,-54,-95,-45,122,54,-35,-120,-58,151,-3,7,-19,41,362,53,0,-36,241,1485,-18,-31,-54,-8,30,734927
-98,25,49,-1,-18,-33,-39,30,20,19,-200,-80,-139,-75,-110,-33,25,42,74,-136,-74,-51,3,76,-98,809,75,18,-7,64,207,734928
-148,21,54,16,-18,-37,-103,221,80,-112,36,-167,-56,-25,-52,-111,28,51,122,-205,-281,-93,19,117,-236,451,104,36,24,99,274,734929
-111,24,63,22,-9,-16,-132,80,95,126,201,-85,149,-28,-65,-83,50,71,161,-153,-256,-46,46,139,-174,438,138,72,78,127,285,734930
-74,12,55,6,-13,-11,-160,52,-33,124,18,-21,81,-36,9,-47,56,77,176,-117,-201,-12,55,143,-103,479,150,93,99,130,288,734931
-67,16,46,3,-10,-5,-111,39,-38,8,-39,35,-116,56,3,-17,55,87,159,-85,-157,1,44,135,-50,527,144,97,102,122,246,734932
-77,17,44,5,-5,-9,-50,-25,8,-57,20,-34,80,25,-9,-11,58,80,157,-77,-147,3,37,135,-28,521,137,100,94,109,174,734933
-115,-2,32,8,-10,-18,-46,-79,-15,28,87,-110,24,68,-32,-94,13,36,128,-151,-260,-63,-2,108,-116,358,115,63,59,78,224,734934
-139,-6,48,33,5,-6,-43,-22,-7,-50,-2,-45,178,-74,-77,-150,18,42,168,-190,-407,-96,25,141,-218,111,144,98,85,95,282,734935
-182,3,75,53,20,16,-192,-233,10,-30,-259,-50,19,-14,-103,-237,44,73,241,-278,-662,-157,51,210,-405,-301,197,134,128,127,430,734936
-193,-4,77,43,18,14,-277,-132,48,-140,-251,-85,24,-132,-59,-284,46,67,249,-303,-786,-179,73,206,-475,-526,178,142,150,140,438,734937
-5,5,21,40,39,32,-41,96,-65,-163,-61,-28,96,-33,-4,-82,7,8,104,-89,-292,-52,49,57,-58,222,39,68,106,58,44,734938
40,19,-5,45,29,17,43,-51,-101,-23,35,50,26,-78,12,6,14,16,56,-7,-89,4,43,37,77,553,24,52,109,52,-4,734939
-2,9,-11,24,3,-6,2,-86,54,-112,-142,29,-41,-76,-37,-5,18,24,64,-20,-100,9,41,45,41,543,36,43,123,77,42,734940
-19,-4,4,2,0,-17,-23,-77,36,46,-168,9,14,-23,-20,-15,25,33,88,-34,-130,-3,59,74,15,487,59,79,133,111,52,734941
17,6,6,11,11,-4,45,7,-120,114,11,75,-82,46,62,0,6,13,39,-15,-49,-7,41,39,76,619,15,54,110,88,-46,734942
-28,2,2,0,-4,-18,1,-49,17,42,-13,53,-3,-41,42,-48,-28,-15,8,-67,-117,-46,6,20,9,565,-10,18,63,56,15,734943
-466,-33,133,44,-33,-29,-555,-48,262,157,-387,-245,227,-283,-56,-549,108,154,425,-575,-1417,-326,123,415,-1041,-1450,401,248,220,318,1002,734944
-957,-80,261,120,-52,-55,-1111,-568,358,161,-839,-392,328,-435,-169,-1100,327,370,1025,-1086,-3001,-586,332,933,-2201,-4129,920,597,545,696,1958,734945
-908,-71,248,176,-10,-21,-1004,-538,239,170,-505,-223,124,-384,-74,-1069,375,382,1135,-995,-3120,-525,418,976,-2132,-4611,958,707,683,743,1826,734946
-592,-63,128,161,25,14,-582,-445,100,164,-152,-124,-3,-236,-22,-743,273,246,837,-615,-2297,-320,343,677,-1369,-3514,652,563,577,518,1098,734947
4,-47,-64,84,60,34,96,148,-148,132,114,110,1,4,78,-111,33,-42,181,30,-533,0,132,60,30,-795,40,182,250,49,-200,734948
173,-23,-62,41,73,47,187,223,-90,167,272,238,75,152,91,53,-31,-85,-30,143,-6,69,64,-82,341,86,-92,54,73,-103,-366,734949
139,-19,-52,14,44,34,84,40,-93,-39,292,214,-108,246,76,45,-18,-57,-40,121,20,70,64,-66,302,169,-68,38,13,-114,-240,734950
88,-12,-22,15,39,38,21,0,-101,45,300,183,-92,135,85,34,23,-9,9,86,-23,69,89,-28,239,129,-18,54,5,-94,-172,734951
40,-20,-28,6,21,5,47,-86,-6,-16,204,135,-23,125,43,5,22,7,26,56,-71,45,79,-12,174,50,-2,57,2,-103,-57,734952
37,-14,-26,8,35,14,97,-85,10,-88,44,10,11,113,26,-17,2,-9,-3,28,-82,15,45,-26,142,60,-13,35,-31,-121,-77,734953
-298,-39,71,36,3,-2,-297,-379,137,175,-202,-151,95,-109,-91,-429,55,76,247,-389,-1062,-228,82,232,-668,-1412,236,164,53,46,731,734954
-825,-98,208,99,-41,-22,-958,-784,300,99,-649,-348,134,-342,-196,-1053,229,280,824,-979,-2772,-547,244,754,-1945,-4199,751,487,366,427,1726,734955
-865,-97,209,144,-15,-7,-1027,-652,366,190,-673,-340,199,-205,-145,-1098,345,358,1039,-951,-3090,-517,390,917,-2044,-4947,895,653,594,604,1761,734956
-658,-85,129,148,11,-6,-735,-376,162,29,-484,-217,-74,199,-102,-839,335,309,922,-647,-2550,-339,410,797,-1489,-4289,749,631,662,558,1161,734957
59,-39,-90,89,64,37,193,-24,-78,-60,235,184,-285,465,99,-24,98,9,200,170,-428,89,197,99,243,-1021,70,230,391,124,-329,734958
171,-23,-108,44,55,43,276,35,-46,-184,317,264,-159,233,82,102,19,-54,-48,239,50,119,80,-68,488,-121,-73,90,222,23,-397,734959
83,-28,-84,37,42,27,167,135,-7,-146,-6,19,-184,34,53,-13,9,-56,-49,100,-138,45,77,-33,259,-314,-81,63,180,52,-217,734960
86,-11,-56,46,49,53,181,79,-55,-28,2,96,-147,54,8,-14,1,-57,-56,79,-112,31,62,-36,252,-219,-91,44,153,74,-164,734961
62,-16,-64,28,37,18,150,3,-94,95,-56,93,-153,-123,59,-26,-14,-53,-60,51,-107,9,37,-34,220,-178,-80,29,138,90,-105,734962
10,-26,-58,17,19,7,91,87,-58,148,-93,192,-160,-1,61,-59,-2,-36,-32,14,-182,-17,28,9,126,-274,-26,44,138,123,-46,734963
-304,-56,38,15,-21,-13,-343,-32,45,111,-204,-24,-13,-116,-18,-369,133,137,314,-315,-1084,-180,141,356,-590,-1706,326,251,279,358,775,734964
-848,-88,203,114,-34,-31,-988,-462,253,48,-495,-303,279,-246,-105,-995,376,414,1022,-893,-2813,-460,405,952,-1903,-4583,914,657,605,748,1883,734965
-840,-84,186,169,-1,-6,-918,-570,341,-72,-498,-300,31,-163,-34,-1036,390,387,1119,-863,-3038,-448,460,963,-1929,-5173,917,714,686,735,1644,734966
-524,-83,57,152,23,10,-517,-314,127,-11,-293,-53,83,-134,-9,-732,243,193,769,-500,-2224,-288,341,614,-1198,-4061,558,510,541,447,744,734967
34,-47,-117,75,59,37,118,310,-99,70,292,274,-14,153,124,-101,44,-64,158,130,-514,40,158,32,152,-1456,0,170,231,-2,-470,734968
152,-28,-135,13,49,28,193,324,-182,122,184,308,-158,362,112,75,-17,-99,-61,245,26,109,65,-125,469,-555,-124,49,39,-170,-463,734969
105,-49,-110,-10,23,16,128,190,-110,158,23,296,-117,264,109,79,13,-39,-55,218,67,122,71,-77,424,-467,-73,61,7,-165,-318,734970
103,-44,-80,-2,30,28,162,66,-58,92,-104,237,-312,52,113,57,10,-39,-67,187,65,86,70,-85,384,-425,-78,33,-45,-200,-285,734971
93,-32,-100,15,23,9,233,22,-95,97,20,200,-136,168,55,25,-34,-93,-120,147,54,39,13,-138,333,-392,-124,-17,-104,-264,-254,734972
80,-13,-87,30,21,1,246,65,-83,231,149,183,-57,132,87,6,-47,-96,-115,127,56,20,-13,-136,305,-367,-135,-31,-124,-269,-206,734973
-233,-28,27,72,4,-8,-146,-72,30,22,-37,-170,43,-72,-12,-361,53,33,194,-255,-866,-181,82,162,-473,-1787,166,133,-1,-53,487,734974
-724,-62,161,142,-29,-38,-700,-364,123,55,-540,-387,80,-164,-97,-898,253,274,749,-761,-2377,-436,281,682,-1617,-4235,665,468,327,347,1521,734975
-859,-92,179,169,-23,-34,-898,-694,228,90,-753,-315,173,-27,-118,-1041,372,371,1036,-858,-2970,-457,421,918,-1944,-5362,894,676,596,569,1776,734976
-605,-92,94,152,11,3,-666,-492,182,151,-410,-83,180,168,-8,-811,307,256,857,-597,-2443,-327,391,721,-1423,-4695,690,597,607,481,1184,734977
81,-48,-107,73,78,63,130,60,-109,84,119,265,-193,334,123,-74,50,-55,105,145,-459,42,166,19,162,-1617,-13,184,308,46,-343,734978
178,-32,-119,20,73,61,174,228,-116,-45,102,239,-142,179,69,53,-22,-116,-134,218,37,87,63,-142,412,-714,-176,39,149,-62,-458,734979
138,-31,-81,8,63,57,103,180,-130,-46,104,202,-82,199,4,64,28,-45,-62,206,62,108,97,-53,359,-613,-83,81,184,59,-310,734980
91,-49,-56,-5,50,53,102,75,-101,-119,190,187,7,204,25,36,45,-19,-35,158,4,84,89,0,268,-636,-29,85,194,140,-256,734981
81,-33,-62,32,49,43,184,240,-16,-81,166,174,63,162,85,-6,22,-39,-55,100,-74,53,47,-15,163,-688,-42,59,161,146,-245,734982
76,-1,-75,72,41,26,249,-46,-106,-53,295,108,-15,191,95,-27,6,-63,-71,66,-91,33,28,-31,102,-697,-70,45,124,121,-190,734983
-185,-26,-6,71,3,1,-45,-48,21,-101,-142,-184,35,-15,-79,-351,28,8,108,-262,-815,-171,57,142,-537,-1838,101,113,121,190,412,734984
-674,-60,150,160,-5,3,-646,-314,207,-173,-556,-347,-28,-75,-154,-911,223,245,712,-789,-2373,-448,254,668,-1735,-4399,642,456,389,535,1376,734985
-651,-84,132,162,10,20,-625,-457,248,95,-437,-150,-24,128,-135,-899,263,253,821,-717,-2505,-400,307,718,-1696,-4815,688,532,496,559,1215,734986
-342,-70,53,141,50,55,-275,-238,267,48,-301,-14,-147,78,-49,-572,200,148,573,-353,-1737,-198,256,470,-1014,-3785,446,413,415,350,558,734987
164,-26,-91,98,90,88,332,48,-30,50,115,299,-194,134,69,-8,54,-47,68,210,-252,104,135,-9,160,-1520,-18,136,154,-34,-361,734988
249,-28,-120,54,73,90,418,208,-36,-13,202,206,-143,87,-6,90,-32,-119,-143,269,161,103,27,-176,368,-798,-168,-7,-47,-219,-486,734989
194,-20,-89,74,81,83,334,249,-62,68,114,12,-172,-204,6,-3,-81,-153,-206,165,84,28,-46,-204,223,-854,-212,-75,-156,-295,-432,734990
190,-6,-96,65,62,68,317,142,-61,-96,102,-27,-152,-224,3,6,-111,-179,-266,165,163,18,-81,-265,253,-677,-253,-134,-227,-359,-510,734991
143,3,-79,44,37,43,280,123,-21,-66,-142,95,24,0,69,42,-37,-86,-155,174,173,66,-5,-156,229,-681,-145,-45,-158,-267,-349,734992
123,3,-57,21,26,29,270,134,55,-15,11,210,-164,11,55,57,15,-27,-66,188,128,97,56,-63,199,-718,-47,34,-86,-193,-136,734993
3,-22,-33,8,6,19,108,186,-16,45,-55,96,-130,-117,-15,-65,22,-10,-17,54,-171,0,46,-2,-67,-1131,0,48,-76,-153,25,734994
-219,-32,31,19,-8,-5,-256,-116,67,41,-23,2,62,-186,-40,-299,118,88,210,-202,-828,-113,120,211,-592,-2162,207,173,55,26,442,734995
-269,-40,23,28,-13,-17,-430,-353,83,-46,-72,45,-24,-185,23,-366,124,88,292,-245,-1003,-132,153,246,-696,-2503,248,212,132,87,467,734996
-176,-51,-16,24,0,2,-401,-221,42,156,-120,-5,49,-244,36,-294,63,1,190,-153,-779,-102,89,145,-491,-2169,125,146,122,43,169,734997
80,-48,-73,-9,30,37,27,38,11,87,149,63,-55,-133,97,-32,-22,-105,-81,107,-64,22,8,-88,67,-1043,-118,7,27,-90,-338,734998
133,-27,-45,16,48,52,315,108,31,17,341,153,71,103,147,9,-28,-88,-142,116,68,38,-6,-110,123,-781,-129,-16,5,-60,-241,734999
122,-5,-44,39,39,50,393,74,-36,124,314,62,77,81,126,-6,-56,-97,-143,83,66,16,-47,-109,96,-731,-122,-37,10,-17,-224,735000
82,6,-52,58,28,46,282,241,-44,122,278,82,54,-4,71,-25,-59,-87,-124,44,27,2,-59,-73,38,-763,-98,-20,24,32,-192,735001
87,-1,-63,31,17,32,159,219,0,-72,204,79,43,75,0,23,-32,-63,-117,88,111,46,-26,-67,109,-605,-87,-2,42,72,-118,735002
126,-13,-52,9,34,46,149,45,-23,-60,5,39,-70,6,49,77,-22,-60,-126,149,248,83,0,-81,197,-367,-102,-2,35,72,-137,735003
58,-15,-18,11,37,59,111,-154,11,-215,-29,10,-37,-51,32,7,-13,-28,-57,61,74,37,7,-24,13,-658,-55,14,24,77,-110,735004
76,0,-28,17,27,50,160,96,-3,-204,134,-20,-113,53,29,20,-18,-51,-91,91,125,45,-24,-60,60,-588,-84,-27,-29,20,-212,735005
123,-2,-35,6,35,54,170,282,-53,-108,133,-19,-41,81,-23,39,-30,-68,-166,126,215,48,-47,-123,118,-427,-125,-71,-85,-52,-303,735006
146,8,-23,15,38,53,154,147,105,45,6,126,58,146,76,63,-39,-51,-152,139,241,56,-44,-122,131,-362,-104,-76,-103,-84,-245,735007
84,-3,-29,6,15,31,89,104,31,-85,-30,14,71,50,-1,10,-26,-26,-86,85,84,27,-42,-73,2,-603,-43,-37,-105,-80,-45,735008
75,-11,-38,20,8,23,119,-237,-26,40,-18,78,-32,39,106,23,-26,-34,-81,98,117,42,-27,-71,32,-567,-48,-37,-108,-108,-133,735009
63,11,-39,26,8,10,162,69,-87,28,-95,91,6,4,72,50,-11,-20,-72,117,157,51,-8,-77,53,-507,-43,-32,-99,-127,-147,735010
16,21,-37,29,4,-10,138,185,54,-90,-99,114,112,219,-5,52,18,5,-57,125,144,64,13,-58,38,-536,-29,-4,-91,-123,-151,735011
13,7,-43,-3,-9,-10,37,176,-35,-67,-93,33,-38,190,45,73,38,5,-55,142,160,76,24,-44,51,-504,-26,-3,-79,-106,-134,735012
50,-29,-51,-50,-17,-3,-60,78,-142,-8,-97,100,-165,205,73,96,26,4,-78,160,209,84,9,-51,71,-421,-26,-13,-73,-97,-103,735013
221,-16,-78,-75,-5,11,76,86,-108,-98,-74,308,-73,153,127,274,13,-12,-137,332,620,192,2,-139,392,211,-101,-35,-75,-141,-408,735014
379,15,-112,-85,10,12,379,247,-56,-2,386,243,-21,178,106,475,-44,-65,-314,507,1164,287,-51,-295,780,1123,-268,-148,-161,-242,-721,735015
441,48,-123,-64,10,23,646,398,-87,29,303,120,-150,184,110,535,-124,-137,-492,549,1459,298,-127,-436,947,1706,-412,-263,-287,-343,-865,735016
350,46,-105,-44,-12,13,620,171,-127,-31,141,55,72,33,88,433,-150,-152,-483,414,1284,209,-181,-419,740,1562,-382,-286,-335,-340,-665,735017
35,5,9,-36,-23,14,59,-110,43,-61,5,-118,121,-138,-62,27,-86,-55,-206,-12,304,-31,-133,-134,-75,96,-112,-141,-216,-141,-6,735018
-9,-26,31,-38,-8,32,-133,-73,51,-32,-59,-158,-63,-252,-71,-77,-70,-50,-100,-102,22,-73,-95,-51,-243,-368,-57,-75,-122,-51,54,735019
29,14,30,-1,7,30,10,15,-33,47,-13,-64,96,-56,21,7,-6,5,-31,-2,139,18,-36,3,-108,-258,9,7,-13,54,-7,735020
38,44,-11,23,-20,-13,115,65,-20,-35,-60,97,69,-79,53,66,8,12,-41,73,276,73,-31,-10,17,-68,-11,4,8,66,-70,735021
12,31,0,7,-18,-17,10,55,52,119,41,38,35,-14,11,34,7,12,-23,39,205,58,-28,2,-33,-182,-3,2,5,73,-39,735022
27,7,18,0,-4,11,-62,-69,0,107,7,-54,111,28,-45,16,22,22,-13,30,155,59,-22,2,-52,-257,7,-2,4,88,6,735023
287,36,-78,-20,19,12,290,-160,-116,-35,69,149,20,59,12,328,-53,-96,-275,348,942,220,-95,-260,594,980,-252,-149,-116,-102,-620,735024
726,63,-201,-98,32,27,819,276,-282,-81,435,349,-120,202,129,839,-236,-291,-790,831,2329,461,-266,-715,1635,3286,-704,-446,-389,-440,-1517,735025
760,62,-191,-136,15,32,819,554,-224,-143,381,332,-111,270,133,882,-295,-319,-909,821,2577,449,-333,-786,1708,3882,-773,-538,-547,-538,-1516,735026
541,53,-95,-126,-1,20,526,336,-116,-87,237,130,-15,86,22,660,-215,-198,-685,558,2020,296,-269,-571,1170,3160,-548,-423,-500,-411,-858,735027
38,32,60,-68,-44,-11,-49,-54,87,-30,-30,-111,18,-124,-21,108,-62,3,-198,-5,525,-12,-150,-105,-25,901,-74,-159,-289,-85,150,735028
-54,34,70,-18,-31,-7,-123,-109,73,-157,-179,-120,169,-32,-7,-1,8,49,1,-68,128,-43,-66,34,-265,198,59,-46,-139,44,222,735029
-43,23,50,-15,-36,-22,-82,-139,65,-150,-225,-74,136,-27,-82,12,6,44,27,-30,89,-47,-53,27,-253,107,51,-27,-88,34,210,735030
-74,16,42,-20,-49,-34,-101,-142,43,-51,-141,-74,95,-31,-62,-53,-34,8,-8,-78,-32,-100,-94,-14,-322,-77,2,-47,-102,-16,184,735031
-29,24,55,-5,-12,6,-101,27,80,109,2,-60,42,-141,13,-24,-22,6,7,-53,-27,-73,-68,-2,-289,-83,9,-21,-71,-3,129,735032
-9,21,55,8,-1,25,-88,186,67,38,-25,-74,95,-120,-5,-3,1,14,15,-46,-35,-46,-47,5,-285,-110,19,-6,-38,7,92,735033
398,38,-89,-37,13,32,453,300,-138,-65,479,172,89,96,112,459,-135,-162,-391,433,1180,209,-165,-392,715,1756,-388,-233,-189,-267,-925,735034
1000,99,-233,-105,64,64,1166,747,-266,-96,856,381,-44,379,207,1128,-365,-420,-1091,1058,3087,538,-389,-1022,2124,4881,-991,-643,-578,-719,-2072,735035
1091,123,-233,-152,50,50,1265,942,-358,-76,697,450,-124,337,204,1280,-418,-439,-1292,1130,3625,599,-470,-1144,2376,5949,-1097,-761,-757,-826,-2185,735036
791,112,-134,-165,-6,9,923,693,-190,-36,601,264,-70,5,134,1005,-349,-310,-1074,802,3001,447,-432,-909,1735,5177,-846,-665,-746,-671,-1382,735037
-54,67,109,-90,-91,-56,-113,-24,111,-103,-20,-134,208,-148,-104,91,-61,50,-199,-110,590,-19,-188,-72,-213,1462,-29,-185,-373,-93,415,735038
-233,37,116,-51,-94,-70,-317,-171,133,-18,-254,-198,98,-165,-87,-84,45,143,106,-228,-30,-56,-57,149,-546,330,176,-1,-129,110,572,735039
-204,14,96,-52,-76,-54,-300,-81,95,-92,-148,-125,78,-246,-53,-84,36,99,87,-206,-63,-49,-45,117,-490,172,156,16,-79,99,415,735040
-193,15,103,-42,-58,-41,-319,-62,85,-55,-302,-189,189,-120,-27,-103,63,111,124,-202,-154,-38,-2,147,-499,-36,170,59,-19,117,395,735041
-167,5,90,-40,-51,-37,-318,-97,5,-94,-48,-167,127,41,-56,-78,76,108,143,-162,-121,0,24,138,-419,-44,149,83,7,110,406,735042
-116,12,74,-25,-39,-29,-256,-114,-25,-132,-64,-80,119,-77,-36,-10,90,119,149,-81,-7,41,51,143,-275,76,161,99,34,127,273,735043
474,69,-102,-42,25,10,515,122,-187,-32,367,196,-32,212,108,648,-90,-133,-384,604,1688,383,-102,-400,1124,2732,-377,-193,-161,-227,-1154,735044
1183,125,-316,-173,41,19,1356,638,-384,-62,737,529,-125,437,201,1473,-412,-488,-1278,1359,4004,746,-432,-1207,2840,6614,-1182,-729,-656,-822,-2521,735045
1115,128,-272,-235,-5,-7,1206,782,-381,-94,592,354,-128,430,105,1454,-429,-441,-1366,1251,4111,685,-505,-1196,2690,7127,-1161,-806,-820,-846,-2090,735046
627,105,-114,-222,-59,-43,583,383,-216,-187,293,41,-46,93,35,942,-273,-229,-930,671,2814,383,-394,-744,1533,5361,-696,-584,-696,-540,-909,735047
-218,47,155,-118,-111,-90,-457,-375,173,-185,-478,-350,160,-305,-74,-5,24,162,-6,-278,225,-126,-126,126,-522,1370,158,-71,-236,81,814,735048
-338,28,191,-45,-86,-60,-549,-295,176,-118,-429,-277,160,-263,-40,-173,122,234,289,-362,-424,-174,9,330,-857,228,345,117,42,295,825,735049
-253,9,128,-47,-70,-50,-402,-275,202,-201,-214,-215,111,-171,-29,-122,87,158,250,-284,-377,-153,10,240,-702,269,254,96,75,252,616,735050
-174,22,108,-42,-50,-47,-333,-183,241,-57,-88,-184,146,-34,-23,-45,108,163,262,-198,-276,-88,39,246,-574,352,251,134,142,266,561,735051
-158,-5,102,-52,-39,-38,-327,67,144,27,61,-138,131,78,-85,-42,83,138,236,-169,-264,-90,29,217,-540,324,218,113,141,249,394,735052
-98,20,92,-14,-18,-16,-210,-95,111,-74,-64,-90,154,-50,-104,-25,37,78,119,-133,-169,-86,-16,122,-455,442,136,36,93,169,222,735053
132,49,22,10,15,12,101,110,-32,-87,146,-57,13,-141,-62,201,-39,-23,-96,104,441,48,-76,-96,60,1371,-85,-83,6,21,-243,735054
406,46,-78,-45,19,18,435,247,-212,-198,340,81,-134,90,40,463,-220,-224,-512,348,1319,147,-247,-480,704,2820,-491,-349,-265,-296,-903,735055
416,55,-58,-71,3,17,453,491,-223,-133,348,49,199,-6,18,510,-210,-196,-545,358,1481,177,-254,-485,749,3141,-484,-354,-319,-321,-880,735056
202,48,7,-83,-26,-19,239,292,-37,-184,186,-1,-62,34,-59,351,-108,-60,-320,178,1018,119,-165,-265,347,2441,-246,-205,-249,-173,-415,735057
-132,39,84,-30,-55,-66,-138,-128,185,-117,-171,-112,49,0,-83,11,30,107,68,-156,78,-30,-34,99,-383,900,107,26,-73,63,348,735058
-190,23,73,-24,-69,-87,-246,-75,240,36,-155,-100,141,-9,-73,-74,55,107,173,-201,-152,-43,16,153,-495,429,167,79,-16,91,389,735059
-148,16,72,-14,-38,-59,-248,6,169,24,60,-52,-40,-41,14,-85,32,83,137,-194,-165,-42,6,117,-464,326,130,67,-45,27,335,735060
-137,-11,54,-31,-41,-45,-277,-135,73,-95,-103,-84,-157,-201,-39,-92,23,76,130,-188,-181,-34,-13,95,-451,256,121,62,-49,-11,308,735061
-168,-14,76,-36,-36,-32,-297,-191,87,-118,-171,-106,67,-127,-88,-108,45,84,171,-195,-250,-40,28,118,-466,88,141,83,-19,-2,326,735062
-173,-7,87,-36,-34,-23,-282,-56,84,11,-295,-33,80,49,-40,-102,57,107,200,-183,-287,-33,48,148,-462,-9,162,108,13,12,284,735063
-134,-2,75,-29,-23,-26,-254,-15,76,63,-230,-69,47,83,-10,-74,82,114,210,-148,-280,-1,71,162,-411,10,182,133,72,45,303,735064
64,21,23,-42,-1,-8,-55,-83,-5,192,56,-1,73,57,25,143,48,56,21,58,240,95,32,0,19,846,17,41,34,-47,-30,735065
76,24,6,-43,-10,-27,-62,-88,-22,78,84,-7,21,-12,87,199,13,22,-55,80,368,83,2,-63,93,1150,-51,-18,-7,-80,-84,735066
-67,2,8,-53,-46,-60,-250,-124,-120,-115,91,-32,91,205,45,53,7,21,-1,-69,49,-19,-9,2,-187,762,-6,-12,2,-20,82,735067
-308,-28,93,-36,-64,-60,-549,-237,100,-63,-110,-109,90,220,52,-227,99,142,272,-351,-733,-183,79,266,-809,-451,255,147,160,188,621,735068
-312,-22,111,3,-34,-41,-519,-131,118,37,-178,-93,123,88,-24,-271,127,159,343,-363,-921,-195,112,316,-900,-807,294,203,257,260,682,735069
-253,-14,100,7,-15,-18,-354,-372,66,-8,-69,-38,98,63,-6,-245,113,131,316,-313,-868,-183,124,281,-815,-745,247,188,276,261,500,735070
-206,-12,98,40,0,3,-210,-218,14,-39,-58,-63,227,-127,-66,-267,58,72,255,-332,-858,-203,69,230,-811,-763,193,137,252,228,429,735071
-206,-20,72,74,-2,-2,-171,-219,-20,5,120,-172,168,-336,-126,-338,-28,-18,146,-388,-911,-283,-19,113,-855,-809,85,40,159,135,282,735072
-205,-9,69,83,7,-11,-165,-95,67,129,55,-208,182,-232,-139,-325,-9,-11,152,-358,-865,-267,12,106,-811,-791,66,50,156,129,207,735073
-163,-7,50,71,18,-7,-78,42,112,-10,57,-152,42,-63,17,-224,9,-3,134,-255,-668,-187,39,96,-636,-552,58,58,164,123,159,735074
-63,-20,9,30,13,12,13,15,51,-41,-131,-100,-104,-60,83,-131,-26,-38,48,-154,-396,-127,7,17,-415,-177,-17,5,103,46,50,735075
1,-25,5,13,18,17,40,68,27,36,-30,-55,42,-21,11,-84,-29,-34,6,-109,-266,-92,-2,-7,-326,2,-24,-8,65,10,26,735076
-16,-14,19,16,12,4,30,39,35,20,-6,32,-97,72,26,-51,37,44,76,-70,-241,-34,63,59,-305,-27,42,62,94,40,95,735077
-135,-8,33,30,-8,-25,-113,37,-4,122,-183,-79,-183,63,20,-112,122,131,241,-131,-458,-15,136,195,-462,-471,182,161,147,115,307,735078
-152,-12,17,17,-21,-35,-256,-166,-48,36,-171,-60,-47,94,-53,-141,103,104,225,-151,-481,-28,115,164,-474,-586,155,151,93,40,259,735079
-157,-23,38,12,-4,-7,-428,-159,-47,24,-103,13,-16,124,-16,-182,85,98,236,-182,-574,-50,112,167,-536,-799,161,143,52,-21,327,735080
-86,-36,32,1,24,10,-299,-133,1,148,-33,-72,-103,-26,-37,-137,44,63,197,-120,-443,-18,102,115,-410,-653,116,115,7,-93,228,735081
-69,-23,28,21,20,11,-89,-188,48,283,-118,0,-77,-19,-41,-100,57,78,183,-74,-368,4,116,114,-357,-591,130,119,4,-108,162,735082
-105,-38,5,3,-19,-21,-68,-59,129,111,9,65,2,21,-62,-105,68,74,187,-99,-402,0,95,118,-395,-672,128,120,13,-116,245,735083
-119,-31,17,11,-13,-26,-83,63,85,-29,104,56,-10,88,17,-146,73,84,211,-115,-486,-30,94,146,-431,-757,153,133,65,-67,236,735084
11,4,-8,48,17,2,116,69,-78,65,96,57,-155,-83,15,-35,4,13,58,1,-162,9,48,22,-162,-202,31,35,42,-114,-25,735085
-54,-7,-4,54,5,-8,70,-24,-21,198,74,-69,19,-277,-68,-118,-21,-16,53,-91,-325,-74,17,30,-330,-366,22,4,45,-72,145,735086
-93,-5,13,55,9,2,29,61,-18,190,115,-74,69,-34,-51,-168,6,5,111,-140,-469,-113,24,88,-437,-578,67,43,111,33,221,735087
-22,-3,2,50,22,10,92,0,-82,140,18,-19,0,194,-75,-111,-25,-48,35,-70,-277,-86,1,19,-282,-254,-20,-8,104,24,27,735088
-15,-2,-14,26,11,1,78,181,-126,44,-31,-61,-13,48,-75,-73,-38,-48,-23,-34,-179,-70,-8,-6,-209,-49,-38,-26,105,41,-30,735089
-24,-4,-4,0,0,7,-45,-38,27,113,98,-74,-17,128,25,-21,9,1,31,10,-125,-22,23,58,-163,33,20,22,159,144,8,735090
-33,-9,2,-10,-1,-3,-184,-90,6,64,104,-63,-133,18,7,-44,-5,-19,40,-11,-159,-46,22,60,-195,6,8,5,156,167,62,735091
-8,-11,-14,-10,2,-1,-195,-197,74,-73,-86,47,-150,-1,-62,-58,-28,-34,15,-33,-131,-56,0,31,-190,50,-19,-22,127,154,14,735092
-25,-11,-7,-12,-2,8,-136,-111,-18,-141,-166,18,-134,27,-58,-67,-15,-24,49,-30,-140,-52,4,58,-195,30,5,6,137,181,2,735093
-207,-18,64,29,1,4,-182,-136,42,32,-482,-95,-226,-35,-96,-266,47,58,228,-226,-675,-146,62,228,-634,-813,175,114,195,291,447,735094
-347,-28,98,67,-6,0,-296,-401,105,106,-413,-84,-72,-257,-82,-443,114,114,415,-378,-1176,-223,128,379,-988,-1676,343,225,282,383,749,735095
-395,-36,97,82,-4,-9,-412,-432,84,48,-104,-94,103,-368,-58,-507,128,132,490,-428,-1384,-251,161,416,-1104,-2116,388,255,314,393,829,735096
-294,-23,71,94,21,2,-318,-81,133,200,-130,-1,163,-139,-96,-387,136,129,453,-293,-1154,-168,176,371,-860,-1880,338,257,315,340,581,735097
-29,-10,-39,66,16,-8,81,132,1,195,-15,128,91,26,1,-68,49,18,177,50,-309,17,102,89,-163,-623,76,112,145,88,-80,735098
45,11,-46,53,18,-3,217,36,-140,66,47,67,-32,302,82,39,24,4,69,120,-27,54,68,-1,14,-189,7,46,8,-70,-166,735099
44,9,-50,32,6,-5,175,-159,-36,52,-49,68,-40,308,80,45,37,15,58,107,2,58,72,-14,19,-134,6,24,-63,-162,-85,735100
-27,-17,-37,6,-5,-12,21,-237,8,-36,-12,26,-175,250,44,-19,52,23,90,29,-157,18,72,7,-113,-379,40,37,-77,-197,28,735101
-29,-14,-22,4,4,4,-19,-147,-56,-88,-172,-2,-156,47,18,-16,61,48,118,36,-171,32,79,46,-119,-422,68,57,-55,-196,127,735102
-6,-3,-9,23,25,27,21,-34,-56,37,148,-100,57,-101,-25,-56,11,0,76,9,-201,-1,31,2,-142,-457,26,15,-84,-241,37,735103
-43,-11,19,40,29,30,-13,139,1,57,122,-58,13,-196,-20,-138,-23,-22,47,-77,-343,-64,-5,-6,-280,-613,15,-17,-94,-233,146,735104
-408,-48,105,71,-18,0,-427,-195,117,-22,-138,-165,21,-204,-46,-521,98,124,403,-461,-1383,-265,112,349,-1102,-2246,357,185,129,84,839,735105
-442,-44,105,97,0,-5,-409,-243,100,44,-102,-44,78,-110,-69,-541,164,180,516,-447,-1543,-249,184,447,-1146,-2621,447,286,311,261,867,735106
-289,-20,51,111,32,9,-162,-109,90,105,-218,39,-38,-126,20,-375,132,124,418,-247,-1157,-141,176,349,-776,-2106,324,241,358,270,429,735107
96,5,-47,84,79,54,280,108,-40,25,127,123,20,-186,70,-27,-53,-100,-13,124,-93,20,25,-60,66,-416,-106,-20,162,31,-359,735108
148,-26,-77,24,47,33,251,-11,-116,32,311,18,-14,-290,-13,-14,-156,-194,-213,93,130,-37,-102,-217,160,67,-266,-167,-1,-76,-441,735109
113,-13,-57,23,39,26,207,157,-68,143,189,-32,-147,-8,-13,-19,-126,-159,-193,64,125,-29,-93,-171,111,94,-216,-156,-3,1,-360,735110
93,2,-47,35,39,19,232,263,-106,31,9,52,-120,79,29,42,-47,-70,-98,123,185,43,-13,-60,149,182,-103,-59,97,138,-250,735111
114,18,-44,36,35,20,279,195,-52,-76,-44,61,42,21,15,104,10,-22,-36,175,270,105,35,-9,213,324,-54,-3,136,207,-148,735112
80,3,-40,26,19,13,198,50,-37,-1,-2,91,156,153,80,54,-6,-18,-11,124,196,72,23,10,137,234,-42,-5,99,221,-115,735113
-93,-13,15,18,6,-4,-115,-117,49,21,-102,46,136,186,31,-107,56,63,142,-42,-260,-7,83,163,-254,-480,132,89,149,321,262,735114
-332,-24,71,37,-21,-25,-422,-305,103,36,-335,-31,-21,-93,-94,-313,181,197,439,-235,-928,-95,193,431,-736,-1597,414,268,312,518,797,735115
-388,-33,87,59,-11,-16,-470,-262,145,85,-149,-104,-17,-93,-102,-410,183,198,517,-300,-1200,-147,198,477,-870,-2096,447,299,335,503,853,735116
-253,-29,58,71,28,9,-302,-237,68,192,-82,-149,49,11,25,-328,123,102,378,-203,-947,-120,150,319,-629,-1779,291,204,238,331,456,735117
55,-23,-39,23,46,45,79,-76,-102,19,87,56,25,6,44,-25,-33,-73,10,93,-86,6,27,-59,56,-419,-57,-27,11,-23,-320,735118
144,-5,-42,23,51,66,212,-40,-46,101,142,71,41,-90,-83,48,-66,-105,-110,145,189,34,-23,-167,218,28,-150,-117,-133,-236,-385,735119
150,1,-50,26,36,41,278,61,-50,11,119,34,34,58,-66,76,-65,-103,-131,159,275,41,-43,-192,243,196,-166,-144,-205,-372,-384,735120
154,21,-36,48,40,28,290,4,-19,28,99,73,-63,164,47,120,-59,-84,-131,176,345,49,-53,-185,286,315,-145,-146,-226,-442,-361,735121
136,30,-28,45,41,21,228,126,92,-33,-98,6,-69,-71,35,88,-65,-87,-151,143,291,18,-61,-192,226,270,-159,-158,-247,-506,-353,735122
101,13,-54,22,14,0,202,110,72,-109,101,66,-108,-57,-37,81,-61,-85,-166,132,283,10,-60,-203,206,293,-166,-172,-240,-527,-281,735123
-314,-30,69,20,-37,-21,-345,-266,75,46,-327,-168,41,-77,-94,-375,54,86,210,-344,-878,-231,38,188,-758,-1498,219,43,-53,-207,750,735124
-860,-81,254,102,-32,-14,-1045,-651,358,107,-1125,-425,250,-200,-197,-1020,291,357,929,-943,-2727,-513,282,855,-2122,-4521,858,487,395,390,1900,735125
-805,-83,240,151,11,28,-949,-554,317,82,-941,-360,289,-266,-58,-1029,320,346,1032,-866,-2883,-474,347,901,-2060,-5015,879,583,588,562,1649,735126
-430,-64,115,154,44,61,-433,-176,185,154,-416,-106,0,-58,-26,-641,213,186,699,-422,-1897,-242,280,562,-1178,-3661,526,415,546,465,702,735127
234,-9,-103,81,88,82,432,268,-60,169,428,269,-173,70,55,160,15,-90,-17,371,213,201,105,-102,515,-375,-129,40,250,122,-728,735128
304,7,-137,21,55,49,495,299,-49,135,328,250,-217,120,29,282,-44,-134,-211,438,687,248,46,-222,746,503,-256,-64,77,65,-707,735129
238,1,-110,8,26,26,368,434,-72,66,-3,198,-113,57,-11,199,-74,-136,-246,322,599,175,-30,-206,589,478,-242,-111,11,119,-574,735130
185,-7,-91,2,24,24,278,201,-79,21,-25,162,-135,96,89,160,-57,-102,-198,267,491,143,-34,-149,479,391,-173,-92,4,211,-419,735131
167,21,-66,1,28,37,283,69,-149,-2,-37,106,-34,174,130,189,5,-31,-112,282,499,191,36,-72,484,413,-96,-20,50,299,-295,735132
116,3,-67,-15,5,7,202,106,-126,-10,-102,75,-103,158,122,149,8,-10,-95,230,403,165,30,-50,389,291,-58,-25,36,314,-194,735133
-173,-31,18,-23,-37,-26,-248,-118,76,65,-162,-81,17,145,-23,-182,66,90,141,-119,-438,-39,68,193,-308,-983,189,91,109,428,446,735134
-465,-24,134,58,-22,-20,-614,-194,112,172,-176,-278,92,22,-100,-495,242,283,609,-399,-1418,-159,241,595,-1003,-2628,593,385,365,686,1003,735135
-482,-50,108,67,-13,-15,-578,-380,184,192,-93,-189,-35,28,-103,-524,242,244,629,-404,-1541,-173,248,585,-1007,-2932,574,392,395,626,853,735136
-290,-54,30,62,-1,4,-310,-290,62,31,-143,5,62,13,-80,-361,148,114,407,-209,-1095,-96,181,362,-593,-2296,351,254,299,385,437,735137
151,-26,-79,15,42,52,208,149,-67,105,58,222,-12,85,72,102,3,-61,-51,246,142,115,42,-77,393,-355,-65,-11,64,-27,-424,735138
207,2,-69,26,59,66,300,242,-79,108,0,123,-178,-82,191,188,-20,-61,-134,287,387,116,15,-144,523,105,-124,-70,-39,-206,-402,735139
193,11,-72,25,41,34,323,186,-24,236,-196,20,-156,-99,80,171,-57,-92,-185,242,448,83,-27,-190,516,264,-178,-130,-122,-353,-436,735140
189,12,-84,12,24,19,329,184,-87,143,-17,89,25,146,15,151,-83,-130,-258,217,495,40,-72,-255,519,416,-243,-205,-199,-457,-451,735141
202,14,-80,-6,11,18,273,13,-75,46,212,103,14,151,100,184,-83,-113,-259,231,551,54,-89,-241,540,549,-226,-199,-199,-463,-426,735142
165,13,-73,-25,-1,12,178,2,-5,20,111,119,-158,18,98,165,-54,-70,-189,206,477,54,-52,-163,456,474,-150,-145,-157,-384,-299,735143
-224,-18,41,6,-30,-11,-328,-328,92,105,-73,-54,-36,-93,-26,-222,95,104,193,-203,-586,-152,80,214,-419,-1200,212,77,18,-67,564,735144
-678,-67,160,73,-52,-40,-836,-386,378,-30,-224,-262,127,-139,-53,-728,262,286,705,-664,-1979,-363,252,675,-1438,-3527,657,392,320,363,1390,735145
-649,-70,142,111,-26,-33,-708,-382,236,-41,-258,-195,99,-118,-41,-739,280,285,771,-601,-2080,-314,302,698,-1382,-3895,690,469,465,491,1262,735146
-325,-46,70,112,25,7,-277,-261,77,-22,-77,-78,52,-155,-66,-435,178,151,490,-251,-1292,-125,240,415,-676,-2797,408,332,399,371,649,735147
208,0,-94,50,58,32,361,91,-85,14,299,173,-16,139,-3,176,15,-45,-58,357,318,218,89,-93,605,-313,-94,36,159,79,-501,735148
272,6,-123,-2,33,25,418,47,-81,-130,199,296,-134,105,33,321,-11,-66,-217,450,757,281,32,-196,851,456,-189,-55,26,9,-605,735149
198,-4,-107,-16,15,4,291,155,-150,-186,194,305,-20,93,63,279,5,-36,-182,377,672,252,36,-136,736,389,-127,-37,-7,48,-405,735150
175,-15,-99,-43,11,7,218,133,-144,-60,164,272,-70,123,54,279,27,-5,-158,371,701,250,45,-116,733,454,-99,-24,-16,83,-379,735151
137,-17,-90,-58,5,-13,168,53,-59,11,119,147,-195,211,75,255,18,-4,-161,330,684,222,29,-114,686,459,-100,-44,-41,75,-297,735152
132,-4,-91,-49,4,-8,152,-22,-20,-98,230,80,-222,138,116,230,-12,-35,-200,295,655,191,-10,-146,650,477,-113,-97,-91,16,-242,735153
-17,-7,-8,-31,0,22,-132,-111,41,-10,-64,93,6,-54,10,30,60,65,6,70,109,74,47,67,207,-323,93,17,-14,129,221,735154
-358,-27,103,39,-5,-6,-525,-164,147,-30,-350,-55,48,-17,-67,-374,189,218,396,-312,-996,-134,180,413,-638,-2089,420,237,176,354,904,735155
-431,-41,100,83,-6,-19,-501,-385,142,-60,-425,-192,-73,54,-11,-490,197,205,500,-385,-1333,-184,204,459,-811,-2687,466,289,269,373,890,735156
-270,-26,43,85,30,14,-269,-156,81,-64,-139,-160,-133,142,27,-372,115,89,336,-253,-1016,-141,126,278,-481,-2236,294,185,220,225,437,735157
199,13,-68,40,93,59,280,114,-9,95,296,120,-133,195,92,125,-54,-131,-180,233,303,94,-26,-186,557,-158,-175,-108,7,-103,-474,735158
260,-1,-76,-1,69,53,334,288,-102,27,318,196,147,144,97,216,-98,-158,-315,286,582,109,-82,-264,700,417,-252,-190,-92,-172,-505,735159
222,-8,-87,-28,39,42,321,200,-137,-13,362,169,151,-65,28,195,-91,-142,-308,242,574,79,-82,-251,650,503,-250,-191,-116,-154,-416,735160
176,9,-55,-3,39,60,254,134,-104,-86,260,71,181,-97,38,137,-68,-109,-247,153,408,22,-65,-188,482,326,-189,-173,-98,-83,-287,735161
138,-4,-47,-11,35,45,173,240,-21,-44,200,1,24,-113,10,91,-86,-120,-246,103,327,-20,-89,-182,411,262,-179,-180,-101,-56,-268,735162
93,9,-19,13,49,37,110,171,-60,-54,-20,-16,6,-136,33,52,-69,-92,-183,68,231,-37,-61,-121,338,127,-118,-137,-69,25,-194,735163
-110,-9,33,30,21,13,-141,150,66,-29,-205,-171,-1,-160,-46,-154,-6,11,21,-161,-324,-115,-7,74,-117,-802,82,-13,10,159,345,735164
-462,-36,118,56,-8,-23,-553,-127,144,33,-265,-309,16,-124,-103,-551,150,171,441,-526,-1416,-292,128,434,-946,-2634,442,232,206,398,1036,735165
-452,-41,111,78,11,-6,-531,-295,160,-5,-209,-221,35,44,-30,-551,182,188,537,-472,-1505,-256,183,478,-921,-2964,477,310,294,408,870,735166
-244,-65,30,42,24,0,-293,-62,180,134,-104,-141,-22,37,-15,-336,92,72,295,-221,-925,-123,118,240,-400,-2159,246,183,194,192,309,735167
81,-46,-72,-9,36,13,106,139,-31,-36,-13,83,-119,27,98,59,2,-40,-46,158,92,105,42,-69,399,-620,-54,2,29,-85,-339,735168
132,-20,-76,-16,38,18,172,85,-51,-90,169,130,-38,244,82,145,-8,-39,-129,215,354,149,9,-126,535,-226,-93,-41,-59,-178,-308,735169
135,7,-64,8,49,17,198,335,-17,-137,28,155,-72,49,20,101,-28,-44,-148,155,317,114,-7,-136,468,-256,-108,-61,-123,-255,-261,735170
156,14,-65,12,51,24,263,170,87,69,-32,67,-49,39,-12,117,-38,-60,-198,153,386,115,-12,-178,493,-114,-145,-99,-183,-336,-269,735171
132,17,-44,7,50,29,248,122,69,0,53,17,-117,50,45,101,-26,-43,-179,136,353,90,-13,-148,439,-158,-115,-99,-183,-350,-174,735172
132,16,-35,10,52,15,227,3,3,15,108,-23,-2,-57,16,141,-3,-15,-137,166,386,117,-8,-107,480,-97,-64,-67,-145,-323,-207,735173
54,3,-45,4,32,-6,102,82,-51,-110,262,12,29,60,66,68,-16,-19,-120,81,245,72,-18,-86,354,-282,-56,-63,-144,-315,-92,735174
-130,-20,-16,-3,-2,-22,-152,2,13,18,-29,-48,237,62,-24,-143,12,25,2,-124,-261,-64,15,32,-52,-1040,43,-6,-92,-224,207,735175
-169,-35,11,5,1,-26,-229,-155,81,-138,-355,-43,32,54,-67,-185,63,58,110,-152,-458,-77,61,119,-161,-1354,130,66,13,-86,329,735176
-68,-27,-9,2,26,-2,-135,-162,-8,-88,3,-21,-146,51,-32,-82,40,27,76,-38,-241,-15,51,74,48,-1025,72,51,55,-35,81,735177
146,0,-53,-3,64,28,103,75,-106,12,155,89,-222,82,69,145,-12,-38,-120,166,300,85,-8,-89,488,-121,-96,-53,13,-28,-239,735178
128,-6,-45,-29,46,13,90,56,10,-14,58,139,-175,59,120,118,-40,-62,-183,135,281,42,-47,-101,451,9,-115,-85,18,120,-235,735179
97,-9,-31,-32,43,20,33,25,13,-19,104,71,-71,-23,19,84,-62,-73,-190,94,208,3,-70,-95,366,-16,-114,-92,35,264,-220,735180
77,-7,-29,-25,37,15,-29,202,-37,25,134,31,-3,-192,60,38,-76,-88,-173,41,143,-27,-71,-80,304,-75,-115,-96,41,367,-121,735181
31,1,-2,-17,47,21,-83,198,-105,68,80,84,-81,160,70,18,-18,-18,-78,8,3,-34,-26,22,207,-266,-12,-16,120,509,-4,735182
17,-7,-16,-29,36,-4,-50,178,-124,57,-185,63,-119,305,99,64,30,20,-36,47,41,12,26,57,231,-232,27,23,161,549,17,735183
-27,-8,-37,-17,21,-30,-27,8,-21,-88,-136,102,-68,212,50,20,33,18,-14,19,-20,-2,38,65,185,-404,33,34,124,465,31,735184
18,6,-45,-2,24,-26,14,94,-130,-63,-119,80,-148,30,-22,52,14,7,-50,56,99,26,15,3,276,-291,-13,-3,50,281,-75,735185
4,-18,-31,-38,12,-20,-30,1,-55,-52,63,13,-169,159,-20,45,28,20,-20,38,97,44,22,3,252,-354,13,0,4,126,-63,735186
26,-20,-33,-46,22,-9,39,-81,-137,4,136,57,-6,79,29,71,26,14,-42,66,170,70,9,-32,307,-281,5,-1,-58,-30,-110,735187
26,-18,-32,-32,31,-9,42,62,-71,105,-10,12,-191,46,28,20,-24,-22,-97,15,141,28,-44,-80,246,-351,-40,-55,-150,-220,-76,735188
30,-2,-21,-9,46,16,43,-41,-10,5,-69,5,-253,55,14,-9,-43,-35,-107,-6,101,7,-53,-102,210,-431,-55,-82,-193,-337,-82,735189
37,2,-11,-3,55,17,41,-107,-134,62,-78,-44,-5,-126,63,4,-15,0,-67,5,108,31,-14,-84,226,-474,-25,-47,-183,-387,-23,735190
82,7,-21,1,42,5,106,-46,-163,132,138,-55,7,-111,60,42,-35,-33,-119,39,232,49,-39,-141,309,-320,-84,-93,-236,-490,-156,735191
68,6,-25,6,38,-8,108,56,-153,52,109,47,-75,-69,67,29,-66,-61,-171,19,236,14,-88,-176,296,-306,-113,-136,-271,-559,-230,735192
79,5,-22,6,33,-4,122,118,-69,99,209,65,-40,-224,-28,37,-66,-72,-176,19,263,5,-79,-194,315,-235,-141,-138,-255,-570,-190,735193
46,9,-22,13,31,-5,125,-4,12,73,144,-54,69,-290,-9,-4,-69,-72,-170,-19,180,-40,-93,-180,254,-311,-140,-138,-245,-527,-112,735194
31,-3,-18,9,34,-4,97,75,-8,-73,-69,-45,56,-54,2,-8,-76,-71,-174,-33,126,-56,-108,-150,213,-374,-112,-128,-204,-429,-108,735195
49,-7,-40,-13,22,-12,107,271,-105,-48,-78,66,-82,110,78,54,-58,-64,-160,31,227,-3,-71,-135,293,-185,-108,-105,-140,-324,-134,735196
72,11,-39,-7,24,-2,139,213,-160,-171,-57,100,-16,12,140,105,-29,-28,-143,86,301,42,-26,-93,361,-20,-84,-77,-64,-178,-147,735197
24,12,-25,-6,21,-14,67,119,-131,-155,-123,-4,-54,-44,105,63,12,13,-68,44,148,29,11,-9,250,-193,-17,-21,32,24,-57,735198
-5,-5,-30,-30,5,-32,37,-27,-144,-169,-116,59,-78,6,29,59,23,23,-21,39,81,25,34,44,210,-206,16,17,118,233,34,735199
-9,5,-18,-21,23,-24,22,-81,-8,-426,16,89,-86,51,-33,49,20,13,-35,35,22,5,7,66,184,-230,22,16,176,421,48,735200
1,0,-14,-21,43,-12,7,16,50,-225,-55,35,-23,-108,-118,13,-6,-14,-63,15,-24,-10,-11,40,146,-256,-3,-1,181,508,12,735201
60,-4,-37,-15,32,-11,120,125,-37,-107,121,91,46,-41,-10,46,-49,-64,-145,43,100,-7,-55,-42,243,-2,-76,-64,129,495,-168,735202
69,-2,-15,2,35,-6,140,77,-35,10,181,-8,119,-17,67,30,-66,-75,-161,21,107,-24,-86,-58,231,19,-90,-80,85,472,-147,735203
123,17,-3,3,62,24,186,162,32,-25,216,43,109,33,45,98,-51,-59,-152,92,252,32,-62,-82,351,192,-95,-76,51,383,-264,735204
339,37,-82,-28,60,32,470,442,-141,-36,577,126,-65,-21,59,362,-143,-164,-419,340,1005,159,-148,-350,927,1351,-342,-245,-159,30,-778,735205
309,35,-92,-51,31,10,406,244,-159,-126,376,160,-118,-169,-31,362,-146,-158,-465,307,1074,151,-169,-388,914,1505,-371,-287,-282,-165,-699,735206
195,42,-50,-43,34,-3,166,75,-75,-2,86,71,-32,1,-5,269,-80,-72,-304,178,790,107,-107,-243,647,1021,-225,-188,-284,-210,-347,735207
6,20,-2,-38,8,-26,-150,-33,28,-23,-90,-46,93,0,-38,80,-5,33,-79,-8,274,31,-43,-50,233,148,-24,-56,-208,-211,115,735208
-28,0,0,-45,-4,-43,-232,83,-1,80,-81,-99,166,-90,-9,48,-2,50,-32,-34,163,32,-49,-21,179,-83,12,-37,-179,-283,63,735209
10,8,15,-42,27,-17,-244,-30,70,143,-13,-38,51,-59,13,67,0,42,-26,-5,216,40,-25,-31,223,-84,19,-26,-175,-357,20,735210
11,-9,17,-55,17,-5,-169,-63,-20,96,-8,-8,11,40,34,37,-21,11,-58,-31,181,18,-43,-57,196,-159,-22,-44,-203,-437,-25,735211
16,-15,4,-44,17,2,8,-62,51,59,115,25,64,-14,17,-9,-50,-10,-79,-62,127,-11,-63,-85,147,-232,-58,-73,-214,-479,-84,735212
34,10,-9,-8,26,3,101,39,-6,119,-46,-32,9,28,-22,21,-39,-16,-96,-27,191,-2,-40,-113,205,-130,-91,-81,-198,-476,-89,735213
173,23,-71,-11,24,-22,282,52,-122,58,-145,-4,-204,5,12,227,-85,-88,-246,172,676,108,-80,-258,612,651,-235,-149,-229,-517,-457,735214
350,39,-103,-56,33,-12,447,119,-59,37,299,199,-179,98,65,472,-128,-138,-427,392,1276,233,-133,-393,1046,1660,-362,-239,-275,-531,-763,735215
394,48,-98,-81,37,6,424,336,-109,-32,273,313,-13,152,32,537,-121,-132,-471,446,1447,255,-143,-399,1134,2049,-368,-264,-290,-471,-727,735216
294,49,-51,-79,17,-8,295,262,-99,19,-61,152,169,-47,86,406,-109,-95,-405,302,1160,164,-144,-321,859,1741,-307,-240,-262,-328,-441,735217
-46,18,43,-22,-11,-34,-61,83,-16,-120,72,-157,43,-142,-65,-14,-67,-16,-121,-119,121,-95,-110,-53,15,246,-43,-108,-120,-39,198,735218
-93,2,33,-11,-22,-41,-69,1,6,-76,59,-182,2,-99,-152,-95,-63,-36,-75,-179,-116,-137,-113,-8,-126,-79,-24,-78,-32,144,144,735219
-104,3,51,-3,-9,-31,-46,3,93,-27,-63,-83,20,-110,-28,-73,-3,11,29,-135,-211,-106,-50,91,-140,-215,68,11,106,346,207,735220
-110,2,44,-12,-7,-46,-26,-10,95,-27,-75,-85,75,-161,-63,-40,32,56,84,-84,-214,-64,9,147,-102,-249,121,75,200,469,210,735221
-97,14,37,4,-1,-32,-9,23,86,10,-54,-58,27,-60,-133,-63,14,31,44,-99,-229,-68,3,116,-115,-283,69,51,170,451,233,735222
-73,13,22,13,3,-25,-7,-103,19,60,-206,-16,-14,65,-82,-70,-14,-11,-8,-104,-207,-88,-32,50,-74,-258,6,-5,116,378,73,735223
353,45,-85,-25,50,13,505,201,-203,-2,169,200,-14,167,21,400,-127,-160,-388,381,1021,178,-137,-336,920,1613,-356,-216,-72,63,-868,735224
729,79,-193,-88,69,25,936,247,-337,83,471,325,-89,207,80,845,-279,-318,-839,783,2305,395,-277,-741,1836,3695,-740,-490,-389,-352,-1495,735225
744,86,-189,-117,53,8,869,261,-251,-45,207,283,-94,66,32,881,-331,-325,-942,743,2516,392,-338,-811,1871,4173,-782,-572,-562,-531,-1453,735226
466,71,-113,-119,-8,-27,478,22,-120,-319,-23,119,-76,29,-3,596,-257,-218,-729,409,1852,216,-300,-591,1257,3253,-570,-477,-565,-490,-853,735227
-57,32,44,-65,-42,-44,-120,-171,-22,-103,-185,-169,-3,11,-147,39,-42,31,-140,-147,349,-69,-115,-60,53,862,-37,-141,-319,-190,231,735228
-134,24,85,-23,-19,-37,-136,107,-1,38,-145,-231,-19,89,-25,-61,37,94,85,-220,-43,-87,-19,100,-168,116,124,3,-155,-87,364,735229
-104,20,79,-8,-8,-21,-58,-97,26,-69,41,-224,39,47,-36,-56,20,68,87,-179,-36,-65,-31,71,-102,56,78,9,-120,-121,266,735230
-94,26,60,-8,-5,-21,-80,-16,97,-192,-42,-185,59,-116,-86,-79,-19,22,43,-189,-83,-81,-64,21,-89,-43,37,-26,-128,-178,178,735231
-81,9,46,-23,-18,-20,-147,11,17,-148,-38,-224,118,-263,-96,-62,-13,22,29,-159,-61,-62,-54,8,-57,-43,31,-17,-105,-179,146,735232
-76,-5,57,-32,-14,-17,-162,57,-30,-32,-30,-53,65,-122,-15,-47,-4,38,30,-139,-50,-48,-35,14,-51,-55,22,-10,-89,-161,156,735233
258,43,-34,-30,27,-7,300,315,-96,166,314,77,-13,-64,10,319,-102,-101,-270,246,880,151,-119,-282,720,1390,-268,-178,-174,-316,-611,735234
704,70,-182,-108,34,10,862,396,-316,-90,620,196,-82,-6,148,873,-255,-289,-784,766,2373,433,-285,-740,1846,3861,-708,-464,-415,-605,-1485,735235
729,105,-164,-129,31,8,851,262,-193,-64,600,185,-44,18,147,933,-280,-297,-902,767,2636,429,-337,-800,1913,4466,-768,-543,-541,-644,-1409,735236
473,76,-87,-133,-13,-29,474,240,-79,-247,228,86,16,-192,-2,672,-229,-198,-711,465,2000,253,-294,-582,1307,3663,-551,-458,-500,-467,-758,735237
-144,18,91,-86,-77,-73,-300,-114,71,-200,-189,-193,156,-106,-157,15,-10,80,-36,-185,186,-90,-99,56,-133,893,75,-72,-163,18,486,735238
-182,17,96,-56,-48,-65,-336,-246,86,-105,-259,-211,-3,53,-162,-60,50,122,146,-188,-141,-94,-18,174,-273,307,182,41,24,177,452,735239
-159,26,97,-48,-36,-55,-240,-105,-5,-140,-162,-206,-75,16,-35,-14,84,134,186,-127,-150,-58,40,197,-209,254,199,89,120,238,445,735240
-129,20,84,-51,-39,-61,-132,-157,55,0,-30,-30,24,176,46,49,105,148,191,-43,-62,-2,65,193,-105,345,187,120,156,258,368,735241
-118,20,68,-29,-31,-51,-146,-107,-32,56,-51,-96,112,29,31,-8,30,79,152,-94,-112,-58,-7,137,-137,271,126,63,97,189,242,735242
-39,41,43,-15,-14,-27,-109,2,12,-56,113,-81,-122,-75,-74,6,-44,0,31,-75,-2,-84,-67,8,-32,463,0,-27,16,74,69,735243
364,43,-64,-52,22,6,336,162,-36,-8,184,153,-109,-104,81,425,-146,-166,-353,364,1118,147,-171,-362,889,2212,-368,-236,-163,-199,-845,735244
827,70,-179,-123,44,30,882,341,-151,-104,298,302,-46,89,159,972,-316,-350,-894,850,2632,419,-329,-831,2009,4686,-838,-540,-466,-566,-1700,735245
857,92,-193,-160,13,0,925,616,-230,-180,486,246,-123,91,98,1059,-356,-369,-1056,859,2994,446,-406,-938,2154,5449,-925,-651,-633,-677,-1704,735246
527,89,-87,-156,-39,-24,503,496,-250,-203,203,53,-39,-81,29,726,-274,-223,-777,475,2207,256,-356,-648,1418,4356,-622,-525,-578,-499,-866,735247
-170,57,138,-65,-79,-65,-323,46,43,-104,-214,-321,237,-178,-71,-27,7,108,19,-275,137,-115,-101,88,-205,1123,113,-61,-204,45,674,735248
-260,49,166,-24,-59,-51,-381,-117,167,-52,-450,-289,265,-107,-125,-133,111,187,275,-325,-335,-117,22,286,-424,241,289,117,32,235,703,735249
-213,9,104,-41,-62,-40,-306,-295,87,-71,-309,-199,67,-80,-118,-72,84,135,208,-231,-222,-76,14,203,-253,355,203,84,60,196,467,735250
-198,3,90,-40,-51,-42,-363,-405,44,-312,-85,-130,29,-23,-57,-71,60,103,187,-224,-232,-81,10,164,-224,317,170,68,83,182,388,735251
-160,-4,80,-50,-48,-46,-390,-349,56,43,-195,-161,61,63,-48,-41,48,85,171,-178,-172,-58,19,135,-136,389,136,76,90,180,377,735252
-135,-19,70,-55,-47,-36,-310,-229,162,29,-192,-47,120,106,30,-44,40,78,156,-181,-171,-59,19,126,-129,355,134,79,99,175,344,735253
144,13,-11,-36,-17,-15,128,48,10,44,-68,85,55,83,30,241,-33,-28,-87,132,580,110,-42,-109,502,1509,-107,-65,10,23,-366,735254
609,65,-140,-85,20,2,725,491,-188,-74,143,185,-171,61,136,741,-208,-231,-606,620,1998,358,-205,-590,1580,3805,-582,-370,-270,-325,-1277,735255
669,93,-150,-124,0,-2,798,449,-267,88,428,123,-136,67,130,852,-290,-269,-795,672,2394,369,-311,-718,1760,4598,-700,-497,-452,-455,-1335,735256
350,77,-47,-112,-42,-35,397,136,-79,8,345,34,-76,105,-58,539,-213,-164,-578,321,1635,164,-268,-481,1042,3578,-446,-396,-433,-334,-543,735257
-192,40,118,-61,-82,-75,-302,-192,147,-162,-288,-219,172,-114,-157,-63,-20,72,10,-259,0,-140,-90,67,-260,1028,96,-75,-162,24,589,735258
-166,46,122,-8,-42,-42,-323,-95,158,-92,-93,-250,205,-54,-82,-92,32,109,145,-224,-189,-118,-23,141,-325,581,167,4,-59,49,526,735259
-138,26,102,3,-40,-33,-277,3,27,133,-118,-176,211,-112,-68,-74,22,92,141,-187,-185,-105,5,105,-292,511,134,-2,-61,-37,405,735260
-123,40,82,-7,-49,-17,-198,-204,48,125,-189,-145,125,61,-65,-44,38,85,140,-141,-154,-88,20,90,-241,499,128,4,-51,-86,329,735261
-104,19,49,-28,-61,-52,-140,-272,93,-84,-169,-86,115,-69,-92,18,37,81,131,-65,-39,-36,23,79,-119,621,118,6,-31,-119,181,735262
-92,0,65,-42,-53,-39,-183,-93,122,-40,-53,-133,138,-114,-63,37,39,92,147,-33,-12,-21,33,100,-77,631,136,21,-13,-112,189,735263
141,21,17,-56,-19,4,66,25,36,59,108,84,80,-114,33,272,-19,14,-42,210,584,120,-16,-86,440,1562,-65,-62,-49,-197,-300,735264
603,56,-109,-104,9,27,631,400,-63,22,436,335,11,159,134,741,-191,-209,-578,650,1944,337,-186,-573,1488,3793,-564,-369,-311,-497,-1213,735265
614,83,-116,-102,9,16,641,449,-178,199,399,147,113,104,73,736,-260,-251,-728,597,2108,288,-268,-650,1520,4254,-646,-477,-442,-527,-1098,735266
329,77,-15,-79,-25,-2,275,169,4,-17,368,-45,16,37,-65,457,-173,-125,-484,268,1391,130,-213,-385,912,3275,-376,-345,-331,-286,-474,735267
-107,45,111,-40,-73,-39,-229,-261,111,-9,-117,-163,246,-71,-55,-12,-4,69,11,-212,72,-104,-71,88,-83,1274,91,-77,-52,122,437,735268
-160,40,125,-3,-54,-38,-226,-465,104,42,-145,-119,257,-193,-17,-68,44,108,158,-228,-187,-102,-7,198,-184,820,189,30,105,292,502,735269
-128,27,90,-10,-63,-38,-119,-188,142,-29,-39,-140,105,-159,-61,-70,-8,40,98,-202,-158,-101,-33,120,-114,868,79,-16,105,258,310,735270
-152,17,72,-10,-58,-34,-155,-33,165,-91,-1,-94,114,-347,-110,-99,6,51,133,-218,-248,-115,-7,153,-156,714,115,4,151,304,324,735271
-127,34,93,14,-21,-11,-218,22,229,-66,-106,-97,114,-294,-127,-93,35,79,173,-217,-302,-95,38,193,-154,606,146,51,205,364,292,735272
-113,21,96,6,-16,-1,-253,-111,203,-79,-136,-54,85,-24,-110,-95,31,64,172,-206,-308,-87,24,188,-135,562,139,56,206,360,291,735273
-59,9,86,-22,-10,8,-204,-71,51,-269,4,16,-136,150,-69,-48,29,48,137,-158,-189,-52,15,143,-34,707,109,36,177,316,134,735274
29,20,52,-37,-4,19,-78,-59,18,-31,103,21,-110,173,-28,29,-5,0,49,-69,33,-25,-4,33,147,1056,2,-33,102,201,-27,735275
28,17,58,-20,-8,15,-91,-76,64,-41,29,-188,59,-274,-42,-20,-31,-7,11,-112,-20,-78,-47,1,91,972,-12,-71,32,125,35,735276
8,11,59,-10,-14,9,-142,-64,8,158,148,-165,111,-130,-85,-39,-42,-17,24,-129,-67,-89,-60,-5,39,843,5,-74,-8,61,26,735277
-37,4,51,-18,-35,-15,-160,-120,34,145,144,-112,129,-61,-69,-30,-27,6,62,-111,-89,-71,-40,16,14,716,44,-54,-35,2,66,735278
-78,14,70,3,-25,-5,-184,36,118,-42,162,-117,43,-11,-13,-36,13,50,118,-98,-161,-70,-1,41,-38,502,103,-18,-53,-57,153,735279
-86,6,58,-16,-31,0,-213,-24,37,308,69,-40,122,27,12,-58,2,50,128,-103,-200,-72,1,27,-67,366,104,-37,-106,-184,156,735280
-21,4,47,-12,-23,4,-150,24,-40,95,108,-17,-4,-48,61,-39,-32,-4,50,-63,-76,-63,-32,-59,35,527,20,-96,-191,-330,33,735281
-83,-1,51,9,-18,-9,-197,4,9,78,35,-90,107,-90,12,-91,-7,20,93,-118,-230,-94,3,-20,-85,244,65,-60,-174,-323,181,735282
-93,6,32,14,-26,-11,-137,-104,-3,84,55,-114,149,-69,18,-68,14,43,117,-101,-229,-65,34,7,-73,181,75,-29,-125,-303,169,735283
-93,1,2,3,-48,-39,-87,-280,-82,64,-54,-164,35,171,-6,-60,-15,11,80,-99,-175,-63,5,-21,-16,300,37,-45,-95,-289,112,735284
-165,-4,51,5,-36,-18,-208,-324,-91,-3,-56,-50,162,120,-46,-131,43,71,188,-169,-431,-79,50,126,-189,-57,151,47,55,-87,245,735285
-179,-4,72,10,-26,-8,-251,-122,-28,-104,-116,-44,97,132,7,-169,76,84,242,-198,-532,-88,69,207,-230,-198,195,93,166,59,311,735286
-131,-9,61,8,-10,11,-183,-39,-67,-187,-25,-78,141,0,12,-144,78,60,227,-162,-474,-65,78,202,-149,-74,166,87,245,149,246,735287
-19,-19,20,-22,-3,15,-46,-111,-28,-108,-91,2,67,-45,-10,-60,-7,-26,55,-79,-190,-44,5,53,86,432,9,-16,196,130,-58,735288
-4,-2,29,-6,3,27,-14,-87,12,13,-19,7,-17,-52,-5,-53,1,-6,36,-76,-166,-34,19,69,97,543,17,-22,211,212,-6,735289
-76,-6,34,17,-32,-3,-61,-47,-42,63,-95,-13,-43,75,-11,-71,58,54,130,-112,-304,-27,71,176,-6,365,120,43,283,349,213,735290
-93,-2,39,17,-34,-28,-61,193,11,133,-62,7,131,272,-21,-29,95,97,177,-70,-283,9,106,212,25,402,166,88,336,438,301,735291
-61,17,52,24,-13,-11,-81,120,-35,-35,34,116,-7,215,-33,7,93,83,159,-35,-201,39,106,201,102,513,156,80,334,451,178,735292
-59,13,42,9,-13,-4,-157,-81,15,-48,49,31,-1,-4,-116,-36,45,32,126,-71,-223,-8,58,150,90,490,107,37,272,411,79,735293
-72,-5,43,-6,-14,15,-225,-6,114,-23,154,-23,76,31,-53,-85,30,23,123,-103,-288,-51,46,138,32,371,87,19,227,381,69,735294
-92,-16,36,4,-20,15,-235,32,112,-95,-72,-37,117,37,-54,-139,8,1,118,-154,-364,-88,22,115,-30,228,70,-6,168,338,74,735295
-90,-24,34,5,-22,15,-149,98,-13,-56,30,1,88,-40,-30,-142,-3,19,134,-163,-408,-89,18,134,-62,111,97,-7,132,300,106,735296
-64,-17,15,7,-18,9,-47,-192,-25,51,1,2,86,-23,-58,-130,-1,0,98,-137,-356,-81,21,74,-20,123,46,-33,54,162,-2,735297
-55,-1,10,26,-12,10,-14,-269,23,-13,-83,25,204,-118,-14,-85,23,14,101,-72,-248,-39,55,52,56,164,41,-29,8,13,59,735298
-60,14,21,47,-5,6,-16,-209,21,144,-111,57,240,-215,55,-56,51,52,139,-38,-197,-4,85,48,84,112,82,-16,-26,-172,122,735299
-2,10,9,40,-1,15,4,-36,-20,214,-164,-56,48,-23,8,-30,5,15,50,-11,-75,-5,30,-37,156,246,26,-96,-147,-447,-38,735300
-14,7,24,44,-2,27,-82,-8,18,44,-103,-165,-17,67,-13,-87,-20,-9,30,-65,-167,-49,2,-57,71,62,10,-127,-219,-623,12,735301
-38,2,14,27,-11,6,-120,-151,65,50,-34,-126,-54,125,11,-76,23,16,65,-62,-196,-46,47,-49,62,-41,25,-85,-198,-674,79,735302
-12,4,13,13,-16,0,-99,-94,74,40,74,-83,-11,-2,-18,-20,31,24,49,-4,-77,6,43,-38,156,113,33,-66,-161,-689,33,735303
-116,-21,46,-5,-32,-1,-277,54,106,15,-22,-127,-57,-163,-95,-128,59,72,151,-115,-361,-53,55,82,-68,-252,139,8,-55,-512,250,735304
-324,-46,110,21,-27,1,-473,63,176,-90,-58,-128,-108,-118,-41,-346,148,179,425,-337,-1031,-140,155,349,-545,-1265,377,192,185,-117,701,735305
-390,-42,128,77,-18,20,-414,-260,217,89,-115,-198,-50,-39,-38,-459,168,168,499,-422,-1351,-216,167,432,-736,-1774,413,253,308,145,757,735306
-294,-27,88,97,6,16,-238,-104,202,237,-70,-110,10,-140,33,-386,129,100,395,-323,-1164,-179,142,345,-546,-1488,299,209,344,292,476,735307
-27,-9,-6,71,22,13,88,35,121,93,212,93,-61,-86,114,-91,19,-13,97,-33,-370,-15,65,88,113,-200,17,52,274,294,-150,735308
29,-5,-28,47,5,4,111,38,98,-7,317,151,25,-103,0,-67,-84,-99,-51,-29,-172,-48,-21,-37,220,220,-102,-60,166,313,-199,735309
36,3,16,56,26,27,70,103,54,169,153,152,95,-73,47,-83,-57,-75,-14,-61,-218,-53,-18,30,166,211,-14,-32,191,478,-71,735310
44,-4,17,55,27,40,91,46,-13,319,-88,5,108,-120,56,-72,-62,-74,-31,-62,-185,-50,-32,27,174,312,-23,-39,179,557,-24,735311
6,-22,1,36,8,20,52,39,-62,150,-73,33,71,-50,41,-81,-30,-39,10,-70,-236,-53,-5,64,127,236,12,-5,179,618,66,735312
-54,-13,1,33,-6,1,-27,-14,-89,-101,-18,-65,84,-28,-31,-98,17,11,84,-81,-331,-42,41,114,83,85,64,28,208,659,100,735313
-276,-42,61,35,-27,-9,-329,-378,46,-160,-81,-62,81,-114,-62,-329,85,112,292,-315,-952,-156,108,308,-426,-914,261,145,258,715,599,735314
